#exp_cfg={"servo_angle": 0.0, "laser_lim": 100.0, "servo_angle_to": 18.0, "laser_wup": 0.0, "bt_dev": "EnSpectr-25AE3", "laser_wdn_max": 0.0, "frames": 10.0, "servo_used": 0, "servo_calib_use": 0, "laser_wdn_min": 0.0, "servo_pix_from": 90.0, "cooler_tout": 300.0, "servo_angle_from": 0.0, "servo_calib": "[-1.9174921013161362e-09, 3.9322238269163779e-05, -0.27385609119055809, 653.59552119713567]", "laser_autoctl": 0, "servo_pix_to": 3682.0, "laser_pw": 100.0, "cooler_on": 0, "laser_volt": 4.0, "cooler_autoctl": 0, "cooler_curr": 70.0, "cooler_startup": 10.0, "laser_fixed_pw": 0, "gain": 1.3, "offset": 2.53059635486, "servo_calib_degree": 3.0, "laser_curr": 55.0, "shutter": 8200.0, "servo_calib_step": 1.0, "laser_fixed_curr": 0, "exp": 2000.0, "ccd_volt": 4.7, "bt_addr": "00:06:66:62:5A:E3", "servo_delay": 500.0, "laser_autooff": 1}
#proc_cfg={"flat_auto_wnd": 200.0, "flat_auto_fr": 200.0, "flat_auto_shift": 5.0, "yconv": 1, "flatten": 1, "flatten_strength": 100.0, "xfrom": 300.0, "auto_max_frame": 2000.0, "auto_signal": 48000.0, "flat_auto_tol": 0.1, "autoclip": 1, "xrel_range": 0.0, "flat_auto_to": 4000.0, "intensity_adj": 1.0, "xrel": 7852.0, "rmhot": 1, "flat_auto_slit": 4.999999999999997, "auto_ini_exp": 300.0, "auto_off": 0, "xto": 2860.0, "flat_auto_ref": "", "flat_auto_rank": 1, "autobackg": 0, "xrel_adj": 0.0, "auto_black_lvl": 1, "base_wnd": 100.0, "sub_baseline": 0, "xconv": 2, "auto_max_exp": 1000.0, "auto_total_exp": 10000.0, "auto_exp": 0, "rmripple": 0, "black_lvl": 8205.075, "shutter_clip_adj": 0.0, "auto_bckg": 0, "flat_auto_thr": 0.9, "subbackg": 1}
316.8218498245369 23691.22055732478
317.89969571804795 23516.258745057923
318.977263876126 23551.43703396061
320.05455438786703 23458.578106825003
321.1315673423287 23332.476299811653
322.2083028285215 23333.91025611892
323.2847609354267 23287.579043731246
324.3609417519747 23209.92631997321
325.43684536705587 23082.29017379102
326.5124718695279 23019.02191270197
327.58782134820103 22937.174520660636
328.66289389184385 22901.378978616638
329.7376895891921 22865.071047100217
330.8122085289342 22683.262912307553
331.88645079971866 22719.691668695723
332.9604164901575 22617.28999411489
334.03410568881554 22477.34717359624
335.1075184842266 22729.47754798093
336.18065496487543 22374.244429706385
337.2535152192122 22428.562564850912
338.32609933564163 22375.336730615025
339.39840740253203 22328.111405806052
340.4704395082099 22142.91594851354
341.5421957409617 22185.246068710127
342.6136761890357 22191.068077490723
343.6848809406365 22087.727214615894
344.75581008392874 21995.378536497636
345.82646370703696 21967.869892508552
346.8968418980512 21940.455646014823
347.96694474501055 21926.810591877387
349.0367723359268 21945.154073751142
350.106324758759 21894.59564836506
351.1756021014353 21763.91808515983
352.2446044518383 21768.86718974465
353.31333189781435 21780.97823561186
354.38178452716966 21652.00546271447
355.449962427665 21707.632861868427
356.51786568702846 21488.522757740175
357.58549439294256 21703.136323626673
358.6528486330535 21570.751204880537
359.71992849496564 21509.042956886737
360.7867340662433 21547.508476724088
361.8532654344144 21434.34279097536
362.9195226869597 21380.02236816733
363.9855059113288 21444.897450914803
365.05121519492604 21317.117431047624
366.11665062511565 21370.40066475019
367.1818122892273 21245.688041731155
368.2467002745434 21296.633432733935
369.31131466831175 21285.2935886336
370.375655557742 21380.486966172277
371.4397230299983 21265.444057319968
372.5035171722102 21186.01814531789
373.5670380714637 21147.94088750066
374.6302858148101 21231.05816107331
375.6932604892554 21175.541006277825
376.7559621817709 21170.664178704443
377.81839097928605 21077.8679998166
378.8805469686886 21082.41272028119
379.94243023683157 21185.23978526303
381.0040408705263 20917.985146328094
382.0653789565458 20970.70683604453
383.1264445816196 20962.478441762436
384.1872378324406 20867.880846691907
385.2477587956637 20962.27314178603
386.3080075579037 20865.57241934995
387.3679842057336 20685.708673286146
388.4276888256918 20680.991217678562
389.48712150426945 20664.663920745552
390.54628232792857 20578.773997230855
391.6051713830857 20574.474512764067
392.66378875611736 20658.96662753586
393.7221345333637 20585.626912663127
394.7802088011249 20454.045654579484
395.838011645661 20594.297532328408
396.89554315319765 20447.32416267606
397.9528034099112 20384.21548939347
399.00979250194723 20275.024734094142
400.06651051541485 20235.021534953696
401.1229575363741 20281.871827942006
402.17913365085224 20360.367341444424
403.23503894483656 20311.81315452286
404.2906735042761 20202.251143248915
405.3460374150818 20180.994251056465
406.401130763119 20108.537739843356
407.455953634224 20192.624746720623
408.5105061141876 20183.64817128797
409.56478828876243 20014.87649892672
410.6188002436629 20039.71293102581
411.6725420645689 20035.157585138804
412.72601383711117 19990.77028558155
413.77921564689314 20135.95259459178
414.8321475794728 20063.59297501737
415.88480972036814 19837.98014063569
416.93720215506437 19953.450078990492
417.9893249690049 19861.606929545313
419.04117824759123 19860.413218793616
420.09276207619223 19793.724568451253
421.144076540133 19788.78876726211
422.1951217247042 19800.132896878808
423.24589771515275 19814.411550390556
424.2964045966928 19662.405362111407
425.34664245449494 19780.201831895356
426.3966113736933 19731.785742648488
427.4463114393875 19676.86898546367
428.49574273662984 19674.464919640835
429.5449053504417 19751.06534936222
430.5937993658026 19683.05292188025
431.6424248676558 19648.673568380305
432.6907819409007 19590.146979434554
433.73887067040596 19552.723967925358
434.7866911409965 19549.286445388887
435.8342434374608 19586.924368072247
436.88152764455117 19483.825682229144
437.9285438469724 19494.807819863177
438.9752921294057 19405.45170912696
440.02177257648145 19468.87276569941
441.06798527279716 19385.35029780798
442.1139303029122 19509.05740274103
443.1596077513459 19380.805527663593
444.2050177025794 19521.635675842477
445.25016024105753 19435.540006398136
446.2950354511886 19424.729586330017
447.33964341733736 19337.619253720706
448.383984223834 19360.677609726125
449.4280579549686 19385.09876473858
450.471864694995 19459.532016252117
451.5154045281306 19232.01473584194
452.5586775385509 19364.875857767045
453.60168381039693 19296.76237370182
454.64442342776783 19452.41015241298
455.6868964747264 19362.7729368
456.7291030353008 19320.693156156518
457.77104319347563 19471.087223332812
458.8127170332027 19418.91913964256
459.854124638392 19456.787735161546
460.895266092919 19576.338391735142
461.93614148061897 19542.819874875633
462.97675088529104 19597.699028406958
464.01709439069236 19690.318312427473
465.0571720805492 19609.2651884405
466.0969840385442 19602.278861928182
467.1365303483253 19815.825444998936
468.17581109350067 19797.977588141286
469.2148263576437 19834.534257211624
470.2535762242878 19831.873384922896
471.29206077693016 19861.08566652736
472.33028009902773 19900.02530972368
473.3682342740012 19918.278356038085
474.40592338523857 19834.96313059894
475.4433475160804 19947.813135419543
476.4805067498364 19947.085548253213
477.51740116978 19873.372667329186
478.5540308591426 20059.643456481874
479.59039590112116 20105.874590674393
480.6264963788726 19995.19293400909
481.6623323755193 20275.805104034764
482.6979039741436 20253.844943389307
483.7332112577915 20457.997494880627
484.76825430947247 20358.452210347423
485.80303321215797 20446.67646343049
486.837548048783 20531.96619504656
487.8717989022425 20608.98329827502
488.90578585539697 20464.051698376963
489.9395089910686 20649.815838525054
490.97296839203955 20537.546490354573
492.00616414106116 20361.316568347283
493.0390963208429 20377.456703326872
494.0717650140559 20313.29937474984
495.10417030333883 20206.42702531895
496.1363122712901 20096.81780714736
497.16819100046814 19957.11790726175
498.1998065734024 19877.95416306392
499.2311590725767 19800.941255670237
500.26224858044407 19600.186662298114
501.2930751794156 19652.234992629918
502.3236389518679 19535.252221659026
503.35393998014115 19526.09134080802
504.38397834653733 19572.004135292213
505.4137541333221 19497.754289380933
506.4432674227228 19375.482959889836
507.4725182969323 19343.30028619763
508.5015068381035 19218.18499754341
509.53023312835467 19165.535642956344
510.55869724976765 19256.68824959163
511.58689928438434 19109.81870013673
512.6148393142121 19096.449210936844
513.6425174212218 19078.951100498125
514.6699336873462 19328.654866208013
515.6970881944835 19202.824628088845
516.7239810244901 19014.451563761628
517.7506122591931 18976.606612339885
518.7769819803761 19162.487740439687
519.8030902697901 19114.76694765953
520.8289372091476 19111.746981415843
521.8545228801249 19280.350884237774
522.8798473643619 19055.239888450673
523.9049107434621 19136.259580894515
524.9297130989908 19106.131080757874
525.9542545124805 18981.119944206803
526.9785350654201 19092.748681545163
528.0025548392696 19037.17896682831
529.0263139154504 18926.137583136184
530.0498123753423 19012.717588943335
531.073050300296 18921.03556604617
532.0960277716204 18880.096032982296
533.1187448705896 19026.214630980925
534.1412016784416 18953.70156273272
535.1633982763833 18995.66037266478
536.1853347455726 18902.247420974887
537.2070111671401 18789.03381242617
538.2284276221817 18849.10991918593
539.2495841917516 18882.465464298515
540.2704809568677 18858.916313584024
541.2911179985167 18905.099691515985
542.3114953976419 18868.007856323078
543.3316132351592 18907.273003462742
544.3514715919409 18842.185871232556
545.3710705488247 18899.285078839606
546.3904101866156 18824.239686689434
547.4094905860784 18942.317722274158
548.4283118279418 18977.98972364344
549.4468739929034 18999.08401706169
550.4651771616191 18969.87806782649
551.4832214147063 18953.026800563566
552.501006832761 18981.03714332778
553.5185334963226 19001.354497149878
554.5358014859103 19076.624557773644
555.5528108820035 19036.502343419455
556.5695617650363 19055.790118086672
557.5860542154242 19139.586043318057
558.6022883135283 19043.632024555372
559.6182641396881 19016.785940714777
560.6339817741991 18958.41393362244
561.6494412973225 19162.222807085163
562.6646427892883 19030.19784275213
563.6795863302796 18937.086237088097
564.694272000459 19016.747847197497
565.7086998799423 18987.622742228887
566.7228700488104 18866.284438452698
567.7367825871115 18795.392913266445
568.7504375748576 18830.16920995672
569.7638350920224 18774.849478104807
570.7769752185486 18806.60780919423
571.7898580343353 18677.867085255177
572.802483619258 18687.26045595806
573.8148520531431 18801.903097571292
574.8269634157932 18679.029829118324
575.8388177869692 18679.531413333465
576.8504152463938 18682.370674932714
577.8617558737587 18732.57798704395
578.8728397487175 18769.10661995864
579.883666950891 18800.219792699445
580.8942375598654 18831.17309843211
581.9045516551851 18972.44574946434
582.9146093163617 19062.536450023246
583.924410622878 18947.32430906338
584.9339556541727 18912.386577605743
585.9432444896538 18884.286303356937
586.9522772086875 18714.816517902986
587.9610538906127 18745.649945229256
588.9695746147318 18748.955973152868
589.9778394603054 18758.692327635472
590.985848506567 18696.547826254468
591.9936018327098 18614.727831184842
593.0010995178891 18456.263280545583
594.0083416412344 18469.542454793547
595.0153282818283 18357.655973500052
596.0220595187293 18228.18385764887
597.0285354309508 18262.45530087525
598.0347560974806 18222.26829507408
599.0407215972609 18316.832799933843
600.0464320092051 18327.204881755042
601.0518874121954 18244.238919763822
602.0570878850685 18323.57889044445
603.062033506636 18288.71945967096
604.0667243556636 18432.96916694716
605.0711605108936 18285.6825677693
606.0753420510264 18399.375801548755
607.0792690547278 18492.71632305759
608.082941600629 18450.696170421943
609.0863597673306 18377.876931450628
610.0895236333909 18766.355427984436
611.0924332773357 18769.974037291446
612.0950887776617 18955.881887080333
613.0974902128219 19049.121237516494
614.0996376612384 19124.78085119029
615.1015312013005 19360.05686123693
616.1031709113595 19519.122686356943
617.1045568697336 19517.64553303784
618.1056891547069 19693.490106127065
619.1065678445229 19929.813927956
620.1071930173985 20098.17943831595
621.1075647515099 20039.053136670824
622.1076831250048 20191.478064963194
623.1075482159849 20217.959763813855
624.1071601025305 20308.339224654184
625.1065188626781 20315.64870646852
626.105624574433 20477.989361770808
627.1044773157682 20205.481367140237
628.1030771646128 20402.97603699212
629.1014241988742 20419.861106109536
630.0995184964158 20412.19938721494
631.0973601350688 20544.41885308577
632.0949491926294 20427.577460395503
633.0922857468631 20368.590460112122
634.089369875499 20354.79838141867
635.0862016562278 20357.24296373612
636.0827811667077 20254.40423009618
637.0791084845641 20245.328925977054
638.0751836873878 20257.176116615614
639.0710068527369 20211.6914458599
640.0665780581294 20090.34699113259
641.0618973810506 19854.492359434167
642.0569648989604 19971.70103217246
643.0517806892676 19777.81433367487
644.0463448293649 19612.172680759115
645.040657396592 19518.031771299986
646.0347184682723 19566.721705308475
647.0285281216875 19363.97374394776
648.0220864340772 19319.52713400601
649.0153934826558 19276.158029202128
650.0084493446047 19138.853631522798
651.0012540970674 18988.612519265327
651.9938078171526 18985.089769663704
652.9861105819346 18898.019114649775
653.9781624684565 18918.31090309635
654.9699635537254 18719.932165609036
655.9615139147136 18803.062289258734
656.9528136283589 18611.54830059541
657.9438627715699 18671.94860179194
658.9346614212154 18416.93924487925
659.925209654135 18288.842166530158
660.9155075471263 18379.35810054422
661.9055551769616 18349.428150865373
662.895352620375 18266.603656107633
663.8848999540678 18270.381291397403
664.8741972547068 18095.476907245866
665.863244598926 18201.263079405293
666.8520420633213 18172.040143324986
667.8405897244611 18095.549828131716
668.8288876588758 18076.293977544643
669.8169359430613 18116.7390086373
670.8047346534822 18023.207847798476
671.7922838665672 18043.11408568626
672.7795836587156 18002.83115845537
673.766634106285 17986.509210942775
674.7534352856092 17974.60957284108
675.7399872729766 17853.460629973117
676.7262901446538 17932.65014053048
677.712343976862 17917.10253750992
678.6981488457986 17982.488909629345
679.6837048276229 17872.003570261866
680.6690119984596 17941.09855629561
681.6540704344043 17936.156683160378
682.6388802115107 17843.842597085175
683.6234414058108 17852.964508585843
684.6077540932874 17766.39406028979
685.591818349907 17871.29564972831
686.575634251587 17771.557737597435
687.5592018742263 17786.515939269906
688.5425212936734 17747.161657604498
689.5255925857564 17859.894311969652
690.5084158262707 17698.080429381716
691.4909910909646 17679.0688386299
692.4733184555644 17704.597093730503
693.4553979957618 17754.19752071164
694.4372297872123 17863.60114834686
695.4188139055404 17874.388109330903
696.4001504263324 17911.99610099047
697.3812394251509 17922.7041934195
698.3620809775111 18096.97888948925
699.3426751589104 17999.735999829543
700.3230220448004 18132.930616251542
701.3031217106054 18178.336121898323
702.2829742317172 18342.16523600997
703.2625796834873 18434.16818078069
704.2419381412474 18404.074077773897
705.22104968028 18654.511530007792
706.1999143758458 18781.507764903126
707.178532303169 18833.738437591273
708.1569035374378 19207.809076394475
709.1350281538107 19536.92733945396
710.1129062274158 19752.58639479277
711.0905378333373 20357.624151068154
712.0679230466376 20604.798322929437
713.0450619423427 21123.480717130922
714.0219545954424 21609.597071824515
714.9986010808989 22046.76236084836
715.9750014736292 22595.095131403265
716.9511558485392 23113.55265247627
717.9270642804786 23324.11662766443
718.9027268442787 23588.788314675403
719.8781436147328 23681.166124556083
720.8533146666014 23688.882702430135
721.828240074612 23445.276981176576
722.8029199134635 23292.964602942593
723.7773542578125 22850.115884188715
724.751543182294 22682.505820301943
725.7254867615029 22306.116529041272
726.6991850700015 22121.66486159525
727.6726381823228 21930.539195042107
728.6458461729599 22151.389906231663
729.6188091163858 22176.015344701875
730.5915270870246 22282.209286216297
731.5640001592856 22398.47444657177
732.536228407529 22932.773323547197
733.5082119060917 23141.948164493082
734.4799507292755 23223.816802426903
735.4514449513481 23281.392776268964
736.4226946465496 23436.1051872701
737.3936998890786 23106.803011161534
738.3644607531078 22926.428421955723
739.3349773127793 22439.558480988628
740.3052496421951 21945.729802051887
741.27527781543 21514.735867802367
742.2450619065221 20871.190885797103
743.2146019894826 20393.8477929992
744.183898138288 19807.636109488747
745.1529504268801 19372.529699739043
746.1217589291682 18965.279697898768
747.0903237190341 18502.280328913064
748.058644870318 18255.93640480806
749.0267224568397 17976.869944014434
749.994556552374 17727.68447729496
750.9621472306771 17584.606594833167
751.9294945654583 17384.708897369223
752.8965986304011 17257.099179271772
753.8634594991636 17073.402600120815
754.8300772453586 17117.01976334249
755.7964519425768 16962.235560949855
756.762583664371 16999.011683048077
757.7284724842611 16866.90878622911
758.6941184757416 16835.584507727057
759.6595217122667 16813.27193328618
760.6246822672638 16835.51547630215
761.5896002141235 16755.903217459723
762.5542756262093 16818.696156438626
763.5187085768503 16676.599317704902
764.4828991393406 16594.25892498321
765.4468473869474 16703.565061015084
766.4105533929032 16468.836980451215
767.3740172304078 16507.12926550752
768.3372389726283 16322.583773890412
769.3002186926988 16418.812893225997
770.2629564637282 16313.431961907601
771.2254523587872 16274.809641433767
772.1877064509154 16337.79161953069
773.1497188131179 16233.86661102601
774.1114895183728 16135.453436077278
775.0730186396268 16194.238601262856
776.0343062497905 15956.536080631438
776.9953524217381 16093.509297092347
777.9561572283274 16104.889628853789
778.9167207423689 16127.525586928521
779.8770430366476 16069.421173361645
780.8371241839159 16042.518007037876
781.7969642568951 16024.36564254188
782.7565633282757 16129.079761538398
783.7159214707099 16045.119226824154
784.6750387568281 16080.377996628513
785.6339152592227 16048.271956316556
786.5925510504512 15871.39543866789
787.5509462030477 15929.63432330258
788.5091007895098 15994.848816741327
789.4670148823006 16006.919000878417
790.4246885538596 16130.887599400696
791.3821218765861 16036.031385198501
792.3393149228505 16074.828615796598
793.2962677649975 15973.22881381529
794.2529804753303 16204.656902955836
795.20945312613 16144.52681217482
796.1656857896378 16019.461900012577
797.1216785380675 16139.013117667375
798.0774314435985 16214.935399139053
799.0329445783846 16297.17661984878
799.9882180145414 16366.587725374042
800.9432518241574 16303.233853157397
801.89804607929 16435.250368553872
802.852600851962 16372.103204952486
803.8069162141637 16427.634899330777
804.760992237856 16476.46747454162
805.714828994971 16461.2977067471
806.6684265574077 16529.341122860114
807.6217849970271 16257.764903385503
808.574904385674 16271.634413970667
809.527784795142 16289.890579094765
810.4804262972102 16316.36191231968
811.4328289636178 16088.805519899342
812.3849928660748 16068.138447306022
813.3369180762638 16020.624068867386
814.2886046658241 15839.567574337236
815.2400527063783 15913.409358717796
816.1912622695108 15782.869723683523
817.1422334267718 15789.878212328385
818.0929662496856 15653.909782018443
819.0434608097457 15675.762421868993
819.9937171784059 15596.198765343104
820.9437354271013 15461.599800575033
821.8935156272255 15458.999177462847
822.8430578501484 15425.280757014543
823.7923621672016 15342.178236090394
824.7414286496896 15426.010330237952
825.6902573688876 15405.845918259973
826.6388483960363 15397.86276336961
827.5872018023492 15331.39505729414
828.5353176590033 15405.346972564057
829.4831960371503 15223.565769016484
830.4308370079016 15239.140580773306
831.3782406423525 15266.944245488072
832.3254070115545 15238.907604995562
833.2723361865319 15163.76795783086
834.2190282382799 15265.399193979212
835.1654832377644 15251.825567346856
836.1117012559116 15289.958177346014
837.0576823636256 15230.520244167443
838.003426631778 15085.72383083037
838.9489341312074 15144.833755943338
839.8942049327197 15276.194928218869
840.8392391070975 15125.787017854522
841.7840367250865 15103.310986133807
842.7285978573982 15166.56398408954
843.672922574724 15217.780349384007
844.6170109477152 15130.648924559262
845.560863046996 15161.800981473487
846.5044789431595 15137.127606591563
847.4478587067697 15198.692323256128
848.3910024083561 15179.220706055828
849.333910118421 15181.777894313715
850.2765819074339 15066.144142592582
851.2190178458332 15244.75196761847
852.161218004032 15117.41230791538
853.1031824524016 15153.686668758073
854.0449112612987 15064.226191637616
854.9864045010327 15219.948568987293
855.9276622418947 15034.014153357872
856.8686845541379 15114.740180624067
857.8094715079915 15085.983422524438
858.7500231736467 15136.651350941862
859.690339621271 15100.148059541167
860.6304209209939 15106.630380193961
861.5702671429244 14914.230728165145
862.5098783571284 15111.049778823784
863.4492546336569 15083.716988289128
864.3883960425155 15148.3457330654
865.3273026536863 15053.027308387227
866.2659745371238 15052.319831918936
867.2044117627465 15170.091654125417
868.1426144004472 14970.039362712492
869.0805825200823 15217.734700031771
870.0183161914847 15214.662767553305
870.9558154844526 15194.32694172476
871.8930804687552 15123.916350936526
872.8301112141307 15080.024090180616
873.7669077902865 15213.709960874883
874.7034702669062 15373.167785975616
875.6397987136315 15351.955413497893
876.5758932000863 15300.256846410248
877.5117537958522 15257.584630107467
878.4473805704911 15395.517175420264
879.3827735935283 15384.280891767445
880.3179329344603 15350.878849670175
881.2528586627541 15475.528747615554
882.1875508478479 15408.39525597086
883.1220095591489 15343.707052119013
884.0562348660296 15360.731843026519
884.9902268378391 15519.056911078447
885.9239855438955 15429.276221522767
886.8575110534839 15342.666278724548
887.7908034358588 15340.376293689416
888.7238627602474 15309.54423993061
889.6566890958475 15367.681675703046
890.5892825118208 15237.691992179392
891.5216430773125 15274.28813436102
892.4537708614189 15162.747371200408
893.3856659332196 15110.631211993928
894.3173283617652 15118.870425618583
895.2487582160684 14981.952261091885
896.179955565116 15049.872956185058
897.110920477864 14917.333645827423
898.0416530232451 14965.998782944525
898.9721532701478 14885.584910634361
899.9024212874428 14911.051104537557
900.8324571439662 14896.905568638944
901.7622609085302 14887.177364990013
902.6918326499072 14887.853483024146
903.6211724368477 14989.433622804985
904.5502803380696 14874.031919517522
905.4791564222614 15060.47971494003
906.4078007580792 14911.716407427477
907.3362134141571 14888.22948366176
908.2643944590909 14938.267031750947
909.1923439614493 14945.196135188055
910.1200619897754 14972.840198174526
911.0475486125779 15063.713841988472
911.9748038983344 14987.328734310282
912.9018279155007 14899.75331630158
913.8286207324982 14884.217033486013
914.7551824177117 15030.32199910206
915.6815130395116 14960.205352378824
916.6076126662283 14930.15143129914
917.533481366163 14837.859437434177
918.4591192075914 14900.252022867333
919.3845262587565 14872.664561277343
920.3097025878706 14807.677932668474
921.2346482631237 14758.814340689443
922.1593633526682 14782.863265053358
923.0838479246304 14716.642959454912
924.0081020471061 14784.098748950093
924.9321257881656 14619.671998394439
925.8559192158464 14715.881835385702
926.7794823981512 14528.32782636613
927.7028154030686 14725.592612920262
928.6259182985414 14511.083602859988
929.5487911524906 14611.80342633996
930.4714340328119 14609.486945480492
931.3938470073608 14538.095403720185
932.3160301439748 14546.004683911622
933.2379835104548 14548.859906364412
934.1597071745709 14519.179062834985
935.0812012040769 14574.199715082068
936.002465666681 14592.932808574737
936.9235006300696 14609.18422884451
937.8443061619055 14517.801273331508
938.7648823298077 14567.935296121936
939.6852292013809 14471.95887055904
940.6053468441951 14586.971954814737
941.5252353257874 14538.4572173752
942.4448947136698 14704.676864042145
943.364325075323 14617.461458304611
944.2835264782043 14716.015366173553
945.2024989897309 14732.036606343358
946.1212426773054 14713.77729828174
947.0397576082851 14611.699511548806
947.9580438500125 14840.693139944418
948.8761014697939 14797.020339281331
949.7939305349064 14975.896478405248
950.7115311125999 14874.45760541123
951.6289032700952 15079.521676729719
952.5460470745875 14977.91031155242
953.4629625932339 15002.807087347648
954.3796498931715 15002.867929098697
955.2961090415029 15071.03173168263
956.2123401053068 15096.366120903982
957.1283431516276 14933.819000517487
958.0441182474842 14939.61152312764
958.9596654598663 15013.848837381369
959.8749848557309 14939.192700216827
960.7900765020167 14911.71539890656
961.7049404656209 14813.770690023046
962.6195768134185 14927.66668769143
963.5339856122537 14767.704526530277
964.4481669289453 14769.885150991826
965.3621208302793 14499.248051546205
966.2758473830145 14636.767765201726
967.1893466538822 14511.821988815273
968.1026187095813 14674.922022693388
969.0156636167867 14500.706800779542
969.9284814421426 14544.202643939663
970.8410722522622 14461.369552402426
971.753436113735 14519.211667314372
972.6655730931161 14367.547048419703
973.5774832569368 14449.909225649524
974.4891666716958 14348.447921051018
975.4006234038698 14369.337839110938
976.3118535198955 14323.591925996501
977.2228570861935 14423.876122100753
978.1336341691494 14290.037369088619
979.0441848351202 14275.272383807483
979.9545091504333 14313.82955918171
980.864607181391 14340.620045559564
981.7744789942699 14332.020990954252
982.6841246553086 14344.954971972571
983.5935442307236 14229.893529020634
984.5027377867027 14181.969016721632
985.4117053894024 14270.050469542093
986.3204471049557 14259.25078858982
987.2289629994648 14295.845827051995
988.1372531390007 14309.073466942053
989.0453175896091 14304.576597521844
989.9531564173067 14358.83839537994
990.860769688079 14212.462141068938
991.7681574678918 14340.944412854918
992.6753198226706 14278.785909932261
993.582256818323 14356.684801907391
994.4889685207218 14277.426651962636
995.3954549957143 14433.997504118324
996.301716309119 14305.863974750817
997.2077525267232 14359.201173111007
998.1135637142943 14290.460062314465
999.0191499375615 14357.567225252462
999.924511262232 14236.374953649221
1000.8296477539861 14453.578558591073
1001.7345594784656 14250.184479621565
1002.6392465012996 14257.209987167307
1003.5437088880753 14193.946762339361
1004.4479467043584 14292.007730554938
1005.3519600156869 14112.669715523589
1006.2557488875718 14201.370475983911
1007.1593133854858 14123.119710679259
1008.0626535748888 14173.316846737885
1008.9657695212009 13942.960027831781
1009.8686612898182 14126.419407449697
1010.7713289461135 14121.963021342215
1011.6737725554212 14032.207097381388
1012.5759921830577 14120.451879811348
1013.4779878943027 14117.449022666802
1014.379759754418 13927.30665454164
1015.2813078286254 13998.304874177324
1016.18263218213 13918.320827303778
1017.0837328801026 14013.828473708016
1017.9846099876886 13943.768346728873
1018.8852635700023 13974.148694429494
1019.7856936921362 13864.33074567306
1020.6859004191447 13995.577305642912
1021.5858838160675 13931.49811175906
1022.4856439479063 13855.988218088594
1023.3851808796389 13825.791446465704
1024.2844946762143 13886.180818805264
1025.183585402554 13775.174780254401
1026.082453123554 13762.138922709628
1026.9810979040776 13784.77706744966
1027.8795198089647 13818.387464152154
1028.777718903024 13780.417019962848
1029.6756952510368 13925.317531499828
1030.5734489177648 13645.265088746073
1031.4709799679313 13906.738656862924
1032.3682884662358 13730.905191233305
1033.2653744773506 13755.423648586551
1034.1622380659192 13743.704161764788
1035.058879296559 13915.853496453588
1035.9552982338591 13701.762141816664
1036.8514949423825 13820.828339130316
1037.7474694866614 13825.469960757604
1038.6432219312028 13924.22072267385
1039.5387523404825 13959.411800126894
1040.4340607789582 13978.482817192062
1041.3291473110476 13898.744613031904
1042.2240120011465 13877.235938098573
1043.1186549136273 14009.479893892043
1044.0130761128294 14149.388489445899
1044.9072756630649 14187.19665821025
1045.8012536286205 14199.197180121924
1046.6950100737577 14134.101144835218
1047.588545062701 14341.480924514259
1048.481858659663 14326.25301501645
1049.3749509288118 14439.564309034482
1050.2678219343034 14311.923013836215
1051.1604717402515 14366.204875304518
1052.0529004107575 14292.664761621616
1052.9451080098825 14435.51060447154
1053.8370946016694 14292.955442455728
1054.7288602501267 14243.65728990021
1055.6204050192446 14189.264425368325
1056.511728972977 14349.893359063348
1057.402832175254 14088.269148512341
1058.2937146899785 14096.213721666621
1059.1843765810263 14099.972509098317
1060.0748179122456 14080.360273927381
1060.9650387474576 14072.245394855112
1061.855039150456 14124.926082838083
1062.7448191850071 13908.39958708155
1063.6343789148505 13985.812642649213
1064.5237184037014 14045.930251830843
1065.412837715241 14010.318040481518
1066.3017369131267 13913.051118490821
1067.190416060992 13993.053711757268
1068.0788752224398 13921.134828284903
1068.9671144610438 13979.576002559752
1069.8551338403558 13765.666149553392
1070.7429334239023 13985.713237659864
1071.6305132751695 13829.348101731393
1072.517873457633 13985.946955865002
1073.4050140347335 13883.378194001536
1074.2919350698776 14039.674561199796
1075.1786366264623 14025.79824816467
1076.0651187678395 14088.943653889317
1076.95138155735 13975.600615960011
1077.8374250582929 14184.973180248093
1078.7232493339507 14058.23015687298
1079.608854447577 14149.501040294102
1080.4942404623907 14349.325483236436
1081.3794074415982 14373.74423287109
1082.2643554483657 14435.390530710056
1083.149084545841 14693.64102624029
1084.033594797138 14417.132822593683
1084.9178862653516 14725.888419604473
1085.8019590135427 14714.871463499027
1086.6858131047484 14764.81832911701
1087.5694486019802 14933.40634247782
1088.4528655682225 15063.904980476296
1089.3360640664287 14948.900058254978
1090.2190441595321 15069.982032652513
1091.1018059104317 15249.167954524764
1091.98434938201 15250.653781983729
1092.866674637111 15308.462181462692
1093.748781738559 15328.694095158042
1094.6306707491512 15264.274056673152
1095.5123417316554 15305.337430501124
1096.3937947488157 15100.584279414426
1097.2750298633455 15333.198384426887
1098.156047137938 15137.821014104862
1099.0368466352556 15040.931279415332
1099.9174284179317 14931.66209002264
1100.7977925485757 14974.395666461127
1101.6779390897755 14659.593179925665
1102.5578681040806 14745.462497741857
1103.4375796540226 14688.04206516858
1104.3170738021054 14493.123359307632
1105.1963506108077 14365.381631711945
1106.0754101425773 14279.514595627023
1106.9542524598382 14230.916873582983
1107.8328776249855 14175.699534145257
1108.7112857003904 13945.935694822629
1109.5894767483987 14040.762271866432
1110.4674508313292 13913.70356838794
1111.3452080114657 13798.635862376741
1112.2227483510815 13758.946622066176
1113.1000719124077 14001.397055213205
1113.9771787576592 13790.750815572019
1114.854068949022 13957.467478462067
1115.7307425486542 13813.297465017598
1116.6071996186893 13803.870382655423
1117.483440221229 14020.051175071925
1118.3594644183577 14003.624886607704
1119.235272272128 13972.107176798241
1120.1108638445658 14037.055697664759
1120.9862391976712 14061.861441179974
1121.8613983934229 14167.18360937731
1122.7363414937627 14031.877022059361
1123.6110685606182 14248.91006457759
1124.485579655884 14175.845381620302
1125.359874841426 14276.058510924693
1126.2339541790916 14205.674568303224
1127.1078177306936 14292.351394195488
1127.9814655580267 14117.337833877493
1128.854897722851 14293.666022889685
1129.7281142869106 14143.340425895589
1130.6011153119125 14302.738741698053
1131.473900859548 14219.277569981661
1132.3464709914697 14138.585667836465
1133.2188257693178 14147.752308998324
1134.0909652546961 14059.915719815932
1134.96288950919 13921.934585841289
1135.8345985943506 14041.643598906277
1136.7060925717087 13978.676627758065
1137.57737150277 13879.166496594718
1138.4484354490069 13682.16008822071
1139.3192844718778 13656.59951615238
1140.1899186327992 13600.791689033227
1141.060337993178 13726.710207414057
1141.930542614382 13582.716279576814
1142.8005325577597 13483.505552246666
1143.670307884635 13236.01915625908
1144.5398686563003 13526.017763238657
1145.409214934025 13287.046276734758
1146.2783467790541 13347.156558869217
1147.1472642526023 13107.471684813218
1148.0159674158622 13240.901232583628
1148.8844563300026 13137.358605788337
1149.7527310561618 13062.418161702644
1150.6207916554504 13150.674974946562
1151.4886381889592 13082.359394493997
1152.3562707177498 13031.280616161386
1153.2236893028585 13179.479355152007
1154.090894005296 13029.28070252
1154.9578848860474 13203.604981082686
1155.8246620060709 13043.874469703673
1156.6912254262988 13015.157559352836
1157.5575752076438 12984.280351112606
1158.42371141098 13019.112748719586
1159.2896340971656 13071.793821452826
1160.1553433270346 12998.179335028668
1161.0208391613887 13018.469031443396
1161.8861216610057 12944.043014700741
1162.75119088664 13001.813394814733
1163.6160468990201 12931.869724378083
1164.4806897588442 12832.54702933187
1165.3451195267917 12852.988511531083
1166.2093362635114 12833.05703181458
1167.0733400296285 12986.846109847993
1167.9371308857444 12817.813651008384
1168.8007088924278 12955.719318328021
1169.6640741102328 12906.552531473844
1170.5272265996773 12831.665571827438
1171.390166421259 12860.371493604769
1172.252893635452 12968.179925700335
1173.1154083026995 12946.826959428703
1173.977710483421 12934.54726259582
1174.8398002380145 13015.086730824847
1175.7016776268483 12981.96061474973
1176.563342710264 12937.384545360848
1177.4247955485826 13001.536402075213
1178.2860362020947 12978.197802645813
1179.147064731069 13026.191221479454
1180.0078811957483 12958.039581294272
1180.8684856563486 13088.941397663562
1181.7288781730604 13084.071530563748
1182.589058806052 13166.087892027504
1183.4490276154593 13173.534881730058
1184.3087846614017 13181.967869723489
1185.1683300039676 13197.081626725343
1186.027663703222 13353.59910488927
1186.8867858192025 13232.984181864396
1187.7456964119228 13444.435807873839
1188.6043955413716 13338.402792680692
1189.4628832675116 13436.759845465285
1190.3211596502842 13331.435232883257
1191.179224749596 13467.39654800142
1192.0370786253388 13325.474209763637
1192.8947213373758 13518.967676077533
1193.7521529455407 13491.834268286713
1194.6093735096438 13454.13550384625
1195.466383089477 13465.024692572708
1196.3231817447977 13434.641682009145
1197.1797695353398 13415.755697048298
1198.0361465208189 13493.863479024349
1198.8923127609214 13372.676796576377
1199.7482683153048 13385.996578830778
1200.6040132436028 13495.378076585484
1201.459547605431 13435.911154137499
1202.3148714603722 13335.324486007437
1203.1699848679855 13424.733058650105
1204.0248878878065 13340.230995835107
1204.8795805793507 13273.654699931834
1205.7340630020935 13342.689969557341
1206.5883352155033 13343.41068111782
1207.4423972790064 13194.673642493304
1208.2962492520237 13213.251022358905
1209.1498911939307 13188.843319932723
1210.0033231640937 13230.031736558847
1210.8565452218427 13097.548298315425
1211.7095574264913 12999.634496389852
1212.5623598373222 12976.77459998212
1213.4149525135963 13104.505541125882
1214.2673355145507 12976.46711853665
1215.1195088993936 12865.778578817697
1215.9714727273113 12846.09646011664
1216.8232270574663 12992.262691712753
1217.6747719489904 12808.97699428737
1218.5261074609934 12916.209652060852
1219.3772336525653 12776.688569123075
1220.2281505827668 12895.78982991223
1221.0788583106296 12788.004482914515
1221.9293568951707 12833.624819110022
1222.7796463953746 12657.6792848778
1223.629726870202 12729.156493420058
1224.4795983785934 12618.104337224326
1225.3292609794553 12693.846582530326
1226.1787147316809 12581.495916815156
1227.0279596941327 12623.335345518144
1227.8769959256424 12573.306336601434
1228.7258234850306 12569.451047864393
1229.5744424310833 12435.846592230357
1230.422852822563 12598.675389974189
1231.2710547182105 12506.03369654374
1232.119048176739 12619.679473814587
1232.9668332568417 12432.067623165316
1233.8144100171812 12371.561073764406
1234.6617785163999 12500.708195182704
1235.508938813111 12463.782676047005
1236.3558909659114 12303.715310262036
1237.2026350333617 12519.294314500812
1238.049171074008 12444.92603106718
1238.8954991463652 12402.215525654523
1239.741619308932 12237.444928212359
1240.587531620169 11114.497249686683
1241.4332361385277 12331.626834332568
1242.2787329224248 12349.67666483545
1243.1240220302534 12304.724144792495
1243.9691035203869 12266.652452489796
1244.813977451171 12406.106782294946
1245.6586438809263 12443.426562510293
1246.5031028679496 12271.333801372097
1247.3473544705157 12457.138492017502
1248.1913987468706 12367.623501786584
1249.0352357552383 12351.752678132432
1249.8788655538228 12411.827175610955
1250.7222882007918 12567.599501053232
1251.565503754302 12576.22023163839
1252.4085122724755 12589.64824263738
1253.2513138134182 12545.1551197408
1254.0939084352049 12721.718454722455
1254.9362961958905 12582.838276546006
1255.7784771535007 12696.897589189623
1256.6204513660432 12693.168552265957
1257.4622188915 12762.881498391607
1258.3037797878242 12773.896816359706
1259.1451341129468 12892.098697138941
1259.9862819247755 12797.437329270344
1260.8272232811978 12802.656192117214
1261.6679582400666 12856.342219708145
1262.5084868592203 12906.319326275136
1263.34880919647 13001.810049833904
1264.1889253095997 13031.460076083882
1265.0288352563712 12927.361342391077
1265.8685390945266 12911.228254358584
1266.7080368817751 12840.433653733573
1267.5473286758115 12978.737034638227
1268.386414534294 13061.274097583844
1269.2252945148703 13062.265924025667
1270.0639686751547 12989.358122476468
1270.9024370727402 12999.011796706747
1271.7406997651997 13073.387223595473
1272.5787568100714 13016.313331772237
1273.4166082648808 12972.639057566606
1274.2542541871244 13080.709510545423
1275.091694634275 13013.62781158186
1275.9289296637817 12907.996108507723
1276.7659593330663 12928.708097590392
1277.6027836995308 12992.626241631096
1278.4394028205552 12847.406595023442
1279.2758167534867 12961.515364346813
1280.112025555658 12931.525371463795
1280.9480292843746 12948.849233377
1281.7838279969128 12914.109122861924
1282.6194217505326 12853.026906351932
1283.4548106024686 12680.393973356724
1284.289994609926 13012.616829182221
1285.1249738300921 12829.307393812942
1285.959748320127 13098.229142884235
1286.7943181371702 12980.04438974294
1287.6286833383328 13119.494636635116
1288.4628439807038 12972.979321259623
1289.2968001213521 12998.61037949032
1290.1305518173194 12981.496047371069
1290.9640991256183 13300.412092843006
1291.7974421032523 13227.631916783113
1292.630580807183 13291.731170599767
1293.463515294361 13342.493180880401
1294.29624562171 13467.15654846066
1295.12877184613 13485.005478886678
1295.961094024493 13368.582806925531
1296.79321221365 13435.224082217395
1297.6251264704333 13775.475802898382
1298.4568368516466 13633.695648264547
1299.2883434140658 13810.297311857332
1300.1196462144526 13863.28632110284
1300.9507453095375 13951.727479342891
1301.7816407560313 13938.582765686675
1302.6123326106172 14179.127859646065
1303.4428209299622 14082.163207394613
1304.2731057707024 14242.108270782986
1305.1031871894502 14227.20343751354
1305.933065242798 14210.120078987256
1306.7627399873181 14205.767044629069
1307.5922114795467 14549.250840708828
1308.4214797760123 14243.29402204938
1309.2505449332057 14473.504616203314
1310.0794070076026 14336.694763745738
1310.9080660556538 14586.677572459292
1311.736522133786 14260.5766596461
1312.5647752983987 14514.115892813395
1313.3928256058734 14525.80761370491
1314.2206731125661 14601.771285043447
1315.048317874809 14592.6240452198
1315.8757599489109 14713.566416963135
1316.7029993911547 14708.105937808421
1317.5300362578055 14910.230412323906
1318.356870605101 14748.088919187561
1319.183502489257 14899.391185506003
1320.0099319664623 15015.799815403425
1320.836159092889 14819.88611759195
1321.66218392468 14874.43878677373
1322.4880065179532 14980.799582403595
1323.3136269288134 14938.491016067192
1324.1390452133292 14978.265327507916
1324.9642614275563 14969.985875888382
1325.7892756275214 14902.112999795387
1326.6140878692295 14755.943940175866
1327.4386982086617 14950.83720275309
1328.2631067017755 14682.475194716852
1329.0873134045069 14690.400033133477
1329.911318372764 14460.288470572206
1330.735121662441 14397.947335677609
1331.558723329399 14348.684451777135
1332.3821234294774 14344.914423240847
1333.2053220185007 14107.036146857183
1334.0283191522612 14078.003886749746
1334.851114886529 13787.21206514017
1335.6737092770582 13727.362160183135
1336.4961023795695 13525.366981895262
1337.3182942497697 13569.318991772514
1338.1402849433325 13502.5498353701
1338.962074515921 13398.491585141499
1339.7836630231632 13117.300932101896
1340.6050505206676 13286.181082670295
1341.426237064028 13127.680951412574
1342.2472227088037 13074.876739930321
1343.0680075105338 12800.737854696667
1343.888591524741 12903.816607265118
1344.7089748069138 12759.527265483315
1345.5291574125276 12782.357004798763
1346.3491393970307 12533.979864802954
1347.168920815846 12705.014145241355
1347.9885017243778 12373.46560067955
1348.8078821780036 12411.334890989208
1349.6270622320844 12230.099682715509
1350.4460419419447 12232.187195018803
1351.2648213629054 12031.535944626099
1352.0834005502438 12187.104752231955
1352.90177955923 11985.699516085191
1353.7199584451064 12099.484015856528
1354.5379372630887 12073.19054627059
1355.355716068374 12089.046228939067
1356.1732949161305 11852.083037615263
1356.9906738615155 11917.295834303943
1357.8078529596478 11843.0795733716
1358.6248322656375 11944.363322550233
1359.441611834567 11817.195023545177
1360.2581917214866 11902.931881712382
1361.0745719814367 11579.016601679137
1361.890752669433 11791.18036699411
1362.7067338404577 11825.361401151244
1363.5225155494845 11661.942758154322
1364.3380978514506 11722.884506584607
1365.1534808012839 11636.59411727585
1365.9686644538815 11624.968627116401
1366.783648864117 11744.368436440822
1367.5984340868417 11613.451745573424
1368.413020176893 11618.290531901785
1369.2274071890715 11556.879310064694
1370.0415951781652 11382.823903804454
1370.8555841989346 11537.072290442327
1371.6693743061223 11522.961506959846
1372.48296555444 11404.653455242691
1373.2963579985844 11482.995246549592
1374.1095516932255 11397.74366747497
1374.9225466930166 11505.364009771747
1375.7353430525782 11358.231257708529
1376.5479408265164 11468.834921110589
1377.36034006941 11337.225081944332
1378.1725408358216 11481.27512855909
1378.9845431802805 11261.428480375285
1379.796347157304 11395.486691844131
1380.6079528213813 11351.970730803034
1381.4193602269788 11341.587150470175
1382.230569428546 11415.836586152587
1383.0415804805016 11227.402203344891
1383.852393437246 11271.568629475903
1384.6630083531563 11510.694216181737
1385.4734252825892 11391.690820082904
1386.2836442798798 11601.390539676484
1387.0936653993322 11328.168499647185
1387.9034886952395 11537.11124550494
1388.713114221864 11392.830842219966
1389.5225420334482 11528.298573748774
1390.331772184214 11415.245121493008
1391.1408047283585 11440.477946509478
1391.9496397200564 11440.720405953109
1392.758277213461 11571.931235366888
1393.5667172627054 11479.019647033876
1394.3749599218918 11360.970105444236
1395.1830052451114 11292.321338401749
1395.9908532864265 11432.081044446444
1396.7985040998774 11300.41535113701
1397.6059577394808 11482.879312146746
1398.4132142592352 11312.256262062367
1399.2202737131156 11372.869165690918
1400.027136155073 11290.001902024886
1400.8338016390353 11304.78102442211
1401.6402702189134 11184.533314163258
1402.446541948586 11191.158913917516
1403.2526168819204 11221.810458399714
1404.058495072757 11134.617724371436
1404.8641765749107 11144.289192506072
1405.6696614421799 11213.724900406713
1406.4749497283356 11189.02509136562
1407.280041487129 11122.613783554203
1408.084936772295 11036.058801686364
1408.8896356375335 11166.009818046183
1409.6941381365323 11171.836803059736
1410.498444322955 11039.706174058712
1411.3025542504402 11114.663414687528
1412.106467972606 11093.473623359001
1412.9101855430508 10951.718179864083
1413.7137070153458 11084.705785199374
1414.5170324430437 10925.820709906742
1415.320161879672 11215.876994590662
1416.1230953787435 11136.80925374819
1416.925832993742 11047.793163807557
1417.7283747781275 10940.46199217194
1418.5307207853439 11116.73793195188
1419.3328710688093 11064.155797363634
1420.134825681922 11110.772074688968
1420.9365846780584 11241.592684981904
1421.7381481105713 11285.058815325596
1422.539516032788 11253.23818069842
1423.3406884980232 11413.130722454247
1424.1416655595604 11451.328476605478
1424.942447270665 11391.699756435644
1425.7430336845828 11613.522403024392
1426.5434248545298 11655.8191809142
1427.3436208337116 11637.024059654144
1428.143621675301 11797.589241337679
1428.9434274324558 11895.638178499614
1429.7430381583108 11862.115569957761
1430.5424539059713 11969.496694088517
1431.3416747285337 12074.447928615118
1432.1407006790632 12025.590417929769
1432.9395318106053 12103.32848399473
1433.7381681761835 12175.475593445433
1434.5366098288014 12259.30750457315
1435.3348568214424 12125.428855892253
1436.1329092070573 12364.642904133818
1436.9307670385879 12410.49581576937
1437.7284303689503 12404.225758573553
1438.5258992510335 12255.17578612741
1439.3231737377118 12446.80811865735
1440.1202538818306 12392.115484330981
1440.9171397362225 12365.704072000914
1441.7138313536925 12144.880667284095
1442.5103287870243 12248.2123582519
1443.3066320889775 11940.842366635101
1444.1027413122956 12147.993187250975
1444.8986565096966 11983.402919666714
1445.694377733882 11939.334580081066
1446.4899050375207 11729.487862138183
1447.2852384732687 11835.307430461948
1448.0803780937622 11557.659639122925
1448.8753239516063 11646.261258657121
1449.6700760993954 11530.325434046803
1450.464634589689 11718.956318531174
1451.2589994750397 11486.460235695205
1452.0531708079689 11476.537833698234
1452.8471486409799 11327.97076889401
1453.6409330265524 11226.395898436927
1454.4345240171442 11221.626739220894
1455.2279216651987 11169.970182087623
1456.0211260231263 11133.921830755793
1456.8141371433194 11349.251920676126
1457.6069550781594 11060.906991306834
1458.3995798799897 11080.206634699567
1459.1920116011424 10858.789697416276
1459.98425029393 11025.559680646633
1460.7762960106338 10787.351638540677
1461.5681488035225 10843.494704407967
1462.3598087248392 10618.916613353857
1463.1512758268036 10565.060199119227
1463.942550161617 10495.2400299104
1464.7336317814625 10644.553109256463
1465.524520738496 10419.394066780827
1466.3152170848552 10402.435578521692
1467.1057208726506 10224.702181029013
1467.8960321539817 10272.867896963464
1468.6861509809169 10094.870832253624
1469.4760774055085 10095.331393792112
1470.265811479785 9975.748886329895
1471.055353255755 9962.239884199433
1471.844702785409 9752.62907020162
1472.6338601207044 9901.20635949707
1473.4228253135934 9691.081217477622
1474.2115984159936 9754.89683447545
1475.0001794798063 9670.23505663499
1475.7885685569145 9656.667673443579
1476.576765699172 9594.726678719042
1477.3647709584238 9528.17311905977
1478.1525843864802 9529.729058823756
1478.9402060351367 9529.138458010973
1479.7276359561693 9460.74987625304
1480.514874201328 9536.953567761831
1481.3019208223468 9391.307624656296
1482.0887758709323 9374.66414384813
1482.8754393987747 9425.277711304707
1483.6619114575406 9329.377665059259
1484.4481920988783 9083.289879682989
1485.2342813744108 9225.008689140614
1486.0201793357446 9249.874250070156
1486.8058860344572 9240.080515565929
1487.591401522117 9130.881752155123
1488.3767258502594 9214.624235226778
1489.1618590704056 9382.915864378016
1489.9468012340494 9221.657236310224
1490.7315523926754 9214.729671882347
1491.5161125977356 9332.642007100872
1492.3004819006637 9105.137771152384
1493.084660352877 9245.379357758497
1493.8686480057622 9109.600101917655
1494.6524449106964 9126.261167575502
1495.4360511190262 9320.742705730343
1496.219466682087 9261.03164107526
1497.0026916511779 9232.301872233222
1497.7857260775945 9358.395376195946
1498.5685700125996 9137.017042622558
1499.3512235074395 9157.2571507883
1500.133686613337 9058.993429233655
1500.9159593814966 9327.57193825193
1501.698041863101 9301.700770977399
1502.4799341093094 9364.447055010925
1503.2616361712662 9120.27405095207
1504.043148100087 9104.109246640182
1504.8244699468742 9159.437053463904
1505.6056017626997 9175.105266730638
1506.3865435986281 9208.192753143563
1507.1672955056893 9129.534669266326
1507.9478575348967 9201.913507192538
1508.7282297372512 9278.063309834717
1509.5084121637192 9116.232501962088
1510.2884048652577 9269.764124353964
1511.0682078927948 9178.351040990494
1511.8478212972423 9171.351496330815
1512.6272451294917 9230.669420099433
1513.4064794404076 9241.691412879993
1514.1855242808433 9039.23740017518
1514.9643797016215 9285.421824652387
1515.743045753552 9213.576969035415
1516.5215224874191 9272.074515301612
1517.2998099539836 9366.359712364909
1518.077908203999 9300.010726063667
1518.8558172881785 9294.020872894122
1519.633537257234 9311.245155679691
1520.4110681618404 9295.460026304903
1521.1884100526604 9390.584358823751
1521.9655629803365 9306.945724777452
1522.7425269954856 9415.258209416023
1523.5193021487103 9510.769180200095
1524.2958884905856 9511.903936421437
1525.0722860716687 9582.734288453572
1525.848494942502 9441.216170094416
1526.624515153595 9530.185662830061
1527.4003467554485 9591.53524171636
1528.175989798534 9323.959902933631
1528.9514443333064 9599.22103843323
1529.726710410203 9590.287703671356
1530.5017880796331 9509.177847166706
1531.276677391992 9379.069763158808
1532.0513783976457 9362.124952921773
1532.825891146953 9396.148570238638
1533.6002156902414 9471.398775723941
1534.3743520778207 9339.623067422837
1535.1483003599806 9250.402430724633
1535.9220605869923 9301.141141527409
1536.6956328091019 9397.543867452692
1537.4690170765407 9194.778980175113
1538.242213439511 9229.108329968094
1539.015221948208 9222.335860384923
1539.78804265279 9429.41888503724
1540.560675603405 9216.048653519372
1541.3331208501804 9133.877271704283
1542.1053784432224 9221.643604736806
1542.8774484326168 9273.531289272052
1543.649330868422 9077.64656794022
1544.4210258006842 9134.636022509607
1545.1925332794308 9045.872480826325
1545.9638533546604 9087.422413567952
1546.7349860763552 9084.064174081526
1547.5059314944829 9178.997897330884
1548.27668965898 9010.967368830188
1549.0472606197673 9049.11740651316
1549.817644426752 8995.153379099535
1550.5878411298072 9084.808509112172
1551.3578507787988 9006.561604222268
1552.1276734235635 8996.030399175917
1552.8973091139233 9040.875061677043
1553.6667578996767 9185.426663080709
1554.436019830604 9104.947874423493
1555.20509495646 9064.542451870439
1555.9739833269869 9050.20875954183
1556.7426849919011 9173.826916538448
1557.511200000903 9063.965202596353
1558.2795284036674 9059.156118692474
1559.0476702498509 9124.968834228435
1559.8156255890954 9216.836519596562
1560.5833944710157 9158.715521171269
1561.3509769452048 9280.867769240327
1562.1183730612447 9163.105934289677
1562.8855828686865 9194.834850335801
1563.6526064170703 9091.692117295088
1564.4194437559127 9223.49756745368
1565.1860949347047 9290.778240809992
1565.9525600029283 9349.276595504867
1566.7188390100328 9254.184938998162
1567.4849320054564 9258.96671521135
1568.250839038612 9175.398676823559
1569.0165601588997 9230.89996466971
1569.7820954156887 9253.169427539638
1570.5474448583373 9263.397344100376
1571.31260853618 9351.087883825257
1572.0775864985299 9290.217408124385
1572.8423787946813 9240.336118515517
1573.6069854739108 9549.015509836707
1574.371406585471 9305.071997897023
1575.1356421785986 9429.469472732224
1575.899692302506 9373.60539821668
1576.6635570063845 9441.531339570276
1577.4272363394157 9348.547122189993
1578.190730350747 9281.173992456226
1578.9540390895163 9226.738895047469
1579.7171626048384 9342.20454790107
1580.480100945806 9303.557962303592
1581.2428541614918 9243.551814341805
1582.0054223009538 9215.434846701104
1582.767805413223 9255.285014057072
1583.5300035473156 9360.159491278302
1584.292016752228 9301.573581137
1585.0538450769309 9077.544881332138
1585.8154885703807 9090.054594284282
1586.5769472815136 9071.793576568325
1587.3382212592405 9167.063690094772
1588.099310552463 9048.849366662816
1588.8602152100484 8996.269641347866
1589.6209352808564 8914.789399515548
1590.3814708137234 8826.052534874196
1591.14182185746 8882.495216686555
1591.9019884608679 8874.470017744414
1592.6619706727215 8728.74769374341
1593.4217685417734 8858.147288209653
1594.1813821167616 8768.739430108126
1594.9408114464022 8671.874501909639
1595.7000565793933 8778.814955650621
1596.459117564409 8784.197382951532
1597.2179944501113 8746.720120139224
1597.9766872851324 8564.65070358082
1598.735196118092 8507.769883690626
1599.4935209975883 8793.65173807599
1600.2516619721973 8489.276697694584
1601.0096190904787 8477.979019986817
1601.7673924009723 8436.308514320335
1602.524981952196 8431.733541039494
1603.2823877926476 8230.676837737368
1604.0396099708087 8366.318561848926
1604.7966485351371 8263.237327977224
1605.5535035340745 8395.555137741503
1606.3101750160404 8374.302885815498
1607.0666630294363 8408.866831912592
1607.822967622642 8246.252709422251
1608.5790888440224 8241.551152043909
1609.3350267419137 8433.022677086603
1610.0907813646445 8250.990882483587
1610.8463527605145 8130.520107029256
1611.601740977805 8238.480870875259
1612.356946064785 8169.490859441512
1613.1119680696902 8210.264885357756
1613.8668070407512 8070.246796819342
1614.6214630261748 8261.35175016728
1615.375936074137 8152.263101881232
1616.1302262328118 8032.933962352775
1616.8843335503425 8182.315893137375
1617.638258074854 8041.5990915642415
1618.391999854457 8066.406492966906
1619.1455589372363 8072.513714791201
1619.8989353712623 8231.481829388555
1620.65212920458 8005.711363648424
1621.4051404852235 8007.993048150573
1622.1579692611976 7950.897456182231
1622.9106155804966 7942.606014683226
1623.663079491087 8018.034602828573
1624.4153610409248 7990.888208862571
1625.1674602779385 8004.034033803143
1625.9193772500403 7943.838386223133
1626.6711120051277 7882.7876194739165
1627.4226645910676 7916.788081369128
1628.174035055721 7888.883304482147
1628.9252234469168 7867.626459759669
1629.676229812474 7882.5501777527925
1630.4270542001905 7729.831647306109
1631.1776966578382 7952.041016114726
1631.9281572331747 7913.425403370318
1632.678435973945 7989.505789802084
1633.4285329278573 7915.701878349035
1634.1784481426203 7901.913965928603
1634.9281816659113 7930.344989711472
1635.677733545388 7788.278442100223
1636.4271038286934 7908.718629491183
1637.176292563452 7880.626997402171
1637.9252997972635 7917.795782098909
1638.674125577716 7898.050509169952
1639.4227699523672 7952.775108327847
1640.171232968767 7835.985130032551
1640.9195146744423 7911.914548126324
1641.6676151168977 8089.52281627427
1642.4155343436178 8011.987198853991
1643.1632724020765 7928.783617674097
1643.9108293397167 8007.768198292892
1644.658205203974 8036.347305904916
1645.4054000422566 8117.185203377693
1646.1524139019566 7798.089700053145
1646.8992468304423 7892.949309166826
1647.6458988750728 7982.919456775104
1648.3923700831765 7975.073886065467
1649.1386605020743 7968.367214394604
1649.8847701790564 7828.192886373383
1650.6306991614038 8046.852778117883
1651.3764474963682 7905.9431620616715
1652.1220152311944 7836.1118912792135
1652.867402413096 7985.0468189418
1653.6126090892776 7779.2970964383985
1654.3576353069184 7940.116281257246
1655.1024811131829 7864.361552268347
1655.8471465552066 7842.327123633676
1656.5916316801213 8092.342771338995
1657.3359365350298 8014.206860286537
1658.0800611670165 7837.319422932407
1658.824005623148 7659.149120542532
1659.5677699504722 7862.463369903031
1660.3113541960192 7776.335092990504
1661.054758406799 7833.20901623036
1661.7979826297997 7757.905208684993
1662.5410269119966 7723.648235175417
1663.283891300338 7576.152740306473
1664.0265758417645 7766.566524085266
1664.7690805831826 7620.727921446305
1665.5114055714948 7641.694502222187
1666.2535508535748 7676.322013153374
1666.9955164762814 7582.202359675274
1667.7373024864555 7545.439445827401
1668.478908930916 7532.839118262988
1669.220335856462 7461.441433011356
1669.9615833098778 7584.289561664898
1670.7026513379296 7508.723168837862
1671.44353998736 7455.175075547551
1672.1842493048916 7470.922558779664
1672.9247793372379 7437.321179334309
1673.6651301310812 7368.685162563763
1674.4053017330934 7527.585329933121
1675.1452941899242 7345.054058795307
1675.885107548207 7211.0407225898425
1676.6247418545518 7315.884055874235
1677.3641971555535 7286.669078132514
1678.1034734977893 7211.008180621367
1678.8425709278108 7256.733647033396
1679.5814894921605 7248.103329619122
1680.320229237359 7221.731980543331
1681.0587902098978 7220.855302981969
1681.7971724562685 7280.2290417013455
1682.5353760229264 6995.825707381538
1683.2734009563173 7166.679425093425
1684.0112473028657 6936.65241528502
1684.7489151089794 7103.500148516486
1685.4864044210462 7093.059232347447
1686.2237152854377 6981.733718448168
1686.960847748498 6966.102039754197
1687.6978018565642 6972.541509171169
1688.434577655944 6964.112561700637
1689.1711751929379 6757.9136458149715
1689.9075945138156 6833.124000986574
1690.6438356648396 6842.318647073111
1691.3798986922448 6731.351366354909
1692.1157836422499 6899.400873364719
1692.851490561059 6739.44535972357
1693.587019494853 6755.130628482652
1694.3223704897991 6693.012107733865
1695.0575435920364 6652.99935726806
1695.792538847696 6657.1458208806125
1696.527356302886 6704.941631810619
1697.2619960036936 6377.734817815925
1697.9964579961907 6483.2208120850555
1698.730742326432 6450.672568184403
1699.4648490404488 6420.425206999809
1700.1987781842563 6468.651285267389
1700.9325298038548 6385.88944256148
1701.6661039452174 6442.484382880867
1702.3995006543082 6503.761037488782
1703.1327199770658 6367.128986574897
1703.865761959416 6292.339809771407
1704.598626647261 6342.035053180992
1705.3313140864866 6348.732306697551
1706.0638243229587 6121.43571041744
1706.7961574025303 6251.4135838075035
1707.528313371029 6231.764743850951
1708.260292274268 6230.299287299471
1708.9920941580403 6229.912335276479
1709.7237190681226 6145.496979968766
1710.4551670502697 6243.335224567623
1711.18643815022 6169.194608396396
1711.9175324136959 6243.774979876862
1712.6484498863938 6083.583101185436
1713.379190614005 6077.813188936908
1714.109754642188 6248.3925222666285
1714.8401420165883 6080.22088407172
1715.570352782839 6359.045487758683
1716.3003869865497 5959.165983706544
1717.0302446733076 6045.07456521563
1717.7599258886876 5927.5262160005395
1718.4894306782444 6074.5479351029335
1719.2187590875183 5821.387112731106
1719.9479111620203 6217.281698973228
1720.6768869472544 5885.152355083754
1721.4056864887025 6050.433359341553
1722.1343098318284 6000.2121723741075
1722.8627570220742 5990.433036448469
1723.591028104871 5856.705284013118
1724.3191231256242 5805.966344268321
1725.0470421297232 5822.485690874779
1725.7747851625427 5859.678795903418
1726.5023522694337 5824.917011886051
1727.2297434957363 5806.270574486096
1727.9569588867635 5580.807072882723
1728.6839984878152 5750.991510090247
1729.4108623441734 5774.486313544707
1730.1375505011038 5826.501597214417
1730.8640630038426 5756.200343096277
1731.5903998976264 5707.780390751556
1732.316561227657 5619.878908983557
1733.0425470391274 5635.403819427817
1733.7683573772065 5603.456816709056
1734.4939922870508 5791.796287033327
1735.2194518137949 5805.470341696534
1735.9447360025606 5526.449014114361
1736.669844898439 5631.362418844952
1737.3947785465189 5623.12414630483
1738.1195369918605 5516.61912186271
1738.8441202795093 5535.5927380672665
1739.5685284544943 5570.989384917526
1740.292761561821 5558.6332082907875
1741.0168196464838 5613.3899687304565
1741.7407027534518 5583.801458924485
1742.464410927687 5408.5187625471635
1743.187944214118 5642.8949656402865
1743.9113026576688 5619.900836057552
1744.634486303241 5708.653663635892
1745.3574951957125 5615.69093710953
1746.0803293799509 5669.181025225424
1746.8029889008048 5696.879584583141
1747.5254738031017 5538.221657383672
1748.2477841316504 5420.254454564371
1748.969919931249 5466.660675668425
1749.6918812466665 5531.700244203044
1750.4136681226646 5462.943521394289
1751.1352806039777 5525.105132324147
1751.856718735331 5385.05492059407
1752.5779825614281 5394.813008812868
1753.2990721269507 5531.531401159193
1754.0199874765676 5349.436047404731
1754.7407286549314 5290.7552559782935
1755.4612957066693 5495.368728428051
1756.1816886763954 5432.818012585572
1756.9019076087097 5362.497205738147
1757.6219525481865 5458.828881813567
1758.3418235393856 5436.458563270548
1759.061520626854 5328.988051474707
1759.7810438551096 5362.869003059215
1760.5003932686614 5262.593413502253
1761.2195689119999 5275.9576665857985
1761.938570829594 5437.817300845653
1762.657399065898 5432.165797507258
1763.376053665348 5322.403307854563
1764.0945346723602 5264.01646760031
1764.812842131334 5397.11001013071
1765.5309760866512 5231.59188780041
1766.2489365826787 5227.646898183128
1766.9667236637597 5195.549688099543
1767.684337374223 5284.428000877275
1768.401777758383 5194.270781557689
1769.1190448605284 5282.949438598899
1769.836138724937 5235.737005480127
1770.5530593958665 5305.9083553973705
1771.2698069175603 5224.597407422525
1771.9863813342326 5309.1286075190155
1772.702782690094 5322.77104771354
1773.4190110293293 5296.267302319465
1774.1350663961111 5228.595360482501
1774.8509488345844 5184.277616001879
1775.5666583888924 5213.753134951944
1776.2821951031437 5243.802035191188
1776.9975590214362 5304.161389937376
1777.7127501878585 5291.053971193536
1778.4277686464684 5269.309939902454
1779.1426144413108 5218.993214000269
1779.8572876164162 5181.756510418239
1780.571788215797 5084.568028639739
1781.2861162834415 5212.439594346087
1782.0002718633277 5316.567424921962
1782.7142549994132 5237.2972048326055
1783.4280657356376 5277.769805583109
1784.141704115922 5121.971041591189
1784.855170184177 5184.329294334892
1785.5684639842839 5000.826371913862
1786.2815855601148 4970.466378982034
1786.9945349555237 5147.968750979607
1787.707312214343 5122.677753657712
1788.4199173803918 5173.8682670535045
1789.132350497468 4980.640757564293
1789.8446116093583 5109.825477368632
1790.556700759822 5079.52711799949
1791.2686179926077 5217.803647601494
1791.9803633514493 5080.32860264402
1792.6919368800554 5112.112937529078
1793.4033386221236 5182.234248024135
1794.1145686213295 5242.572235387421
1794.8256269213307 5039.495361792657
1795.536513565774 5169.2749461983385
1796.247228598284 4960.697661029692
1796.9577720624693 5100.450614221647
1797.6681440019165 5183.732003952102
1798.3783444602013 4961.915748369078
1799.0883734808776 5049.797046818214
1799.7982311074884 5066.702195373503
1800.5079173835475 5192.176918906196
1801.2174323525633 5080.681009848072
1801.9267760580187 4995.981098870752
1802.635948543386 5031.579647875161
1803.3449498521113 4938.879035704835
1804.0537800276325 5084.262172677448
1804.7624391133668 5028.612781477572
1805.47092715271 4873.530275689192
1806.1792441890484 5018.468980227101
1806.8873902657433 4905.7342364077285
1807.5953654261448 5140.806162361968
1808.3031697135812 4955.0898390970115
1809.0108031713662 4930.375348737585
1809.71826584279 4893.8691243458115
1810.425557771141 5021.963615054123
1811.1326789996747 4994.180640746447
1811.839629571632 4830.240224014786
1812.5464095302468 4990.2412827586595
1813.2530189187182 4994.1740158316725
1813.959457780249 4976.268524287062
1814.6657261580076 4981.664706780341
1815.371824095153 5018.835204818596
1816.0777516348262 4912.412095085003
1816.78350882015 4886.294224417508
1817.4890956942272 5011.73162760128
1818.1945123001533 4858.764105278655
1818.8997586809928 5101.806391508701
1819.6048348798067 4814.770168235566
1820.3097409396287 4962.412798185978
1821.0144769034796 4931.379968377003
1821.7190428143622 4711.256523717194
1822.423438715261 4864.230685300056
1823.1276646491478 4847.411629468354
1823.8317206589727 4925.262615335858
1824.5356067876692 4913.067501062944
1825.2393230781581 4882.256984685035
1825.942869573335 4819.422246563455
1826.646246316086 4840.636724186554
1827.3494533492758 4782.009043065763
1828.052490715756 4878.207787327018
1828.7553584583547 4899.69133120086
1829.458056619891 4963.409123917578
1830.1605852431585 4876.6522554674275
1830.8629443709433 4870.053995442901
1831.5651340460063 4848.522822227339
1832.2671543110919 4855.059579900655
1832.9690052089318 5028.051562962265
1833.6706867822395 4788.936928578978
1834.3721990737104 4837.1053702531235
1835.0735421260233 4652.690593522924
1835.774715981841 4792.798891702444
1836.4757206838058 4752.992696663077
1837.1765562745459 4718.590740599096
1837.8772227966747 4670.169707791463
1838.5777202927839 4915.052772801048
1839.2780488054523 4754.112242151331
1839.9782083772352 4878.951565644666
1840.6781990506806 4872.413342730102
1841.378020868313 4746.5899175473805
1842.0776738726418 4881.060607500776
1842.777158106157 4833.841279286133
1843.4764736113375 4661.574587502571
1844.1756204306403 4629.545431556312
1844.8745986065078 4590.14678914094
1845.5734081813607 4829.382025784229
1846.2720491976124 4672.921912478783
1846.970521697649 4586.273917277517
1847.6688257238511 4856.8501171877415
1848.3669613185684 4922.656094627485
1849.0649285241452 4614.560251142861
1849.7627273829057 4740.16093421544
1850.460357937156 4835.9803201574605
1851.1578202291857 4690.4389962697005
1851.8551143012664 4764.6562704381695
1852.5522401956569 4657.3187665845235
1853.2491979545957 4725.752592000117
1853.9459876203055 4758.082884858612
1854.6426092349902 4636.995905253077
1855.3390628408451 4706.94513704363
1856.0353484800362 4708.418006210541
1856.7314661947203 4724.877649462089
1857.4274160270397 4666.33727026262
1858.123198019115 4492.762652652237
1858.8188122130487 4667.678277979569
1859.5142586509319 4670.481453370305
1860.209537374838 4715.726642678537
1860.9046484268183 4708.073313576403
1861.599591848917 4596.176157421945
1862.294367683151 4534.444043542867
1862.988975971528 4661.194179896819
1863.6834167560355 4632.340239813458
1864.3776900786452 4713.105864458998
1865.0717959813119 4700.759241983715
1865.7657345059724 4555.93072917005
1866.4595056945564 4773.968065031387
1867.1531095889586 4443.261382590043
1867.846546231076 4536.029550558388
1868.5398156627743 4662.327912824309
1869.2329179259123 4643.58320423692
1869.9258530623283 4632.687980530178
1870.618621113843 4617.292869044342
1871.3112221222636 4502.562041480736
1872.0036561293764 4602.68858963581
1872.695923176956 4593.872099819635
1873.3880233067594 4638.653114126066
1874.0799565605212 4627.182465390025
1874.7717229799673 4612.242199136187
1875.4633226068036 4549.7567790353105
1876.1547554827175 4664.6141765632365
1876.8460216493859 4558.0287200137955
1877.5371211484617 4617.4233617796135
1878.2280540215852 4738.794032612711
1878.9188203103804 4528.329132188754
1879.6094200564548 4576.1713464379745
1880.299853301396 4475.963134294906
1880.9901200867826 4762.391983308939
1881.6802204541673 4755.294508498267
1882.3701544450942 4509.082880393369
1883.059922101087 4522.095034451808
1883.7495234636517 4576.871773315101
1884.4389585742792 4398.35133894372
1885.1282274744517 4462.784754356783
1885.8173302056166 4698.472526749514
1886.506266809225 4632.015957200916
1887.195037326701 4395.884921196553
1887.8836417994517 4608.023176316276
1888.5720802688702 4553.232319683504
1889.260352776333 4501.1524886353245
1889.9484593632042 4636.252039257665
1890.63640007082 4371.971930492729
1891.3241749405151 4346.818794639367
1892.0117840135954 4567.6402582828105
1892.6992273313572 4433.098494534409
1893.3865049350788 4320.780160875186
1894.0736168660223 4440.353234521506
1894.7605631654333 4491.513890588667
1895.4473438745408 4474.046530536
1896.133959034556 4532.974530321784
1896.820408686679 4563.787490790821
1897.506692872088 4304.648135894601
1898.192811631945 4474.255525699362
1898.8787650073991 4491.33850478057
1899.5645530395832 4619.845349619585
1900.2501757696118 4410.247741519199
1900.9356332385796 4423.4909444985915
1901.620925487574 4552.233132063829
1902.3060525576602 4367.606374465793
1902.9910144898859 4457.231258202427
1903.6758113252872 4442.74338763395
1904.3604431048789 4535.809448520736
1905.0449098696663 4441.488206013525
1905.7292116606295 4461.922729846348
1906.4133485187394 4511.604834711688
1907.0973204849488 4344.654233650496
1907.7811276001976 4363.943018857658
1908.4647699053967 4453.662689436948
1909.1482474414588 4138.058782868942
1909.8315602492694 4137.394177509277
1910.5147083696957 4359.740499423623
1911.1976918436012 4324.777152321238
1911.880510711815 4370.51736868797
1912.5631650151681 4572.695596625722
1913.2456547944657 4455.264897846047
1913.927980090495 4353.281963276379
1914.6101409440362 4236.393091393726
1915.2921373958416 4412.135286495757
1915.9739694866603 4425.546242560787
1916.655637257214 4353.032691806237
1917.3371407482136 4347.0809521553465
1918.0184800003572 4449.461414651814
1918.6996550543154 4269.154111277764
1919.3806659507554 4383.386533264332
1920.0615127303208 4226.5083858125345
1920.7421954336423 4373.849984631632
1921.4227141013343 4253.5705715019985
1922.103068773993 4266.04155395071
1922.783259492202 4278.5799672855555
1923.4632862965227 4241.95296411328
1924.1431492275078 4311.6616176394255
1924.8228483256917 4300.60343974557
1925.5023836315922 4172.226048215994
1926.1817551857057 4147.428998627807
1926.8609630285227 4399.261220222177
1927.5400072005123 4417.031246289023
1928.218887742125 4131.877546108133
1928.8976046938005 4260.458304968165
1929.5761580959588 4401.773745695403
1930.2545479890086 4228.29042726673
1930.9327744133352 4172.0955440063035
1931.6108374093164 4359.561708572769
1932.2887370173066 4379.799629849591
1932.9664732776473 4123.65661423494
1933.6440462306673 4302.974160796743
1934.3214559166754 4215.979657660113
1934.9987023759659 4313.168650081585
1935.675785648813 4085.6038849879287
1936.3527057754836 4241.55931808173
1937.029462796223 4345.683957266447
1937.70605675126 4320.9094376550065
1938.3824876808085 4226.751942821998
1939.058755625072 4107.716740323652
1939.7348606242267 4272.584767453283
1940.4108027184448 4347.187531875269
1941.0865819478713 4309.197518975803
1941.7621983526478 4362.936382195256
1942.4376519728921 4161.986766574553
1943.1129428487038 4140.773168452786
1943.7880710201734 4104.059741082479
1944.4630365273733 4329.483237472293
1945.1378394103576 4211.827730841714
1945.8124797091714 4287.333233372825
1946.4869574638324 3896.338333121009
1947.161272714353 4123.849675613083
1947.8354255007234 4163.382507900236
1948.5094158629272 4090.796930817813
1949.1832438409183 4231.83987310004
1949.8569094746435 4153.3301682066885
1950.530412804037 4324.701315931129
1951.2037538690092 4330.498079733944
1951.8769327094578 4183.825020694484
1952.5499493652678 4108.691979083405
1953.222803876306 4111.058707876362
1953.895496282421 4218.345748479409
1954.5680266234522 4083.068682326363
1955.2403949392155 4283.647979144124
1955.9126012695142 4006.522340038752
1956.5846456541403 4128.1107852226505
1957.2565281328643 4021.4229680191165
1957.9282487454457 4236.183086264314
1958.5998075316202 4143.414557954282
1959.27120453112 4055.572853398137
1959.9424397836501 4206.676505949725
1960.613513328908 4109.129608631111
1961.2844252065697 4258.579964206973
1961.9551754563017 3997.810041274006
1962.6257641177453 4069.5035378892258
1963.29619123054 3887.473345058557
1963.966456834296 4048.305734282606
1964.6365609686181 4081.226575362255
1965.306503673086 4165.252423019812
1965.976284987275 4237.43676836089
1966.645904950734 4271.129493825244
1967.315363603002 4056.159409144617
1967.9846609836077 4132.876064492959
1968.6537971320486 4115.678451974114
1969.3227720878222 4044.96866201061
1969.9915858904042 4128.224747550867
1970.660238579252 4081.1912477195488
1971.3287301938108 4147.05867970743
1971.997060773514 4113.499193707101
1972.665230357772 4032.9040361823077
1973.3332389859843 4091.301052174293
1974.0010866975335 4012.394060261915
1974.6687735317864 4041.6727625377594
1975.3362995280932 4083.90678391077
1976.003664725793 4030.6450554003045
1976.6708691642052 3886.5303363557623
1977.3379128826364 4047.378200986025
1978.004795920373 4155.397245094377
1978.6715183166925 4074.091768155865
1979.3380801108524 3971.7482293064213
1980.0044813420973 3930.238454505137
1980.6707220496555 4095.497990131914
1981.3368022727373 4062.5425971177137
1982.0027220505417 3832.9529709194553
1982.66848142225 3940.433493234198
1983.3340804270283 4007.3055859549177
1983.999519104027 3908.057986994795
1984.6647974923835 3946.1355373803913
1985.329915631215 3873.755213442432
1985.99487355963 3903.6682919330756
1986.6596713167146 4005.927354413752
1987.3243089415428 3940.991720738395
1987.9887864731754 4053.269709232021
1988.6531039506553 3973.9710903616397
1989.3172614130071 4190.449773355074
1989.9812588992481 3979.821621208453
1990.645096448372 3829.5900502048353
1991.3087740993633 3961.658455063919
1991.9722918911848 3779.8372334550904
1992.635649862792 3999.4421499121736
1993.2988480531185 4002.2443145565276
1993.9618865010852 4088.5322849226163
1994.6247652455968 3936.0717837293005
1995.287484325545 3869.0509251135554
1995.9500437798033 3896.905260901009
1996.6124436472292 3816.760788543563
1997.2746839666706 3797.8405115249466
1997.936764776954 3857.711154210626
1998.598686116895 3807.020309265168
1999.2604480252903 3881.269865502631
1999.9220505409212 3911.3792332332423
2000.5834937025593 3731.5987939526044
2001.2447775489582 3896.989985392482
2001.9059021188514 3918.1746104080657
2002.5668674509616 3858.6337911059736
2003.2276735839987 3863.6751218847676
2003.8883205566508 3899.460238154274
2004.5488084075987 3804.9767979279036
2005.2091371755014 3973.0216234834093
2005.8693068990033 3816.57342850905
2006.5293176167397 3884.889783687574
2007.1891693673224 3851.0611982581627
2007.848862189354 3769.790776104566
2008.5083961214223 3731.2634843153
2009.1677712020955 3735.5518476826787
2009.8269874699254 3759.879013277822
2010.4860449634598 4061.778571152857
2011.1449437212177 3850.1085612175643
2011.8036837817108 3906.7006062316564
2012.4622651834325 3949.0001697097964
2013.1206879648653 3908.766375430463
2013.7789521644736 3734.1169381147497
2014.4370578207036 3604.175472557558
2015.0950049719922 3767.6179734373172
2015.7527936567585 3866.064886730349
2016.4104239134067 3838.9786414570126
2017.067895780323 3789.4652227606703
2017.725209295886 3792.662031005235
2018.3823644984514 3856.236287532327
2019.0393614263648 3747.8408638499227
2019.6962001179545 3732.6986323946876
2020.3528806115355 3913.471545861719
2021.0094029454067 3847.3319177436615
2021.6657671578487 3679.622420650124
2022.321973287133 3839.8941612756535
2022.9780213715148 3760.890549495306
2023.6339114492293 3806.2904462088673
2024.2896435585026 3898.2549192784027
2024.9452177375442 3725.9951681327993
2025.600634024544 3778.6094636409216
2026.2558924576842 3720.2719883653604
2026.9109930751292 3954.8992213371275
2027.565935915025 3816.5298449822667
2028.2207210155066 3991.296963445501
2028.8753484146964 3975.2175595858853
2029.529818150695 3569.0759440759152
2030.1841302615903 3851.796506654973
2030.8382847854573 3776.777862048394
2031.4922817603601 3693.4806331008235
2032.1461212243357 3751.907439896283
2032.7998032154192 3596.1709021190645
2033.4533277716218 3856.7700707293443
2034.1066949309443 3707.6283382370784
2034.7599047313688 3728.337422588685
2035.4129572108704 3759.8588570445586
2036.0658524074006 3687.8039875521818
2036.7185903589016 3822.886557361218
2037.3711711032956 3817.1645819146165
2038.023594678496 3713.4652460274533
2038.675861122394 3667.409206351167
2039.3279704728757 3670.3107813423076
2039.9799227678031 3603.7740826446716
2040.6317180450278 3875.5716425043806
2041.2833563423865 3598.49306143481
2041.9348376977014 3779.8827855605123
2042.5861621487784 3753.389923599286
2043.2373297334088 3541.5501266183333
2043.8883404893695 3718.3304990327597
2044.5391944544208 3695.1953909431054
2045.1898916663158 3653.756761451486
2045.8404321627804 4084.012994374959
2046.4908159815368 3690.56287856216
2047.1410431602853 3743.266439510941
2047.7911137367173 3715.078055456016
2048.441027748504 3781.987149160922
2049.090785233302 3634.5292121893617
2049.7403862287592 3731.56147428373
2050.389830772503 3836.5751599894684
2051.0391189021466 3613.734191265071
2051.688250655294 3474.028351228046
2052.337226069527 3665.0745096547207
2052.986045182417 3597.7852415882526
2053.634708031521 3387.6409958289346
2054.283214654375 3795.168705723142
2054.931565088511 3300.8896656000916
2055.579759371436 3651.5953772751845
2056.2277975406523 3700.946224343238
2056.8756796336384 3772.6625827686767
2057.5234056878617 3424.11131635645
2058.1709757407752 3704.249559988162
2058.8183898298194 3747.3695175189314
2059.465647992416 3649.6141055726744
2060.1127502659747 3569.6734619065273
2060.759696687888 3628.9682542309174
2061.4064872955405 3589.713816822995
2062.053122126292 3627.666685842447
2062.699601217497 3365.417578931933
2063.345924606485 3500.1653705153985
2063.992092330587 3558.0624639428024
2064.638104427102 3687.6503354638435
2065.283960933324 3698.2274459251253
2065.92966188653 3539.634525186741
2066.5752073239855 3711.588683614268
2067.2205972829397 3565.425323779321
2067.86583180062 3642.0599557698333
2068.5109109142522 3515.1453735602563
2069.15583466104 3719.3959073759747
2069.8006030781708 3656.2151543887207
2070.445216202821 3393.571747432543
2071.089674072153 3609.405299807513
2071.7339767233116 3641.8343877400685
2072.3781241934303 3694.8587930406475
2073.0221165196253 3684.0884294741554
2073.6659537390024 3551.235084481695
2074.3096358886505 3584.065804053702
2074.953163005637 3679.9621829365956
2075.596535127028 3427.123627253346
2076.2397522898664 3597.6077052989285
2076.882814531182 3534.6290156047157
2077.5257218879924 3669.870518764209
2078.1684743973 3627.467721312044
2078.8110720960885 3419.682033158545
2079.453515021336 3785.778816383087
2080.095803209997 3640.857842800342
2080.7379366990135 3606.0257759624897
2081.37991552532 3765.461527823819
2082.0217397258275 3519.9078291500955
2082.6634093374414 3449.1713069558355
2083.3049243970418 3509.838658067599
2083.9462849415067 3626.1492790893526
2084.587491007689 3648.3052043050084
2085.2285426324324 3557.6331371435845
2085.869439852564 3494.74961621949
2086.510182704902 3312.748698317288
2087.1507712262483 3379.304073090842
2087.791205453381 3368.291072766897
2088.4314854230743 3422.1123605336115
2089.0716111720867 3619.8628999679336
2089.7115827371617 3468.403522386293
2090.351400155023 3595.7695715405243
2090.991063462385 3447.812822103768
2091.6305726959527 3483.7742520462316
2092.2699278924047 3530.4707922302587
2092.9091290884153 3544.7257184244095
2093.548176320641 3455.1179496624645
2094.187069625721 3560.6563574735374
2094.8258090402887 3378.4032877049785
2095.464394600951 3536.8369292162774
2096.102826344313 3365.9014318237714
2096.741104306955 3581.086916902291
2097.379228525453 3563.9083162335955
2098.017199036358 3373.6151595139063
2098.6550158762147 3547.057372568649
2099.2926790815527 3458.9035295193253
2099.9301886888825 3416.5666703247357
2100.5675447347076 3568.0118672371345
2101.2047472555114 3544.569259138567
2101.841796287761 3253.284669837244
2102.47869186792 3397.9210685651187
2103.1154340324265 3538.156098422426
2103.752022817709 3320.895367354739
2104.388458260184 3324.540798883477
2105.024740396251 3393.758657804339
2105.660869262292 3502.5372401137147
2106.296844894685 3323.8392621975445
2106.93266732978 3559.653117002359
2107.5683366039284 3392.742722634831
2108.2038527534532 3629.3730846382655
2108.8392158146726 3558.2855760594307
2109.4744258238843 3613.236026967431
2110.1094828173755 3199.228350154094
2110.744386831422 3331.052320690328
2111.3791379022787 3559.7616380828285
2112.01373606619 3461.82720924183
2112.648181359389 3623.6129284161884
2113.28247381809 3464.8736950317034
2113.916613478492 3428.047797476148
2114.550600376786 3554.828923384755
2115.1844345491445 3324.416628032235
2115.818116031729 3498.4213253883886
2116.451644860679 3494.777906422275
2117.085021072133 3353.1793010863053
2117.718244702204 3250.1837981634208
2118.3513157869984 3417.976537220495
2118.984234362604 3367.0932571017634
2119.617000465092 3415.0870250883513
2120.249614130529 3336.969574819423
2120.8820753949585 3394.7449854985084
2121.5143842944162 3407.3524393029534
2122.14654086492 3391.978620889962
2122.7785451424734 3504.6850366555773
2123.4103971630702 3411.3923093651233
2124.042096962681 3457.416672194808
2124.6736445772767 3507.5696203582957
2125.305040042802 3276.500649169818
2125.936283395191 3131.346949108417
2126.567374670365 3255.5454957586417
2127.198313904233 3467.7730141173497
2127.8291011326855 3466.6390444971853
2128.4597363916037 3414.160929694819
2129.0902197168507 3214.493473508074
2129.720551144279 3373.783755412398
2130.3507307097225 3531.812503224898
2130.980758449008 3470.5372027429853
2131.6106343979427 3294.3071548543912
2132.2403585923203 3493.155280720131
2132.8699310679276 3352.6384150240956
2133.499351860526 3260.61808344163
2134.1286210058715 3272.1955229106425
2134.7577385397053 3223.8841672166063
2135.3867044977487 3378.2528153675767
2136.0155189157176 3436.66114400305
2136.644181829308 3080.910071397525
2137.2726932742025 3147.125190757593
2137.901053286074 3302.6524914507327
2138.5292619005777 3262.7735894681964
2139.1573191533535 3366.138021613174
2139.7852250800315 3323.905703544589
2140.4129797162295 3298.022000318815
2141.0405830975433 3151.209785461542
2141.6680352595613 3446.742795353
2142.2953362378576 3308.7045144946105
2142.9224860679915 3202.0137432841684
2143.549484785508 3324.0196118979466
2144.1763324259373 3318.3927719101944
2144.803029024799 3462.1698926448676
2145.429574617594 3224.320515334082
2146.0559692398165 3325.9915794673725
2146.682212926942 3309.4240424009904
2147.308305714432 3356.1216055697682
2147.9342476377333 3285.6752219372806
2148.5600387322847 3324.4983242109097
2149.185679033506 3393.994740142035
2149.8111685768017 3317.2599894245895
2150.4365073975678 3206.2861803361234
2151.061695531187 3304.7796957094897
2151.686733013021 3516.185910350152
2152.311619878423 3308.8094470673277
2152.9363561627342 3302.0226311182355
2153.560941901278 3067.0076888347503
2154.1853771293663 3036.4814998606275
2154.809661882293 3225.031586890128
2155.433796195348 3481.5030233616612
2156.0577801037944 3077.2811452103147
2156.681613642895 3214.9216797987656
2157.3052968478896 3011.6371355261967
2157.928829754006 3192.8766899432158
2158.552212396462 3236.6310376836
2159.1754448104566 3166.0403266763906
2159.7985270311783 3304.427833732449
2160.4214590938027 3059.087564619702
2161.0442410334927 3061.449230262195
2161.6668728853874 3262.9530428021853
2162.289354684628 3227.1092166341555
2162.911686466332 3318.039085767211
2163.533868265602 3216.1201871454855
2164.1559001175337 3373.125050227267
2164.7777820572046 3400.5325230471053
2165.399514119681 3086.4444727519317
2166.021096340013 3112.2209561274785
2166.6425287532384 3356.53961759928
2167.263811394385 3043.180479473173
2167.8849442984574 3297.4253174104533
2168.505927500455 3231.750351247604
2169.126761035366 3148.00911133479
2169.7474449381552 3263.047586286213
2170.367979243778 3111.6283083082226
2170.9883639871823 3219.4274679569144
2171.608599203293 3029.6409769895554
2172.2286849270276 3242.7318213938365
2172.8486211932886 3268.103511971438
2173.4684080369625 3303.9564897993887
2174.0880454929265 2979.618748600527
2174.7075335960417 2978.0442806169776
2175.3268723811543 3367.952501688236
2175.9460618831 3027.9023615636384
2176.565102136701 3233.346736654526
2177.1839931767627 3443.383578708958
2177.802735038078 3126.228746451688
2178.421327755432 3239.5415617637127
2179.0397713635866 3125.152951706108
2179.658065897298 3227.9052405125976
2180.276211391305 2927.1895551308867
2180.8942078803357 3212.9306923796385
2181.5120553991 3120.1445226559113
2182.129753982299 3016.3474811502497
2182.7473036646206 3251.959408122636
2183.3647044807367 3226.1198741672724
2183.9819564653044 3029.4606530291526
2184.599059652968 3318.762688214318
2185.216014078367 3121.885497334387
2185.832819776113 2816.4167534650164
2186.4494767808137 3282.0764538929216
2187.065985127063 3104.230613687569
2187.682344849436 3114.0391209612053
2188.298555982501 3238.8536227167797
2188.9146185608097 3052.8914144083983
2189.530532618901 3265.872784886536
2190.1462981912937 3336.478828334163
2190.761915312507 3004.6074889995552
2191.377384017036 3039.943991536398
2191.9927043393654 3159.988346103756
2192.6078763139667 2850.6436042808045
2193.2228999753006 3264.5522876719424
2193.837775357808 2950.7288939325745
2194.452502495922 2987.9527253570764
2195.0670814240602 3200.576200898387
2195.6815121766285 2844.55431963394
2196.2957947880186 3154.8756036765562
2196.9099292926057 2902.5074306803385
2197.523915724758 3136.5571077686177
2198.137754118825 3194.9609516309265
2198.7514445091456 3170.915686502253
2199.3649869300443 3031.0342221826504
2199.9783814158327 3226.6769603396215
2200.5916280008096 3230.62162190518
2201.2047267192593 3090.6095402196725
2201.8176776054515 2962.7670177930604
2202.430480693649 2763.821259605884
2203.0431360180955 2981.4931263009657
2203.6556436130195 3166.3936957199085
2204.268003512645 2933.6905128244807
2204.8802157511727 3214.192525602871
2205.492280362796 3417.346876430859
2206.1041973816937 3007.9641853319617
2206.715966842032 2980.1341736660734
2207.3275887779655 2963.3051227510923
2207.93906322363 3183.739536423307
2208.550390213153 2848.270821470326
2209.1615697806465 3058.2793345597825
2209.7726019602105 2921.2955309956837
2210.3834867859277 3188.628669368079
2210.9942242918787 2848.7021528834107
2211.6048145121167 3314.774176997601
2212.2152574806914 3111.2326365287663
2212.825553231638 3241.2234744470434
2213.435701798975 3039.128742561102
2214.045703216707 3073.51361093758
2214.655557518832 2861.9045397356413
2215.2652647393297 2935.3453739848605
2215.874824912169 2839.0527790624765
2216.4842380713 3062.5663757239163
2217.09350425067 2926.939908657989
2217.7026234842033 3132.919392191428
2218.311595805819 3008.504960767981
2218.9204212494133 2705.1406638116864
2219.52909984888 3151.3750475129864
2220.137631638092 2801.266172911956
2220.7460166509154 3114.925006899964
2221.354254921198 2983.124716542242
2221.9623464827764 3160.999736952749
2222.5702913694713 3026.0239028896945
2223.178089615096 3185.565428700809
2223.7857412534486 2938.113437771522
2224.39324631831 2661.3715459448276
2225.000604843457 3017.019086620223
2225.607816862641 2948.9017083537437
2226.214882409611 2831.39593364432
2226.8218015180973 3025.699088063155
2227.4285742218217 2958.2693295387126
2228.0352005544864 2887.677440822238
2228.6416805497847 2902.2952903514984
2229.248014241399 3026.9555107778
2229.8542016629945 2898.1056112171213
2230.460242848223 2812.6761096587547
2231.0661378307304 3191.571355676676
2231.671886644139 2997.495486932578
2232.277489322065 2878.787411387035
2232.8829458981127 2758.513581402795
2233.48825640587 2975.590296628705
2234.0934208789095 2906.20648824251
2234.6984393507955 2905.240844392969
2235.3033118550793 2905.8062985209617
2235.9080384252975 2862.710543790722
2236.5126190949723 2948.121108934953
2237.1170538976166 2932.944667767456
2237.721342866729 2679.4574037998327
2238.32548603579 2936.2805535920957
2238.9294834382763 2969.4087164682287
2239.533335107646 2832.5234590680675
2240.1370410773434 2680.723151937108
2240.740601380803 2875.1298877403383
2241.3440160514474 2892.0994162658944
2241.9472851226783 2894.444311901258
2242.550408627896 2888.0136000793814
2243.1533866004793 3030.3775795516294
2243.756219073799 2878.213003704904
2244.3589060812064 2868.9345341568887
2244.961447656049 2812.4322367402597
2245.5638438316564 2877.094624573868
2246.166094641343 2956.749530452519
2246.7682001184166 2881.1354444399576
2247.3701602961664 2806.8996324453183
2247.971975207871 2978.8382837451923
2248.5736448867974 2871.8193840909094
2249.175169366197 2667.8435150968703
2249.7765486793123 2897.835858532667
2250.3777828593684 2934.424405972078
2250.9788719395783 3042.4065409985487
2251.579815953146 2968.4319298190644
2252.1806149332606 2739.030716609408
2252.781268913097 3233.4551144703573
2253.381777925817 3047.15330945959
2253.9821420045737 2986.2127556437326
2254.5823611825035 2742.74946884406
2255.1824354927303 3100.777185547983
2255.782364968365 3060.9323748419447
2256.38214964251 2955.1741212718057
2256.9817895482483 2799.8615624579493
2257.5812847186553 2788.525776389943
2258.180635186791 2861.4040281441507
2258.779840985704 3087.877868435632
2259.37890214843 2765.486638596729
2259.97781870799 2804.098530107609
2260.5765906973957 2930.250112985287
2261.175218149645 3192.4311464909215
2261.773701097718 2961.1253005222998
2262.3720395745895 2526.7753839326792
2262.970233613216 2601.4641508787413
2263.568283246548 2856.349336247421
2264.1661885075137 2985.7422462899494
2264.763949429038 2836.230655512333
2265.3615660440246 2736.534592210438
2265.959038385374 2744.5189710639306
2266.5563664859637 3026.095652274327
2267.153550378669 2792.7282304085115
2267.7505900963424 2700.7101029985142
2268.3474856718312 2927.100538626416
2268.9442371379664 2913.190599144412
2269.5408445275643 3027.6206482558086
2270.1373078734377 2627.438092967667
2270.7336272083758 2800.0303052896334
2271.32980256516 2899.4643418434744
2271.925833976562 2881.002485205384
2272.5217214753357 3023.548005535023
2273.117465094223 2717.827691398545
2273.7130648659586 2622.0997168487424
2274.308520823257 2809.33431035831
2274.903832998827 2849.043933539364
2275.4990014253563 2911.9357957843763
2276.094026135528 2974.8937155326207
2276.6889071620117 2688.7399636246696
2277.2836445374614 2493.175540334119
2277.878238294519 2456.528026839912
2278.472688465812 2737.1746753186817
2279.066995083962 2660.159429764423
2279.6611581815705 2832.701255951276
2280.255177791232 2757.222845798538
2280.8490539455233 2950.4628549268186
2281.442786677013 2906.344898897623
2282.0363760182554 2997.722618129391
2282.6298220017943 2879.20735123081
2283.223124660155 2818.320440078848
2283.816284025859 2877.6482285795632
2284.4093001314086 2712.190021705916
2285.002173009292 2903.134663037685
2285.5949026919952 2890.886509976057
2286.1874892119777 2967.935157791618
2286.7799326016993 2767.1395245328176
2287.3722328936 2532.7287421888495
2287.964390120109 2421.9470225778823
2288.556404313642 3060.306658942345
2289.1482755066027 2804.4433620802724
2289.7400037313873 2981.7767343291052
2290.3315890203703 2698.413777216091
2290.9230314059205 2675.2818239084318
2291.5143309203904 2652.195562315516
2292.1054875961236 2659.262703419788
2292.6965014654506 2848.648984465407
2293.287372560684 2675.499647093914
2293.878100914131 2940.1896250488235
2294.468686558086 2636.725088485963
2295.059129524827 2848.00450984217
2295.649429846617 2929.1496209089596
2296.239587555716 2675.6337633407898
2296.8296026843636 2748.5629042624296
2297.419475264791 2863.0105724860223
2298.0092053292137 2561.8436019809737
2298.598792909839 2776.7870902661657
2299.1882380388597 2511.525722771748
2299.777540748455 2676.7372755578886
2300.3667010707904 2933.3929690219616
2300.9557190380256 2493.9217736651517
2301.544594682302 2808.295499566522
2302.1333280357503 2539.9676383280407
2302.721919130485 2922.202565684324
2303.3103679986198 2972.2183711956486
2303.898674672242 2745.82713712289
2304.486839183437 2698.1669848657657
2305.0748615642697 2584.656454266513
2305.6627418468015 2484.0809956704024
2306.2504800630704 2583.7632220884225
2306.8380762451143 2871.343292122203
2307.425530424949 2842.264664714317
2308.012842634582 2813.09715481934
2308.6000129060103 2753.0065762774407
2309.187041271214 2929.9794396655784
2309.773927762164 2718.679700692476
2310.3606724108213 3000.366150321889
2310.9472752491274 2699.1208952681086
2311.5337363090184 2594.71629433896
2312.120055622414 2691.1087280582005
2312.706233221221 2792.6572956322298
2313.2922691373424 2425.813029445873
2313.8781634026564 2811.0331495894807
2314.463916049037 2835.79851980429
2315.049527108342 2446.1695133387752
2315.6349966124235 2763.526253139542
2316.2203245931123 2928.276623652549
2316.8055110822315 2492.652502791289
2317.3905561115935 2540.0509217050167
2317.9754597129977 2584.2276070018497
2318.560221918229 2845.428496874451
2319.1448427590603 2412.7246929750295
2319.729322267256 2486.949980228078
2320.313660474563 2436.8563611598147
2320.8978574127195 2659.6417709727366
2321.481913113452 3111.4022203588547
2322.0658276084705 2671.9343613365386
2322.6496009294806 2643.973688672192
2323.233233108165 2256.2234102464777
2323.8167241762058 2674.9188737304726
2324.4000741652617 2477.2421813934398
2324.983283106987 2425.02095438362
2325.5663510330232 2678.5607951554207
2326.1492779749933 2806.0829960276797
2326.7320639645204 2861.037218162969
2327.3147090332004 2514.2492761958147
2327.897213212629 3030.93920900473
2328.4795765343843 2698.4556164258915
2329.0617990300307 2502.362257437645
2329.643880731124 3002.861320532238
2330.22582166921 2688.4175653819407
2330.807621875816 2849.6447979397676
2331.3892813824623 2460.4570378295666
2331.9708002206517 2605.224286819842
2332.5521784218818 2471.917103970666
2333.133416017634 2681.869559217301
2333.7145130393765 2710.230496300123
2334.295469518571 2919.3018837565255
2334.876285486658 2724.6429470436183
2335.456960975076 2684.9747080533957
2336.037496015242 2513.6421075288017
2336.6178906385667 2651.7208522850538
2337.198144876451 2579.431411409303
2337.778258760278 2664.799886203577
2338.3582323214214 2408.6044684747117
2338.938065591243 2557.517181834544
2339.517758601087 2866.765350349283
2340.0973113822965 2535.5772596135575
2340.676723966193 2627.9263320570303
2341.255996384094 2732.491652439198
2341.835128667295 2901.2031158469936
2342.4141208470883 2900.6909081674416
2342.992972954751 2647.320306859351
2343.5716850215467 2533.8394678088966
2344.1502570787306 2244.7779288743777
2344.7286891575386 2337.201379853821
2345.3069812892045 2606.970901306222
2345.885133504944 2497.6892210333745
2346.4631458359618 2684.0639532703203
2347.04101831345 2614.405916271486
2347.6187509685915 2638.700765324878
2348.196343832553 2921.1606410739487
2348.7737969364935 2559.859340110541
2349.351110311558 2664.5204323243142
2349.9282839888765 2615.58861181362
2350.5053179995757 2384.8103159674542
2351.0822123747585 2360.357085859736
2351.658967145526 2439.3489764684723
2352.2355823429643 2585.241705511449
2352.812057998144 2629.7522342960033
2353.3883941421263 2629.691236770247
2353.9645908059647 2629.7470836973066
2354.540648020693 2535.7306429722958
2355.116565817336 2346.4126345100394
2355.6923442269126 2673.6108958662253
2356.2679832804224 2597.0722682403457
2356.8434830088518 2126.031748971558
2357.41884344318 2384.854214234895
2357.994064614377 2502.3661919256674
