#exp_cfg={"servo_angle": 0.0, "laser_lim": 100.0, "servo_angle_to": 18.0, "laser_wup": 0.0, "bt_dev": "EnSpectr-25AE3", "laser_wdn_max": 0.0, "frames": 10.0, "servo_used": 0, "servo_calib_use": 0, "laser_wdn_min": 0.0, "servo_pix_from": 90.0, "cooler_tout": 300.0, "servo_angle_from": 0.0, "servo_calib": "[-1.9174921013161362e-09, 3.9322238269163779e-05, -0.27385609119055809, 653.59552119713567]", "laser_autoctl": 0, "servo_pix_to": 3682.0, "laser_pw": 100.0, "cooler_on": 0, "laser_volt": 4.0, "cooler_autoctl": 0, "cooler_curr": 70.0, "cooler_startup": 10.0, "laser_fixed_pw": 0, "gain": 1.3, "offset": 2.53059635486, "servo_calib_degree": 3.0, "laser_curr": 55.0, "shutter": 8200.0, "servo_calib_step": 1.0, "laser_fixed_curr": 0, "exp": 2000.0, "ccd_volt": 4.7, "bt_addr": "00:06:66:62:5A:E3", "servo_delay": 500.0, "laser_autooff": 1}
#proc_cfg={"flat_auto_wnd": 200.0, "flat_auto_fr": 200.0, "flat_auto_shift": 5.0, "yconv": 1, "flatten": 1, "flatten_strength": 100.0, "xfrom": 300.0, "auto_max_frame": 2000.0, "auto_signal": 48000.0, "flat_auto_tol": 0.1, "autoclip": 1, "xrel_range": 0.0, "flat_auto_to": 4000.0, "intensity_adj": 1.0, "xrel": 7852.0, "rmhot": 1, "flat_auto_slit": 4.999999999999997, "auto_ini_exp": 300.0, "auto_off": 0, "xto": 2860.0, "flat_auto_ref": "", "flat_auto_rank": 1, "autobackg": 0, "xrel_adj": 0.0, "auto_black_lvl": 1, "base_wnd": 100.0, "sub_baseline": 0, "xconv": 2, "auto_max_exp": 1000.0, "auto_total_exp": 10000.0, "auto_exp": 0, "rmripple": 0, "black_lvl": 8207.5, "shutter_clip_adj": 0.0, "auto_bckg": 0, "flat_auto_thr": 0.9, "subbackg": 1}
316.8218498245369 12596.177370255155
317.89969571804795 12426.457955689304
318.977263876126 12452.985778725877
320.05455438786703 12384.49362104484
321.1315673423287 12300.702621145938
322.2083028285215 12244.712306906054
323.2847609354267 12223.798121621276
324.3609417519747 12189.433254906888
325.43684536705587 12146.598981656543
326.5124718695279 12055.203687707248
327.58782134820103 12094.6589309863
328.66289389184385 12062.647493114771
329.7376895891921 12022.05498370706
330.8122085289342 11988.441438422804
331.88645079971866 12014.785709470067
332.9604164901575 11900.938210444867
334.03410568881554 11862.943085840216
335.1075184842266 12021.975480125626
336.18065496487543 11786.128976403113
337.2535152192122 11737.912423911795
338.32609933564163 11859.819048859314
339.39840740253203 11771.570865173931
340.4704395082099 11675.913524306934
341.5421957409617 11701.277333247532
342.6136761890357 11681.462756835586
343.6848809406365 11614.623646914632
344.75581008392874 11559.969830512313
345.82646370703696 11519.598808873125
346.8968418980512 11491.755068353914
347.96694474501055 11509.692874729626
349.0367723359268 11505.463185509418
350.106324758759 11427.891136628716
351.1756021014353 11458.827327549267
352.2446044518383 11451.271832624368
353.31333189781435 11379.127626599544
354.38178452716966 11326.915013299895
355.449962427665 11291.744584541744
356.51786568702846 11231.110103064604
357.58549439294256 11316.44826003687
358.6528486330535 11259.807944480075
359.71992849496564 11177.629887631363
360.7867340662433 11203.566886002545
361.8532654344144 11147.89886897404
362.9195226869597 11273.492357359828
363.9855059113288 11196.188484871816
365.05121519492604 11086.966284474487
366.11665062511565 11102.007238460592
367.1818122892273 11118.176600238472
368.2467002745434 11070.74944085455
369.31131466831175 11080.96882214203
370.375655557742 11084.6875784553
371.4397230299983 11091.746643549446
372.5035171722102 11005.635752889688
373.5670380714637 10998.12357382002
374.6302858148101 10999.732232950717
375.6932604892554 10958.992007834455
376.7559621817709 11049.197216718325
377.81839097928605 10955.340180315445
378.8805469686886 10885.975896292935
379.94243023683157 10952.693145918543
381.0040408705263 10813.781471726046
382.0653789565458 10878.838418775455
383.1264445816196 10835.472499347805
384.1872378324406 10805.698483517512
385.2477587956637 10758.167717259772
386.3080075579037 10739.203868005256
387.3679842057336 10676.372013382694
388.4276888256918 10679.207633385242
389.48712150426945 10630.76345305889
390.54628232792857 10662.858983432616
391.6051713830857 10666.385116526022
392.66378875611736 10607.203256546272
393.7221345333637 10644.85221695146
394.7802088011249 10492.014745975079
395.838011645661 10637.111033795318
396.89554315319765 10491.555976142728
397.9528034099112 10470.781227902487
399.00979250194723 10460.10775787639
400.06651051541485 10401.770740294474
401.1229575363741 10406.07092666097
402.17913365085224 10406.569805305393
403.23503894483656 10455.966530243788
404.2906735042761 10310.635644486065
405.3460374150818 10330.41380490845
406.401130763119 10335.195518130919
407.455953634224 10360.042196423003
408.5105061141876 10355.441026400058
409.56478828876243 10264.310745125531
410.6188002436629 10268.235514156953
411.6725420645689 10274.932570434563
412.72601383711117 10230.733142905807
413.77921564689314 10353.717107632903
414.8321475794728 10231.026431417511
415.88480972036814 10188.181686794513
416.93720215506437 10185.358555631867
417.9893249690049 10192.111162466788
419.04117824759123 10089.439630890061
420.09276207619223 10086.570447791873
421.144076540133 10111.581114942652
422.1951217247042 10108.516690469123
423.24589771515275 10075.779349586383
424.2964045966928 10057.372816071653
425.34664245449494 10041.047691050018
426.3966113736933 10048.950913292489
427.4463114393875 10047.514841537548
428.49574273662984 9975.50456392701
429.5449053504417 9981.934172199744
430.5937993658026 9969.338492900388
431.6424248676558 9896.510767593452
432.6907819409007 9968.139253751599
433.73887067040596 9917.740146653703
434.7866911409965 9888.910187003941
435.8342434374608 9883.544883153061
436.88152764455117 9832.995260832296
437.9285438469724 9897.520669113841
438.9752921294057 9806.12094727148
440.02177257648145 9861.843177212095
441.06798527279716 9775.189981867823
442.1139303029122 9812.874366920292
443.1596077513459 9729.777986961599
444.2050177025794 9826.007619345015
445.25016024105753 9699.990512723582
446.2950354511886 9748.364062271241
447.33964341733736 9685.898957148807
448.383984223834 9720.203545190747
449.4280579549686 9696.18707755934
450.471864694995 9734.958336039268
451.5154045281306 9661.701456563422
452.5586775385509 9691.345305485896
453.60168381039693 9674.0492541544
454.64442342776783 9742.792987608062
455.6868964747264 9697.029739071226
456.7291030353008 9638.571341909566
457.77104319347563 9651.552852404184
458.8127170332027 9613.505962849673
459.854124638392 9651.97035973003
460.895266092919 9669.450691503262
461.93614148061897 9739.918589730569
462.97675088529104 9667.195568742181
464.01709439069236 9731.142584180787
465.0571720805492 9675.091568750924
466.0969840385442 9662.329855646149
467.1365303483253 9751.722268919064
468.17581109350067 9666.254232139083
469.2148263576437 9698.397543307245
470.2535762242878 9624.720733976425
471.29206077693016 9695.107029183362
472.33028009902773 9704.338571001721
473.3682342740012 9708.071502355193
474.40592338523857 9692.356160917698
475.4433475160804 9761.881976906678
476.4805067498364 9779.022783793474
477.51740116978 9726.360019211157
478.5540308591426 9790.046844691598
479.59039590112116 9813.658496315078
480.6264963788726 9847.89846699583
481.6623323755193 9891.959748485802
482.6979039741436 9883.562177466474
483.7332112577915 9931.854450240382
484.76825430947247 9996.688077315379
485.80303321215797 10114.963189991326
486.837548048783 10115.655039574744
487.8717989022425 10125.12845924433
488.90578585539697 10120.814157895773
489.9395089910686 10149.424303329373
490.97296839203955 10112.917826017467
492.00616414106116 10106.889390599843
493.0390963208429 10077.685048638112
494.0717650140559 10043.586264322974
495.10417030333883 9932.56707306385
496.1363122712901 9956.310606821196
497.16819100046814 9856.553965470763
498.1998065734024 9796.848609352672
499.2311590725767 9808.535973222839
500.26224858044407 9674.978947834086
501.2930751794156 9754.860638190166
502.3236389518679 9634.685861584741
503.35393998014115 9608.797208811198
504.38397834653733 9563.145488538043
505.4137541333221 9594.548691275237
506.4432674227228 9589.301257087678
507.4725182969323 9524.174034696653
508.5015068381035 9434.791224655066
509.53023312835467 9424.201498389184
510.55869724976765 9417.500854439251
511.58689928438434 9453.412425165136
512.6148393142121 9334.472737111519
513.6425174212218 9412.24611476755
514.6699336873462 9457.70919197523
515.6970881944835 9508.315473981695
516.7239810244901 9362.149986352202
517.7506122591931 9433.80253881882
518.7769819803761 9388.189002936375
519.8030902697901 9394.493023950397
520.8289372091476 9497.119794426671
521.8545228801249 9521.381574892144
522.8798473643619 9407.846866867236
523.9049107434621 9523.495253434841
524.9297130989908 9452.372403620098
525.9542545124805 9496.141879687393
526.9785350654201 9498.60072208261
528.0025548392696 9430.304869139307
529.0263139154504 9402.37705084869
530.0498123753423 9393.620244197873
531.073050300296 9377.549021276533
532.0960277716204 9381.856673772967
533.1187448705896 9329.703111052815
534.1412016784416 9336.000771751824
535.1633982763833 9302.050088106065
536.1853347455726 9308.944985379676
537.2070111671401 9310.4378936648
538.2284276221817 9231.506420639253
539.2495841917516 9233.187848035781
540.2704809568677 9188.490374134471
541.2911179985167 9233.189687530323
542.3114953976419 9108.171881681805
543.3316132351592 9110.579194906104
544.3514715919409 9108.807341095595
545.3710705488247 9086.393251677267
546.3904101866156 9114.673519670272
547.4094905860784 9069.022677654893
548.4283118279418 9132.982804098525
549.4468739929034 9126.749219122588
550.4651771616191 9071.47249419515
551.4832214147063 9029.773984042404
552.501006832761 9124.192726632713
553.5185334963226 8994.932181659073
554.5358014859103 9088.731701473012
555.5528108820035 9113.607265120601
556.5695617650363 9079.739665048573
557.5860542154242 9157.356591976351
558.6022883135283 9103.334482154576
559.6182641396881 9075.50292624718
560.6339817741991 9076.110655131135
561.6494412973225 9115.31882946657
562.6646427892883 9113.108536914004
563.6795863302796 9084.833396463346
564.694272000459 9048.269551816831
565.7086998799423 9095.849475841345
566.7228700488104 9097.009077819044
567.7367825871115 8974.075424980465
568.7504375748576 9027.994059466402
569.7638350920224 9045.645972639048
570.7769752185486 9011.42175695431
571.7898580343353 8963.773249161979
572.802483619258 8924.864297423097
573.8148520531431 8955.81131802619
574.8269634157932 8998.80645822856
575.8388177869692 8860.632892298865
576.8504152463938 8945.132149623332
577.8617558737587 8949.901805639589
578.8728397487175 8909.692857157166
579.883666950891 8899.718163675916
580.8942375598654 8951.104029071239
581.9045516551851 9003.716828111765
582.9146093163617 9082.767654345851
583.924410622878 9022.023543592795
584.9339556541727 9071.628775828274
585.9432444896538 9054.592741710043
586.9522772086875 9029.36129956056
587.9610538906127 9053.232746195497
588.9695746147318 8946.216170256985
589.9778394603054 8996.371387724548
590.985848506567 8969.592401911312
591.9936018327098 8941.016100046869
593.0010995178891 8936.718324182848
594.0083416412344 8898.267908674428
595.0153282818283 8812.262516128121
596.0220595187293 8721.71802789606
597.0285354309508 8811.793781431672
598.0347560974806 8698.308566213165
599.0407215972609 8725.843529457898
600.0464320092051 8725.992899864295
601.0518874121954 8673.469256507902
602.0570878850685 8675.469958489826
603.062033506636 8691.863808811197
604.0667243556636 8787.921739782967
605.0711605108936 8655.009665271862
606.0753420510264 8762.223789543317
607.0792690547278 8768.435344393762
608.082941600629 8805.077503812874
609.0863597673306 8727.970249176486
610.0895236333909 8777.180138197193
611.0924332773357 8863.944365120598
612.0950887776617 8913.812871821729
613.0974902128219 8996.047881882681
614.0996376612384 8957.464451812712
615.1015312013005 9103.359551186291
616.1031709113595 9175.095623402594
617.1045568697336 9197.49747933244
618.1056891547069 9379.158338913658
619.1065678445229 9428.347672487664
620.1071930173985 9544.340320819181
621.1075647515099 9517.298776290329
622.1076831250048 9549.7445132869
623.1075482159849 9582.549291318483
624.1071601025305 9680.4702335215
625.1065188626781 9650.785771546169
626.105624574433 9816.622067917659
627.1044773157682 9731.641662356646
628.1030771646128 9755.05375529763
629.1014241988742 9794.197091089221
630.0995184964158 9760.839441807946
631.0973601350688 9776.198387046426
632.0949491926294 9892.74026147062
633.0922857468631 9899.931684956318
634.089369875499 9756.221995916796
635.0862016562278 9798.892980575854
636.0827811667077 9735.347185891404
637.0791084845641 9751.905703270477
638.0751836873878 9695.83677302045
639.0710068527369 9731.614299438657
640.0665780581294 9609.399783108212
641.0618973810506 9435.57266452193
642.0569648989604 9511.826593500118
643.0517806892676 9411.46561599954
644.0463448293649 9364.09874227939
645.040657396592 9308.019768055243
646.0347184682723 9341.67579340869
647.0285281216875 9177.200037153707
648.0220864340772 9167.474207877985
649.0153934826558 9078.381149990646
650.0084493446047 9035.447526069358
651.0012540970674 8964.707245044086
651.9938078171526 8984.376943440213
652.9861105819346 8847.527313737493
653.9781624684565 8944.63395800641
654.9699635537254 8852.096475952505
655.9615139147136 8883.335452175575
656.9528136283589 8757.128432821097
657.9438627715699 8763.065461620348
658.9346614212154 8631.98063975217
659.925209654135 8627.593991712629
660.9155075471263 8670.842927948648
661.9055551769616 8588.121881795087
662.895352620375 8614.812112517391
663.8848999540678 8606.284389832475
664.8741972547068 8459.338910550616
665.863244598926 8455.486474667807
666.8520420633213 8520.5125730248
667.8405897244611 8440.394987235912
668.8288876588758 8420.445881311714
669.8169359430613 8483.272828257366
670.8047346534822 8394.28287545693
671.7922838665672 8387.675519906446
672.7795836587156 8366.176748264214
673.766634106285 8419.219987864697
674.7534352856092 8352.368238707364
675.7399872729766 8293.17007338411
676.7262901446538 8394.155070020328
677.712343976862 8272.035234402309
678.6981488457986 8445.92388522772
679.6837048276229 8392.795004680313
680.6690119984596 8309.958536871347
681.6540704344043 8389.25578718595
682.6388802115107 8340.894158349087
683.6234414058108 8326.47438613098
684.6077540932874 8243.700311522804
685.591818349907 8344.082070319631
686.575634251587 8237.620278554805
687.5592018742263 8257.420484705055
688.5425212936734 8149.388200563912
689.5255925857564 8301.155281561745
690.5084158262707 8214.538059661993
691.4909910909646 8214.214429061172
692.4733184555644 8151.825457630692
693.4553979957618 8229.42114891289
694.4372297872123 8252.679442260236
695.4188139055404 8155.114394856586
696.4001504263324 8128.53607014233
697.3812394251509 8217.877318350564
698.3620809775111 8291.465476858484
699.3426751589104 8292.190690266252
700.3230220448004 8283.70350048631
701.3031217106054 8332.07835812394
702.2829742317172 8386.67490855504
703.2625796834873 8317.0148319759
704.2419381412474 8354.95534403255
705.22104968028 8436.18219613349
706.1999143758458 8502.075639719213
707.178532303169 8429.820502177743
708.1569035374378 8653.296580390974
709.1350281538107 8673.340675251158
710.1129062274158 8795.704378953884
711.0905378333373 8996.293411294224
712.0679230466376 9089.584464533105
713.0450619423427 9352.535373617593
714.0219545954424 9548.192604974116
714.9986010808989 9714.268576219596
715.9750014736292 9931.36407631642
716.9511558485392 10197.966865593242
717.9270642804786 10389.486036619539
718.9027268442787 10583.470588606942
719.8781436147328 10558.496904429927
720.8533146666014 10632.469310327946
721.828240074612 10612.77088274762
722.8029199134635 10562.092814703861
723.7773542578125 10374.77471293233
724.751543182294 10192.47480120938
725.7254867615029 9984.996963869533
726.6991850700015 9862.610252868195
727.6726381823228 9744.758086968723
728.6458461729599 9602.39556707929
729.6188091163858 9452.445105250887
730.5915270870246 9451.537191916137
731.5640001592856 9395.894060746557
732.536228407529 9525.786159074927
733.5082119060917 9494.681185088117
734.4799507292755 9550.371627065917
735.4514449513481 9573.838478926493
736.4226946465496 9637.235775697893
737.3936998890786 9580.481574484616
738.3644607531078 9479.93285063432
739.3349773127793 9409.238437427037
740.3052496421951 9251.007701206603
741.27527781543 9156.5788792286
742.2450619065221 8922.369642894595
743.2146019894826 8770.197030459936
744.183898138288 8633.717386405677
745.1529504268801 8531.165007819203
746.1217589291682 8323.40846701575
747.0903237190341 8152.8179039934275
748.058644870318 8091.510350436349
749.0267224568397 8018.815325329155
749.994556552374 7976.218737357801
750.9621472306771 7895.776092766306
751.9294945654583 7835.42035124322
752.8965986304011 7775.10399219151
753.8634594991636 7728.986256425991
754.8300772453586 7772.728859210687
755.7964519425768 7757.850345532218
756.762583664371 7667.879949363441
757.7284724842611 7677.483650525364
758.6941184757416 7641.039009527199
759.6595217122667 7658.804396845511
760.6246822672638 7600.497604562492
761.5896002141235 7597.685804317611
762.5542756262093 7647.041689652064
763.5187085768503 7583.978091565671
764.4828991393406 7606.467480733925
765.4468473869474 7569.076626466269
766.4105533929032 7555.672840058678
767.3740172304078 7505.639945838693
768.3372389726283 7478.311566039959
769.3002186926988 7466.107920098069
770.2629564637282 7372.764500713279
771.2254523587872 7351.1487368744665
772.1877064509154 7424.467952245114
773.1497188131179 7378.102472953174
774.1114895183728 7338.436152447956
775.0730186396268 7330.343596536241
776.0343062497905 7238.111323576547
776.9953524217381 7299.160353284729
777.9561572283274 7258.428331038212
778.9167207423689 7259.593233395624
779.8770430366476 7293.608355270456
780.8371241839159 7260.6420038445885
781.7969642568951 7238.645996654361
782.7565633282757 7317.0832338222735
783.7159214707099 7223.330866291371
784.6750387568281 7241.4703175091245
785.6339152592227 7206.782946374013
786.5925510504512 7141.057401585504
787.5509462030477 7195.606194499303
788.5091007895098 7249.548959836764
789.4670148823006 7201.182402904218
790.4246885538596 7257.396316650875
791.3821218765861 7155.2666818425105
792.3393149228505 7111.854321766907
793.2962677649975 7174.467905511064
794.2529804753303 7263.388176834813
795.20945312613 7156.530228998732
796.1656857896378 7177.474783771018
797.1216785380675 7143.658725181138
798.0774314435985 7153.599754547887
799.0329445783846 7215.729430584387
799.9882180145414 7234.316878200128
800.9432518241574 7204.435415185062
801.89804607929 7314.273200359287
802.852600851962 7319.594174538763
803.8069162141637 7311.434585010499
804.760992237856 7350.85495756951
805.714828994971 7361.483820432319
806.6684265574077 7402.0817065025085
807.6217849970271 7368.340107070294
808.574904385674 7382.112975155504
809.527784795142 7341.167299800056
810.4804262972102 7305.9301334033635
811.4328289636178 7231.716093490306
812.3849928660748 7206.3613083354985
813.3369180762638 7224.88108356436
814.2886046658241 7105.720042023958
815.2400527063783 7132.786670355294
816.1912622695108 7183.243668272828
817.1422334267718 7059.687819964721
818.0929662496856 7075.415630228173
819.0434608097457 7021.814528959059
819.9937171784059 7016.6190007986925
820.9437354271013 6995.768505262087
821.8935156272255 7003.4567635067215
822.8430578501484 6949.272725287196
823.7923621672016 6904.745262378094
824.7414286496896 6929.419196875552
825.6902573688876 6857.305408727252
826.6388483960363 6888.904942959726
827.5872018023492 6869.248602115654
828.5353176590033 6872.673165763343
829.4831960371503 6830.1259290564285
830.4308370079016 6841.563008411616
831.3782406423525 6805.636112026887
832.3254070115545 6786.822832333778
833.2723361865319 6685.082314893627
834.2190282382799 6644.413856712532
835.1654832377644 6787.912987385692
836.1117012559116 6759.073658101139
837.0576823636256 6729.558194216865
838.003426631778 6689.521383701818
838.9489341312074 6694.394339141305
839.8942049327197 6721.193941054352
840.8392391070975 6796.64640591816
841.7840367250865 6687.146621524838
842.7285978573982 6691.362336532608
843.672922574724 6747.6708403202165
844.6170109477152 6714.79781876115
845.560863046996 6739.385521450866
846.5044789431595 6683.920446314944
847.4478587067697 6727.554164470576
848.3910024083561 6737.204968718349
849.333910118421 6780.110500745088
850.2765819074339 6650.873591515114
851.2190178458332 6789.499031716189
852.161218004032 6702.531946303703
853.1031824524016 6850.113049645179
854.0449112612987 6755.15690640996
854.9864045010327 6762.217072032426
855.9276622418947 6705.885644400165
856.8686845541379 6780.7558493418355
857.8094715079915 6742.479931571783
858.7500231736467 6765.494897722124
859.690339621271 6774.27550920793
860.6304209209939 6728.475021551861
861.5702671429244 6668.455441134623
862.5098783571284 6664.084727344109
863.4492546336569 6775.795391516392
864.3883960425155 6749.225400884139
865.3273026536863 6699.673713181057
866.2659745371238 6694.5833497341255
867.2044117627465 6740.16646067643
868.1426144004472 6672.205292638873
869.0805825200823 6715.674251909925
870.0183161914847 6755.761469592665
870.9558154844526 6737.619623270602
871.8930804687552 6677.85478571669
872.8301112141307 6658.6186460500685
873.7669077902865 6686.668977205557
874.7034702669062 6900.642306701496
875.6397987136315 6764.082602639052
876.5758932000863 6825.701386322615
877.5117537958522 6780.703182526078
878.4473805704911 6788.424082635545
879.3827735935283 6858.362645837487
880.3179329344603 6772.962049995888
881.2528586627541 6846.632044582786
882.1875508478479 6941.210447431229
883.1220095591489 6788.533464933462
884.0562348660296 6865.110825166565
884.9902268378391 6851.859977037631
885.9239855438955 6895.842605679056
886.8575110534839 6800.305152158815
887.7908034358588 6694.667448662262
888.7238627602474 6800.232874943655
889.6566890958475 6738.870787585372
890.5892825118208 6716.36171423971
891.5216430773125 6668.010227420658
892.4537708614189 6642.809235078692
893.3856659332196 6695.999698454638
894.3173283617652 6568.872867669759
895.2487582160684 6661.151790611439
896.179955565116 6621.203775359984
897.110920477864 6524.292953450606
898.0416530232451 6474.361506702358
898.9721532701478 6565.137263278851
899.9024212874428 6547.8984767871725
900.8324571439662 6529.514787945774
901.7622609085302 6519.666524312144
902.6918326499072 6519.905352624156
903.6211724368477 6495.90513322751
904.5502803380696 6487.385689020705
905.4791564222614 6463.636189721239
906.4078007580792 6457.95859314711
907.3362134141571 6452.410715889249
908.2643944590909 6534.030088414138
909.1923439614493 6466.374044105857
910.1200619897754 6468.614010067965
911.0475486125779 6505.243343780908
911.9748038983344 6536.710868530011
912.9018279155007 6496.23539955459
913.8286207324982 6449.428286275308
914.7551824177117 6481.702256805228
915.6815130395116 6477.013706616443
916.6076126662283 6410.984511466329
917.533481366163 6388.684986821603
918.4591192075914 6437.787150467926
919.3845262587565 6437.776036930885
920.3097025878706 6372.905895704892
921.2346482631237 6342.935102865884
922.1593633526682 6415.647363352264
923.0838479246304 6387.621847787045
924.0081020471061 6419.487503111745
924.9321257881656 6294.155441254589
925.8559192158464 6369.659765920815
926.7794823981512 6190.299242317094
927.7028154030686 6326.059971609175
928.6259182985414 6310.345175512362
929.5487911524906 6346.379472518183
930.4714340328119 6243.354822879536
931.3938470073608 6232.328206221469
932.3160301439748 6281.529159729032
933.2379835104548 6326.281901797446
934.1597071745709 6321.369759275366
935.0812012040769 6251.209554061479
936.002465666681 6266.196386943449
936.9235006300696 6246.677559133421
937.8443061619055 6289.684613255835
938.7648823298077 6252.255397862745
939.6852292013809 6233.8748245488305
940.6053468441951 6293.044963040496
941.5252353257874 6303.93671454153
942.4448947136698 6244.414725477493
943.364325075323 6203.046824781481
944.2835264782043 6309.868831715509
945.2024989897309 6318.485695753591
946.1212426773054 6275.100792648304
947.0397576082851 6310.947970713225
947.9580438500125 6364.582990846702
948.8761014697939 6291.306452831313
949.7939305349064 6372.936402020429
950.7115311125999 6323.983879046762
951.6289032700952 6372.465932490008
952.5460470745875 6425.767179831106
953.4629625932339 6379.501811127391
954.3796498931715 6431.224459177564
955.2961090415029 6424.950882748143
956.2123401053068 6331.12303011504
957.1283431516276 6367.655905819618
958.0441182474842 6360.647295865397
958.9596654598663 6434.013369164949
959.8749848557309 6371.017044889906
960.7900765020167 6318.810656415157
961.7049404656209 6276.141738365424
962.6195768134185 6329.355607255195
963.5339856122537 6280.80080707748
964.4481669289453 6303.299501852487
965.3621208302793 6167.216389151337
966.2758473830145 6190.949433622352
967.1893466538822 6202.424821056168
968.1026187095813 6286.420943484347
969.0156636167867 6221.099824877659
969.9284814421426 6229.698622750962
970.8410722522622 6144.135728825384
971.753436113735 6207.530723165352
972.6655730931161 6170.226715213952
973.5774832569368 6204.087383149328
974.4891666716958 6081.922842909501
975.4006234038698 6077.795964908735
976.3118535198955 6154.172431153354
977.2228570861935 6192.562140730339
978.1336341691494 6142.766734640403
979.0441848351202 6082.0684247486515
979.9545091504333 6145.473381757073
980.864607181391 6131.08505087394
981.7744789942699 6061.892073402545
982.6841246553086 6125.537138005469
983.5935442307236 6161.507832934285
984.5027377867027 6031.003322960603
985.4117053894024 6128.3214434200145
986.3204471049557 6011.403185974347
987.2289629994648 6061.647573891901
988.1372531390007 6148.809449037727
989.0453175896091 6138.310224055521
989.9531564173067 6172.54026308386
990.860769688079 6113.517140851
991.7681574678918 6156.651317467678
992.6753198226706 6072.648280654355
993.582256818323 6096.1976291371775
994.4889685207218 6098.178609198069
995.3954549957143 6234.694175388888
996.301716309119 6117.855938912857
997.2077525267232 6203.241928391526
998.1135637142943 6169.546394840776
999.0191499375615 6245.394408039105
999.924511262232 6088.2798376004675
1000.8296477539861 6162.79733957529
1001.7345594784656 6134.394125702485
1002.6392465012996 6157.357774401272
1003.5437088880753 6148.95750361019
1004.4479467043584 6244.590357451751
1005.3519600156869 6018.329106915671
1006.2557488875718 6101.837689204402
1007.1593133854858 6080.835222795301
1008.0626535748888 6057.107214900742
1008.9657695212009 5998.477923818038
1009.8686612898182 6156.278198379456
1010.7713289461135 6062.467107765007
1011.6737725554212 6035.313026629021
1012.5759921830577 5995.102123800882
1013.4779878943027 6103.658011822867
1014.379759754418 6067.934850220971
1015.2813078286254 6027.780066153338
1016.18263218213 6057.312549649941
1017.0837328801026 6044.180298284734
1017.9846099876886 6017.1389120599815
1018.8852635700023 5938.348283548663
1019.7856936921362 6000.792553298178
1020.6859004191447 5967.411754910451
1021.5858838160675 5956.379053586972
1022.4856439479063 5979.179983663356
1023.3851808796389 5999.704461083033
1024.2844946762143 5959.835082405345
1025.183585402554 5921.534006776385
1026.082453123554 5889.633852517409
1026.9810979040776 5887.970104187041
1027.8795198089647 5912.602992715219
1028.777718903024 5986.0053720033175
1029.6756952510368 5955.156943784548
1030.5734489177648 5872.288967335206
1031.4709799679313 5960.3512287279
1032.3682884662358 5988.711255575993
1033.2653744773506 5915.201248373397
1034.1622380659192 5924.0848012433125
1035.058879296559 6102.119882931539
1035.9552982338591 6036.282848125636
1036.8514949423825 6111.309553905632
1037.7474694866614 6151.211222055317
1038.6432219312028 6229.013159490225
1039.5387523404825 6266.0517461229765
1040.4340607789582 6311.96548624674
1041.3291473110476 6285.491975844518
1042.2240120011465 6513.843350249685
1043.1186549136273 6608.77567746062
1044.0130761128294 6639.935435596859
1044.9072756630649 6723.33619081888
1045.8012536286205 6787.292828442392
1046.6950100737577 6908.136548916332
1047.588545062701 7033.819613277861
1048.481858659663 7060.461871876316
1049.3749509288118 7135.758951326141
1050.2678219343034 7103.243541462626
1051.1604717402515 7088.9672045973975
1052.0529004107575 7043.104065327321
1052.9451080098825 7016.9716415334815
1053.8370946016694 7007.932084860503
1054.7288602501267 6963.373602981235
1055.6204050192446 6834.6889967259485
1056.511728972977 6742.530810782283
1057.402832175254 6599.078641475606
1058.2937146899785 6581.162914480364
1059.1843765810263 6466.835076363552
1060.0748179122456 6442.795846343465
1060.9650387474576 6403.46154625585
1061.855039150456 6411.498938781714
1062.7448191850071 6195.234732340363
1063.6343789148505 6148.46639676636
1064.5237184037014 6202.111636096669
1065.412837715241 6068.963394399164
1066.3017369131267 6010.095722481867
1067.190416060992 5962.820255111837
1068.0788752224398 5927.5602694779345
1068.9671144610438 5948.611428551626
1069.8551338403558 5919.564027503429
1070.7429334239023 5885.527492904342
1071.6305132751695 5831.895803897862
1072.517873457633 5883.296373381457
1073.4050140347335 5862.474507218958
1074.2919350698776 5906.404758292942
1075.1786366264623 5857.791115151483
1076.0651187678395 5845.084116742447
1076.95138155735 5802.186770672396
1077.8374250582929 5911.880560401512
1078.7232493339507 5845.513030909418
1079.608854447577 5784.316181062988
1080.4942404623907 5791.0564243988065
1081.3794074415982 5917.774723236854
1082.2643554483657 5975.80171404041
1083.149084545841 5917.330976891564
1084.033594797138 5897.198470856111
1084.9178862653516 6001.087508872375
1085.8019590135427 6023.696833487751
1086.6858131047484 5980.475160092459
1087.5694486019802 6191.135254015383
1088.4528655682225 6083.0361006517405
1089.3360640664287 5998.60070750724
1090.2190441595321 6189.341152346199
1091.1018059104317 6126.281824187903
1091.98434938201 6180.315889388156
1092.866674637111 6221.836764316149
1093.748781738559 6204.391698145547
1094.6306707491512 6119.7035984975755
1095.5123417316554 6091.956267040752
1096.3937947488157 6069.647229742537
1097.2750298633455 6162.718778540802
1098.156047137938 6040.0584193430695
1099.0368466352556 6120.307871051332
1099.9174284179317 6059.193600805168
1100.7977925485757 5943.4487709033
1101.6779390897755 5904.638372786764
1102.5578681040806 5995.036307160675
1103.4375796540226 5942.234962721886
1104.3170738021054 5884.43651666397
1105.1963506108077 5748.986336810666
1106.0754101425773 5831.712446814337
1106.9542524598382 5821.365995915675
1107.8328776249855 5705.638474379421
1108.7112857003904 5670.616248792374
1109.5894767483987 5713.785398530815
1110.4674508313292 5687.577626319503
1111.3452080114657 5648.123361387066
1112.2227483510815 5584.154770666044
1113.1000719124077 5687.922669588549
1113.9771787576592 5527.319848766605
1114.854068949022 5670.000144462468
1115.7307425486542 5636.722093977315
1116.6071996186893 5683.255438963157
1117.483440221229 5736.830894627926
1118.3594644183577 5670.71148319966
1119.235272272128 5687.805438254413
1120.1108638445658 5657.301422245791
1120.9862391976712 5758.057295034747
1121.8613983934229 5809.261918137063
1122.7363414937627 5771.842941326135
1123.6110685606182 5869.341583439401
1124.485579655884 5769.332345076699
1125.359874841426 5957.780142702592
1126.2339541790916 5975.443558017199
1127.1078177306936 5951.7013094710655
1127.9814655580267 5876.0986573474775
1128.854897722851 5988.413523886602
1129.7281142869106 5942.658025934248
1130.6011153119125 5978.764921940772
1131.473900859548 5942.387740955896
1132.3464709914697 5905.781998201285
1133.2188257693178 5849.123417404646
1134.0909652546961 5879.797033938734
1134.96288950919 5784.922928223682
1135.8345985943506 5907.6495007801805
1136.7060925717087 5754.165616536664
1137.57737150277 5771.771413580811
1138.4484354490069 5668.225299609721
1139.3192844718778 5677.828137793062
1140.1899186327992 5563.343527184312
1141.060337993178 5678.6559333371
1141.930542614382 5534.83080220203
1142.8005325577597 5574.143342083542
1143.670307884635 5373.835106236648
1144.5398686563003 5471.110873190112
1145.409214934025 5443.897361091317
1146.2783467790541 5309.430119061199
1147.1472642526023 5414.253511137732
1148.0159674158622 5355.308338033911
1148.8844563300026 5281.1729653407
1149.7527310561618 5335.943387909376
1150.6207916554504 5278.760779611828
1151.4886381889592 5206.307720899427
1152.3562707177498 5257.55948568011
1153.2236893028585 5265.303670047617
1154.090894005296 5210.821215941148
1154.9578848860474 5233.339339838767
1155.8246620060709 5169.08102468823
1156.6912254262988 5161.223473655031
1157.5575752076438 5163.562125645105
1158.42371141098 5240.8752482099935
1159.2896340971656 5161.750368454292
1160.1553433270346 5233.138354482906
1161.0208391613887 5218.343085132839
1161.8861216610057 5130.904749421213
1162.75119088664 5169.601441250241
1163.6160468990201 5141.16974536504
1164.4806897588442 5112.531901782076
1165.3451195267917 5112.725965491214
1166.2093362635114 5129.751697171169
1167.0733400296285 5169.987704214395
1167.9371308857444 5150.526208882709
1168.8007088924278 5178.118930084927
1169.6640741102328 5104.851344540513
1170.5272265996773 5131.073329346104
1171.390166421259 4949.876137972708
1172.252893635452 5120.5672626441565
1173.1154083026995 5183.261795622961
1173.977710483421 5170.234312898908
1174.8398002380145 5029.543554576214
1175.7016776268483 5202.173122413084
1176.563342710264 5112.977026605879
1177.4247955485826 5143.862768808755
1178.2860362020947 5081.953857243504
1179.147064731069 5033.266242981981
1180.0078811957483 5070.367060931305
1180.8684856563486 5125.147253513896
1181.7288781730604 5121.880860703328
1182.589058806052 5163.398293511855
1183.4490276154593 5158.694375428274
1184.3087846614017 5068.845242281963
1185.1683300039676 5212.336829199572
1186.027663703222 5239.704185516393
1186.8867858192025 5201.7927758962915
1187.7456964119228 5271.919526585788
1188.6043955413716 5215.99915828424
1189.4628832675116 5281.682411118336
1190.3211596502842 5252.230105671407
1191.179224749596 5231.228316912446
1192.0370786253388 5142.70640346775
1192.8947213373758 5352.802743775576
1193.7521529455407 5386.65121005609
1194.6093735096438 5308.390961004449
1195.466383089477 5304.32351530983
1196.3231817447977 5286.378978356453
1197.1797695353398 5306.572709533525
1198.0361465208189 5291.11778141127
1198.8923127609214 5269.886468741577
1199.7482683153048 5320.197519778898
1200.6040132436028 5322.573040064055
1201.459547605431 5267.54705182325
1202.3148714603722 5195.773835688053
1203.1699848679855 5236.7836009103285
1204.0248878878065 5235.043826362465
1204.8795805793507 5207.474675056464
1205.7340630020935 5328.3246438333135
1206.5883352155033 5243.713046434519
1207.4423972790064 5196.702255859544
1208.2962492520237 5151.826033963168
1209.1498911939307 5228.902793075098
1210.0033231640937 5175.437737194168
1210.8565452218427 5001.685238556451
1211.7095574264913 5096.639206210049
1212.5623598373222 5019.712810124855
1213.4149525135963 4979.269106174668
1214.2673355145507 5013.8945951664
1215.1195088993936 5016.172038108003
1215.9714727273113 4930.383016433234
1216.8232270574663 5042.829230996953
1217.6747719489904 4896.485898498701
1218.5261074609934 4939.642211917542
1219.3772336525653 5007.990133967889
1220.2281505827668 5064.199891107951
1221.0788583106296 4913.8851249729
1221.9293568951707 4908.971476470335
1222.7796463953746 4871.394736998275
1223.629726870202 4925.338386544036
1224.4795983785934 4797.434240620575
1225.3292609794553 4823.503353457973
1226.1787147316809 4838.619019767159
1227.0279596941327 4764.467152226801
1227.8769959256424 4862.03499183144
1228.7258234850306 4940.841205858044
1229.5744424310833 4796.388690764612
1230.422852822563 4894.349767090289
1231.2710547182105 4932.350773706387
1232.119048176739 4807.1176108074
1232.9668332568417 4839.492012882375
1233.8144100171812 4835.7053111038
1234.6617785163999 4848.539123040526
1235.508938813111 4839.780995728571
1236.3558909659114 4811.181546467493
1237.2026350333617 4917.250084619874
1238.049171074008 4884.736688597663
1238.8954991463652 4753.0541847028735
1239.741619308932 4789.954000401142
1240.587531620169 4808.905690039564
1241.4332361385277 4826.649540028711
1242.2787329224248 4721.805474322247
1243.1240220302534 4807.095429303243
1243.9691035203869 4642.962466954445
1244.813977451171 4786.318830012125
1245.6586438809263 4884.542220807771
1246.5031028679496 4618.188842264444
1247.3473544705157 4769.139455577144
1248.1913987468706 4791.397129720457
1249.0352357552383 4682.09418683787
1249.8788655538228 4747.995337578071
1250.7222882007918 4824.866894448324
1251.565503754302 4751.980816929942
1252.4085122724755 4655.786516592858
1253.2513138134182 4812.445126376185
1254.0939084352049 4790.956476736649
1254.9362961958905 4693.726570989902
1255.7784771535007 4802.426784625116
1256.6204513660432 4784.4798654772185
1257.4622188915 4846.874919412376
1258.3037797878242 4823.332778480414
1259.1451341129468 4832.624533986227
1259.9862819247755 4851.795112459667
1260.8272232811978 4809.695612226466
1261.6679582400666 4858.299555715987
1262.5084868592203 4837.179797697893
1263.34880919647 4793.903958607016
1264.1889253095997 4847.355130631577
1265.0288352563712 4837.345931888651
1265.8685390945266 4796.346017509629
1266.7080368817751 4860.285342701363
1267.5473286758115 4932.811100137389
1268.386414534294 4940.5243043747
1269.2252945148703 4756.709902204196
1270.0639686751547 4807.322493854744
1270.9024370727402 4897.460220408142
1271.7406997651997 4920.406385795059
1272.5787568100714 4795.23123849293
1273.4166082648808 4861.525623295916
1274.2542541871244 4852.362157622911
1275.091694634275 4890.198466230404
1275.9289296637817 4813.997315426979
1276.7659593330663 4819.863331079727
1277.6027836995308 4826.398916608958
1278.4394028205552 4850.1095202599945
1279.2758167534867 4896.44330065212
1280.112025555658 4858.3825425923915
1280.9480292843746 4779.415035132142
1281.7838279969128 4747.859237636165
1282.6194217505326 4762.910297810856
1283.4548106024686 4721.539768837901
1284.289994609926 4811.63127574167
1285.1249738300921 4767.873668805931
1285.959748320127 4761.6836818126685
1286.7943181371702 4890.3834568787815
1287.6286833383328 4804.752400980003
1288.4628439807038 4744.433232749057
1289.2968001213521 4801.571001420759
1290.1305518173194 4775.403477882011
1290.9640991256183 4869.871677537841
1291.7974421032523 4873.544962634918
1292.630580807183 4835.34643221223
1293.463515294361 4861.01237532435
1294.29624562171 4890.137576247107
1295.12877184613 4831.5207524518
1295.961094024493 4747.60796653089
1296.79321221365 4899.2135184607905
1297.6251264704333 5017.468981970795
1298.4568368516466 4898.824325426163
1299.2883434140658 4932.585247213146
1300.1196462144526 4894.514455494625
1300.9507453095375 5043.5496078794395
1301.7816407560313 5029.933613575099
1302.6123326106172 5037.20722282756
1303.4428209299622 5032.5619578682445
1304.2731057707024 5132.540409103478
1305.1031871894502 5104.995207259113
1305.933065242798 5116.282233290621
1306.7627399873181 5049.556934504619
1307.5922114795467 5309.71009609272
1308.4214797760123 5044.108886891967
1309.2505449332057 5166.69319468289
1310.0794070076026 5146.949387141916
1310.9080660556538 5189.758867272901
1311.736522133786 5132.039747014163
1312.5647752983987 5093.196897232259
1313.3928256058734 5167.3638573866365
1314.2206731125661 5138.391980674126
1315.048317874809 5288.160837360075
1315.8757599489109 5252.162773653107
1316.7029993911547 5220.160654974206
1317.5300362578055 5302.239775729831
1318.356870605101 5323.376333291278
1319.183502489257 5275.366801552821
1320.0099319664623 5261.285296284138
1320.836159092889 5423.04581608156
1321.66218392468 5354.128982192919
1322.4880065179532 5267.513612117431
1323.3136269288134 5354.014886398171
1324.1390452133292 5386.42295336376
1324.9642614275563 5404.719081369735
1325.7892756275214 5387.406983629201
1326.6140878692295 5247.175036867635
1327.4386982086617 5267.719878253672
1328.2631067017755 5301.884394733466
1329.0873134045069 5290.383345555363
1329.911318372764 5203.413151138702
1330.735121662441 5211.219313048265
1331.558723329399 5170.667116394148
1332.3821234294774 5089.3871965734925
1333.2053220185007 5126.312635613643
1334.0283191522612 4955.988797457876
1334.851114886529 4911.2275429627425
1335.6737092770582 4985.1147953614145
1336.4961023795695 4954.359115791602
1337.3182942497697 4855.313332985435
1338.1402849433325 4877.7147555902775
1338.962074515921 4720.048991010451
1339.7836630231632 4694.192536687953
1340.6050505206676 4774.628651339075
1341.426237064028 4758.193990233229
1342.2472227088037 4816.135483268094
1343.0680075105338 4638.4354906312565
1343.888591524741 4733.098098813822
1344.7089748069138 4633.214832924603
1345.5291574125276 4684.990204466751
1346.3491393970307 4514.887805089134
1347.168920815846 4649.656852492287
1347.9885017243778 4660.986255044119
1348.8078821780036 4635.377215824756
1349.6270622320844 4505.114440718752
1350.4460419419447 4515.663071440422
1351.2648213629054 4554.831095862628
1352.0834005502438 4607.075355642614
1352.90177955923 4530.075397560302
1353.7199584451064 4443.637754167815
1354.5379372630887 4595.915009662947
1355.355716068374 4634.069034498925
1356.1732949161305 4521.221319022303
1356.9906738615155 4504.1727416638205
1357.8078529596478 4500.878693285912
1358.6248322656375 4505.074593972351
1359.441611834567 4442.181370426721
1360.2581917214866 4557.993634995571
1361.0745719814367 4420.438045054675
1361.890752669433 4412.178523782188
1362.7067338404577 4380.105216134112
1363.5225155494845 4431.247985918894
1364.3380978514506 4393.605582224512
1365.1534808012839 4397.52704834012
1365.9686644538815 4299.732916659505
1366.783648864117 4424.097843737837
1367.5984340868417 4448.3646550614985
1368.413020176893 4388.71940261109
1369.2274071890715 4412.163358012113
1370.0415951781652 4343.561295039418
1370.8555841989346 4331.0201804491835
1371.6693743061223 4345.412053966739
1372.48296555444 4241.5188049353255
1373.2963579985844 4322.731185283757
1374.1095516932255 4308.087624681246
1374.9225466930166 4239.042787744134
1375.7353430525782 4285.707330408772
1376.5479408265164 4385.841308803605
1377.36034006941 4268.248025975179
1378.1725408358216 4241.924120171565
1378.9845431802805 4219.32642624957
1379.796347157304 4379.66957596216
1380.6079528213813 4265.052073546939
1381.4193602269788 4225.811793602419
1382.230569428546 4333.360565119915
1383.0415804805016 4194.355615000696
1383.852393437246 4129.751646240987
1384.6630083531563 4323.3221472424
1385.4734252825892 4193.687222040377
1386.2836442798798 4289.614622368392
1387.0936653993322 4149.4758259086975
1387.9034886952395 4322.280081132363
1388.713114221864 4232.976513808308
1389.5225420334482 4248.004985486261
1390.331772184214 4232.249619338856
1391.1408047283585 4145.2491666503975
1391.9496397200564 4322.936927159246
1392.758277213461 4380.384331790936
1393.5667172627054 4256.417354012208
1394.3749599218918 4198.695699606693
1395.1830052451114 4148.9549419063815
1395.9908532864265 4191.537857946077
1396.7985040998774 4207.615839543754
1397.6059577394808 4222.080274604883
1398.4132142592352 4239.830509010772
1399.2202737131156 4177.043083222828
1400.027136155073 4272.4999404295995
1400.8338016390353 4283.817225380032
1401.6402702189134 4155.680066543855
1402.446541948586 4152.578196713546
1403.2526168819204 4177.06603643454
1404.058495072757 4121.044681249001
1404.8641765749107 4156.027713551897
1405.6696614421799 4198.307540696025
1406.4749497283356 4360.022172927971
1407.280041487129 4168.491293412268
1408.084936772295 4078.015246784979
1408.8896356375335 4160.507561727641
1409.6941381365323 4006.7630634844427
1410.498444322955 4065.1852939515893
1411.3025542504402 4141.31575124313
1412.106467972606 4195.19542759985
1412.9101855430508 4098.829268900972
1413.7137070153458 4077.0984137910077
1414.5170324430437 4181.330705523671
1415.320161879672 4092.3948050924855
1416.1230953787435 4190.602457360436
1416.925832993742 4113.918634106698
1417.7283747781275 4006.541382781562
1418.5307207853439 4040.3647621312316
1419.3328710688093 3978.4932831691076
1420.134825681922 3970.842046875735
1420.9365846780584 4136.797485619435
1421.7381481105713 4073.072202498498
1422.539516032788 4102.208041247914
1423.3406884980232 4102.145394459787
1424.1416655595604 4140.063574375237
1424.942447270665 4066.1362353512923
1425.7430336845828 4125.874989860628
1426.5434248545298 4239.266466963238
1427.3436208337116 4172.269559465326
1428.143621675301 4195.139810615819
1428.9434274324558 4271.787384029538
1429.7430381583108 4169.725245727632
1430.5424539059713 4249.902423001299
1431.3416747285337 4348.284677645629
1432.1407006790632 4282.096828893064
1432.9395318106053 4305.864621995753
1433.7381681761835 4293.562509316718
1434.5366098288014 4259.114059737432
1435.3348568214424 4230.102908730248
1436.1329092070573 4328.1197717934065
1436.9307670385879 4338.508980767534
1437.7284303689503 4406.671236695411
1438.5258992510335 4416.60396595578
1439.3231737377118 4417.616426106526
1440.1202538818306 4450.615334893386
1440.9171397362225 4210.260997259
1441.7138313536925 4256.531102038073
1442.5103287870243 4243.701849728769
1443.3066320889775 4254.822275857717
1444.1027413122956 4381.323067957706
1444.8986565096966 4251.123412058295
1445.694377733882 4288.242260147105
1446.4899050375207 4146.950760593216
1447.2852384732687 4193.924598858883
1448.0803780937622 4024.8370266971265
1448.8753239516063 4169.663284438154
1449.6700760993954 4014.862249840588
1450.464634589689 4190.132074002365
1451.2589994750397 4247.469747343594
1452.0531708079689 4083.999685765313
1452.8471486409799 4024.088019336913
1453.6409330265524 4108.96425084097
1454.4345240171442 3919.465797466979
1455.2279216651987 4018.7839506483433
1456.0211260231263 4037.836741376085
1456.8141371433194 4282.206707959505
1457.6069550781594 3930.725964613768
1458.3995798799897 3897.1361344235747
1459.1920116011424 3932.005963971033
1459.98425029393 3819.99098208819
1460.7762960106338 3935.5918008878098
1461.5681488035225 3873.3206202700594
1462.3598087248392 3786.421224378498
1463.1512758268036 3849.597033329393
1463.942550161617 3768.844628816637
1464.7336317814625 3907.2505577877805
1465.524520738496 3834.577461886097
1466.3152170848552 3773.4926310522337
1467.1057208726506 3631.079758913141
1467.8960321539817 3731.0962639291524
1468.6861509809169 3628.6533236470577
1469.4760774055085 3653.5457165285284
1470.265811479785 3575.172973648132
1471.055353255755 3529.95981896381
1471.844702785409 3535.617518281335
1472.6338601207044 3565.3258408342726
1473.4228253135934 3565.2404818060068
1474.2115984159936 3500.771758136559
1475.0001794798063 3499.9195255249206
1475.7885685569145 3526.345906867033
1476.576765699172 3477.6802943834955
1477.3647709584238 3524.9736816318314
1478.1525843864802 3588.1929357835056
1478.9402060351367 3442.0685425246434
1479.7276359561693 3445.3942105849337
1480.514874201328 3455.614709111041
1481.3019208223468 3432.603399988349
1482.0887758709323 3320.261252094322
1482.8754393987747 3389.2458062507785
1483.6619114575406 3414.571742319543
1484.4481920988783 3365.441594130289
1485.2342813744108 3304.5204889412657
1486.0201793357446 3436.158416057634
1486.8058860344572 3354.6675868650213
1487.591401522117 3331.886598637917
1488.3767258502594 3272.347474858964
1489.1618590704056 3325.609227621907
1489.9468012340494 3181.6544977660415
1490.7315523926754 3460.318474029329
1491.5161125977356 3372.129184328844
1492.3004819006637 3355.213941438024
1493.084660352877 3336.4161836605354
1493.8686480057622 3296.674221247663
1494.6524449106964 3336.7808504646578
1495.4360511190262 3354.225841942408
1496.219466682087 3415.2909708502157
1497.0026916511779 3351.523677168842
1497.7857260775945 3318.772867493569
1498.5685700125996 3315.2908784870133
1499.3512235074395 3342.945092896046
1500.133686613337 3302.3743113544087
1500.9159593814966 3334.3365231769594
1501.698041863101 3443.19750985247
1502.4799341093094 3319.519297945653
1503.2616361712662 3198.2365560428834
1504.043148100087 3281.926954367302
1504.8244699468742 3238.4217894672397
1505.6056017626997 3250.4384147025853
1506.3865435986281 3236.1417016071186
1507.1672955056893 3228.594401624235
1507.9478575348967 3250.096645486604
1508.7282297372512 3383.4868741074506
1509.5084121637192 3331.2511572377143
1510.2884048652577 3263.5748550862263
1511.0682078927948 3301.5629417520713
1511.8478212972423 3328.3350622290154
1512.6272451294917 3209.0441819275534
1513.4064794404076 3323.145421774082
1514.1855242808433 3242.6026926167124
1514.9643797016215 3301.0442165297195
1515.743045753552 3275.5532737063227
1516.5215224874191 3229.4212350272865
1517.2998099539836 3199.835558967026
1518.077908203999 3325.7610641914043
1518.8558172881785 3399.0624188431175
1519.633537257234 3409.884879849559
1520.4110681618404 3250.6494980870607
1521.1884100526604 3319.120074015653
1521.9655629803365 3311.3570724711417
1522.7425269954856 3388.0003633726824
1523.5193021487103 3445.1323460188623
1524.2958884905856 3374.8557427314727
1525.0722860716687 3297.044283960401
1525.848494942502 3327.664396328647
1526.624515153595 3275.377728851397
1527.4003467554485 3489.646353757283
1528.175989798534 3311.9133513898914
1528.9514443333064 3247.116561249327
1529.726710410203 3333.650869677306
1530.5017880796331 3273.6412900269065
1531.276677391992 3272.0552645982434
1532.0513783976457 3338.2623913772063
1532.825891146953 3379.7741170203094
1533.6002156902414 3395.94314944528
1534.3743520778207 3254.515822581293
1535.1483003599806 3343.5748233109493
1535.9220605869923 3146.369992033634
1536.6956328091019 3357.658629410039
1537.4690170765407 3221.2548130189334
1538.242213439511 3351.445707409394
1539.015221948208 3281.5692647701035
1539.78804265279 3384.3065310376683
1540.560675603405 3149.710102964722
1541.3331208501804 3316.4617886805854
1542.1053784432224 3267.276231779196
1542.8774484326168 3279.515364415593
1543.649330868422 3234.2914484297225
1544.4210258006842 3296.8772369814287
1545.1925332794308 3275.364212050105
1545.9638533546604 3381.431847671589
1546.7349860763552 3323.499100678143
1547.5059314944829 3349.5630853318485
1548.27668965898 3295.0762630642553
1549.0472606197673 3349.655977396216
1549.817644426752 3275.1004891500143
1550.5878411298072 3348.5883761161153
1551.3578507787988 3146.780030707749
1552.1276734235635 3225.8349834837436
1552.8973091139233 3338.4066504872453
1553.6667578996767 3374.283395500463
1554.436019830604 3256.8826677179986
1555.20509495646 3242.140998200794
1555.9739833269869 3282.221685623953
1556.7426849919011 3269.6565471247095
1557.511200000903 3259.355672817693
1558.2795284036674 3367.2909582818675
1559.0476702498509 3250.8355157056394
1559.8156255890954 3327.0423537517645
1560.5833944710157 3348.2418302857855
1561.3509769452048 3279.5045835053847
1562.1183730612447 3274.5128660464966
1562.8855828686865 3164.830026846251
1563.6526064170703 3342.398072190191
1564.4194437559127 3434.4675083565467
1565.1860949347047 3323.901395559903
1565.9525600029283 3307.655169170552
1566.7188390100328 3414.721017365031
1567.4849320054564 3342.5999725845113
1568.250839038612 3267.5683894313165
1569.0165601588997 3338.4131563614255
1569.7820954156887 3341.12811397063
1570.5474448583373 3375.1358280744325
1571.31260853618 3295.94109807967
1572.0775864985299 3138.121905870508
1572.8423787946813 3396.6096714860932
1573.6069854739108 3425.018786172836
1574.371406585471 3320.2694282070975
1575.1356421785986 3460.9034630934293
1575.899692302506 3341.1862230332254
1576.6635570063845 3413.026418199059
1577.4272363394157 3363.585817249904
1578.190730350747 3339.510566617988
1578.9540390895163 3201.7761285168417
1579.7171626048384 3226.7750178499437
1580.480100945806 3315.3751739289064
1581.2428541614918 3284.532301665822
1582.0054223009538 3133.7893374484984
1582.767805413223 3292.5164685444133
1583.5300035473156 3372.7155024072717
1584.292016752228 3420.0471418324187
1585.0538450769309 3280.137753616971
1585.8154885703807 3297.7674566063206
1586.5769472815136 3157.556658063296
1587.3382212592405 3379.0295538042824
1588.099310552463 3299.8213870892528
1588.8602152100484 3283.571152969621
1589.6209352808564 3310.0067009140084
1590.3814708137234 3119.0007338555165
1591.14182185746 3116.451573415696
1591.9019884608679 3227.7080757772173
1592.6619706727215 3054.6501923532
1593.4217685417734 3308.9170915944364
1594.1813821167616 3214.072780625657
1594.9408114464022 3062.349475154261
1595.7000565793933 3136.8232830893257
1596.459117564409 3235.831365570545
1597.2179944501113 3075.9403724217455
1597.9766872851324 3062.747923687185
1598.735196118092 3119.1516623323428
1599.4935209975883 3232.0983023443814
1600.2516619721973 3210.1972662906446
1601.0096190904787 3090.891846455817
1601.7673924009723 3140.7513813396567
1602.524981952196 2960.0943420073627
1603.2823877926476 3120.2149718593073
1604.0396099708087 2966.933051389601
1604.7966485351371 2922.4903290073007
1605.5535035340745 2986.4860303005685
1606.3101750160404 3150.493383867588
1607.0666630294363 2963.5757900795957
1607.822967622642 3000.731793318127
1608.5790888440224 2919.5717506875726
1609.3350267419137 3065.490149096723
1610.0907813646445 3023.43487085211
1610.8463527605145 2984.5027311364024
1611.601740977805 2996.267588940415
1612.356946064785 2995.8928697759325
1613.1119680696902 2919.1532000515376
1613.8668070407512 3003.1863572904986
1614.6214630261748 2935.1876031199126
1615.375936074137 3012.639849360855
1616.1302262328118 2929.1454043477975
1616.8843335503425 3051.4708186721887
1617.638258074854 2838.902236981059
1618.391999854457 2911.424020240812
1619.1455589372363 3139.7771353783055
1619.8989353712623 2999.7073871793727
1620.65212920458 2869.90861397543
1621.4051404852235 2944.7230679893883
1622.1579692611976 2944.041855999115
1622.9106155804966 2873.745604888777
1623.663079491087 2981.5349918237607
1624.4153610409248 3000.672451536331
1625.1674602779385 2831.6460725316133
1625.9193772500403 2854.779955261723
1626.6711120051277 2954.819115826488
1627.4226645910676 2882.0020071283043
1628.174035055721 2894.0924150895776
1628.9252234469168 2953.368202312955
1629.676229812474 2803.6416262738176
1630.4270542001905 2997.807936611627
1631.1776966578382 2976.3712414412244
1631.9281572331747 2929.9546728512128
1632.678435973945 3003.3307940646478
1633.4285329278573 2908.218460527135
1634.1784481426203 2843.0004536413667
1634.9281816659113 2811.751394083807
1635.677733545388 2949.5423894676283
1636.4271038286934 2824.1280510935985
1637.176292563452 2989.5094831776073
1637.9252997972635 2833.374113228109
1638.674125577716 2981.56451814276
1639.4227699523672 2997.3974804516038
1640.171232968767 2834.525825956668
1640.9195146744423 2975.3299603650703
1641.6676151168977 2979.699854684885
1642.4155343436178 3041.660934517095
1643.1632724020765 2833.059968392684
1643.9108293397167 2937.799820973956
1644.658205203974 2986.5432672392385
1645.4054000422566 3171.5241010776745
1646.1524139019566 2830.8724338980346
1646.8992468304423 2863.7340887011596
1647.6458988750728 2864.822723215172
1648.3923700831765 2881.163322187814
1649.1386605020743 2871.4307795423447
1649.8847701790564 2975.2731693430073
1650.6306991614038 2947.411845283369
1651.3764474963682 2917.0144413665057
1652.1220152311944 2796.0632618031864
1652.867402413096 3131.275359908889
1653.6126090892776 2890.5634945108736
1654.3576353069184 3052.3414248335707
1655.1024811131829 3103.264623484928
1655.8471465552066 2887.1539310817147
1656.5916316801213 3127.7665939414073
1657.3359365350298 3070.5840217929144
1658.0800611670165 2894.0856549510727
1658.824005623148 2969.0608188766137
1659.5677699504722 2923.9640500779137
1660.3113541960192 2873.230505172105
1661.054758406799 2999.2727984804606
1661.7979826297997 2790.2872039029653
1662.5410269119966 2914.272157264666
1663.283891300338 2743.144462270866
1664.0265758417645 2967.9820198559773
1664.7690805831826 2846.338523378402
1665.5114055714948 2801.330011618303
1666.2535508535748 2921.6671224390752
1666.9955164762814 2743.026345417261
1667.7373024864555 2884.3639815706924
1668.478908930916 2945.50367519436
1669.220335856462 2686.23254369823
1669.9615833098778 2874.1774778312183
1670.7026513379296 2859.6363675819366
1671.44353998736 2761.8479652338656
1672.1842493048916 2715.3074270103643
1672.9247793372379 2869.826208361095
1673.6651301310812 2758.131126660087
1674.4053017330934 2874.908720905187
1675.1452941899242 2772.0353345100825
1675.885107548207 2550.311530664493
1676.6247418545518 2566.556045831289
1677.3641971555535 2678.0739694528247
1678.1034734977893 2796.0905719516268
1678.8425709278108 2828.6649386521613
1679.5814894921605 2848.8678580553224
1680.320229237359 2701.362826478568
1681.0587902098978 2689.515839842056
1681.7971724562685 2848.2217471390804
1682.5353760229264 2605.0165142425412
1683.2734009563173 2755.860580697109
1684.0112473028657 2498.5799636357615
1684.7489151089794 2702.2969164139495
1685.4864044210462 2737.3234850023578
1686.2237152854377 2567.233763117323
1686.960847748498 2544.603969555573
1687.6978018565642 2574.2039702879492
1688.434577655944 2621.370083965668
1689.1711751929379 2441.6974820108508
1689.9075945138156 2512.193955422474
1690.6438356648396 2643.119426403487
1691.3798986922448 2429.482927914059
1692.1157836422499 2535.639915848077
1692.851490561059 2482.9918941380083
1693.587019494853 2574.4071455767
1694.3223704897991 2437.4366473753707
1695.0575435920364 2424.945462621154
1695.792538847696 2453.209168567808
1696.527356302886 2496.773416149582
1697.2619960036936 2466.525258463107
1697.9964579961907 2320.0065451852506
1698.730742326432 2207.781372936702
1699.4648490404488 2431.496759027406
1700.1987781842563 2377.1734978582695
1700.9325298038548 2267.142823270091
1701.6661039452174 2455.4844864921274
1702.3995006543082 2440.1486241517396
1703.1327199770658 2438.8420606479294
1703.865761959416 2349.4781972025544
1704.598626647261 2328.489071354584
1705.3313140864866 2427.5538762698516
1706.0638243229587 2252.1255862585067
1706.7961574025303 2262.9534754993965
1707.528313371029 2393.313474238418
1708.260292274268 2129.4456225837757
1708.9920941580403 2305.4999145732227
1709.7237190681226 2165.1052901929793
1710.4551670502697 2285.6090607570795
1711.18643815022 2182.5242883332385
1711.9175324136959 2397.1206107851185
1712.6484498863938 2267.30505269916
1713.379190614005 2170.09122892963
1714.109754642188 2307.469932339271
1714.8401420165883 2206.0255257194667
1715.570352782839 2560.3476336857084
1716.3003869865497 2281.3391599191273
1717.0302446733076 2268.5323872052495
1717.7599258886876 2221.377820335024
1718.4894306782444 2310.6489381544416
1719.2187590875183 2181.946558450693
1719.9479111620203 2347.50504065229
1720.6768869472544 2148.998937262834
1721.4056864887025 2263.1563428760405
1722.1343098318284 2133.96667218326
1722.8627570220742 2290.338355574457
1723.591028104871 2152.6760753582794
1724.3191231256242 2019.2215529241166
1725.0470421297232 2009.5038430764957
1725.7747851625427 2326.189020550294
1726.5023522694337 2189.0966473287267
1727.2297434957363 2165.4394766604323
1727.9569588867635 1778.3664377698406
1728.6839984878152 2169.111267131003
1729.4108623441734 1970.3496449757629
1730.1375505011038 2064.4727719576063
1730.8640630038426 2137.8445718699104
1731.5903998976264 2031.6597575030214
1732.316561227657 2125.386951838262
1733.0425470391274 2005.7960067400604
1733.7683573772065 1988.4702536645786
1734.4939922870508 2195.237800404381
1735.2194518137949 2172.7253234269438
1735.9447360025606 1976.4241703250186
1736.669844898439 2042.5361220027141
1737.3947785465189 1992.6438303921655
1738.1195369918605 1970.7393429731742
1738.8441202795093 2070.926962208251
1739.5685284544943 2017.3658958907083
1740.292761561821 2165.6664596018977
1741.0168196464838 2128.71511263883
1741.7407027534518 2102.402978461446
1742.464410927687 2002.4593107523808
1743.187944214118 2069.7136677972226
1743.9113026576688 2064.2261626806103
1744.634486303241 1992.784612240351
1745.3574951957125 2119.0053238213363
1746.0803293799509 2199.4005538770825
1746.8029889008048 2089.7675127705415
1747.5254738031017 1918.307647809216
1748.2477841316504 1924.0880478532642
1748.969919931249 1994.023305330747
1749.6918812466665 1939.556507353581
1750.4136681226646 2162.181246331734
1751.1352806039777 1996.9745912089734
1751.856718735331 1929.2470369652262
1752.5779825614281 2039.3177675672282
1753.2990721269507 2049.392142792585
1754.0199874765676 1896.805781780052
1754.7407286549314 1909.846910919173
1755.4612957066693 1907.2093215932946
1756.1816886763954 2009.045401764736
1756.9019076087097 2018.6063747276094
1757.6219525481865 1984.1397805717722
1758.3418235393856 1950.9571620404354
1759.061520626854 2035.032030532299
1759.7810438551096 2043.8372115537968
1760.5003932686614 1887.1964911010164
1761.2195689119999 1928.8320893300292
1761.938570829594 2017.6534433481854
1762.657399065898 1996.779204560981
1763.376053665348 1898.249220490082
1764.0945346723602 1915.2954712623239
1764.812842131334 1979.7139188825786
1765.5309760866512 1830.2107522299725
1766.2489365826787 1930.37176107629
1766.9667236637597 1762.6137976252073
1767.684337374223 1833.8564112121735
1768.401777758383 1741.6991047953077
1769.1190448605284 1931.1073324197728
1769.836138724937 1796.9996818112818
1770.5530593958665 1979.0590091763156
1771.2698069175603 1889.207435751371
1771.9863813342326 2025.6477664888403
1772.702782690094 1884.5927537946814
1773.4190110293293 1982.8644934392523
1774.1350663961111 1904.1701636826183
1774.8509488345844 1920.9154844978107
1775.5666583888924 1917.5783985890334
1776.2821951031437 2053.1732311502865
1776.9975590214362 1861.074189353922
1777.7127501878585 1983.1950499210857
1778.4277686464684 1966.2321339458213
1779.1426144413108 1983.017076091158
1779.8572876164162 1918.1442140182985
1780.571788215797 1760.1508491028071
1781.2861162834415 2048.73425511221
1782.0002718633277 2000.097571990084
1782.7142549994132 1905.4598870376449
1783.4280657356376 1958.057836552518
1784.141704115922 1843.651439571094
1784.855170184177 1879.0822132779667
1785.5684639842839 1813.4509720915526
1786.2815855601148 1741.1792349959837
1786.9945349555237 1853.2687503526583
1787.707312214343 1806.8845976902207
1788.4199173803918 1999.6115512498272
1789.132350497468 1771.8768398174739
1789.8446116093583 1858.8933710074652
1790.556700759822 1886.0777145880177
1791.2686179926077 1906.0748607417543
1791.9803633514493 1903.341261938227
1792.6919368800554 1664.8924881495755
1793.4033386221236 1775.3081327023997
1794.1145686213295 1961.111868237917
1794.8256269213307 1878.1007554176547
1795.536513565774 1877.6143253045539
1796.247228598284 1772.1755217445964
1796.9577720624693 1810.1285428700364
1797.6681440019165 1887.57021619462
1798.3783444602013 1797.3426482241848
1799.0883734808776 1808.9378124350842
1799.7982311074884 1859.1777386552253
1800.5079173835475 2021.5392228537344
1801.2174323525633 1835.7792424928182
1801.9267760580187 1869.3120451762873
1802.635948543386 1916.8512758883858
1803.3449498521113 1822.9818056444215
1804.0537800276325 1824.1119634905092
1804.7624391133668 1891.4737629514304
1805.47092715271 1644.1174385219213
1806.1792441890484 1849.1277872960352
1806.8873902657433 1818.8589352031697
1807.5953654261448 1876.59141381013
1808.3031697135812 1808.9878656440173
1809.0108031713662 1752.089376522125
1809.71826584279 1890.5767250447693
1810.425557771141 1865.1818449280995
1811.1326789996747 1940.4459682459928
1811.839629571632 1698.981053688921
1812.5464095302468 1814.8985131463317
1813.2530189187182 1809.0480837435866
1813.959457780249 1738.04263343024
1814.6657261580076 1931.6318275599292
1815.371824095153 1822.1834067257664
1816.0777516348262 1870.6191162452633
1816.78350882015 1706.7960747965342
1817.4890956942272 1782.943497326567
1818.1945123001533 1778.8826295357474
1818.8997586809928 1674.3638703031017
1819.6048348798067 1747.3598165588223
1820.3097409396287 1782.679418083028
1821.0144769034796 1864.1027263743326
1821.7190428143622 1769.29101082157
1822.423438715261 1806.0906582833843
1823.1276646491478 1756.3207315778368
1823.8317206589727 1898.790166618352
1824.5356067876692 1754.7569860572821
1825.2393230781581 1758.5201377835328
1825.942869573335 1701.7389619198943
1826.646246316086 1788.7024977345882
1827.3494533492758 1743.6904512084511
1828.052490715756 1818.1302064500992
1828.7553584583547 1923.7819573779973
1829.458056619891 1834.2942239217232
1830.1605852431585 1820.5887790156776
1830.8629443709433 1801.0567175537647
1831.5651340460063 1803.5038840868224
1832.2671543110919 1651.7908233032963
1832.9690052089318 1861.8508471423634
1833.6706867822395 1559.178954189737
1834.3721990737104 1894.7264771999794
1835.0735421260233 1804.1907660776965
1835.774715981841 1682.492823047102
1836.4757206838058 1647.3031456485794
1837.1765562745459 1663.3636873045987
1837.8772227966747 1681.669081238586
1838.5777202927839 1687.7527197479037
1839.2780488054523 1789.0351447298399
1839.9782083772352 1765.255259037299
1840.6781990506806 1684.7730207714285
1841.378020868313 1653.586865359217
1842.0776738726418 1812.3496560300896
1842.777158106157 1845.8840079453523
1843.4764736113375 1701.4466192210944
1844.1756204306403 1848.4424173298128
1844.8745986065078 1660.5238125040567
1845.5734081813607 1613.8354532500512
1846.2720491976124 1752.7244857458631
1846.970521697649 1621.91688669686
1847.6688257238511 1807.431271914726
1848.3669613185684 1917.3177506406423
1849.0649285241452 1588.5342078422211
1849.7627273829057 1770.9306792343136
1850.460357937156 1711.9620254820984
1851.1578202291857 1608.5565743336085
1851.8551143012664 1690.6844830587052
1852.5522401956569 1734.3874027700385
1853.2491979545957 1734.5410579546756
1853.9459876203055 1735.0272371341612
1854.6426092349902 1721.1556853559455
1855.3390628408451 1803.2009806991027
1856.0353484800362 1755.249919126953
1856.7314661947203 1794.546951924523
1857.4274160270397 1701.759328540363
1858.123198019115 1743.750532012941
1858.8188122130487 1644.7432218967595
1859.5142586509319 1715.3247136578375
1860.209537374838 1775.6026151138649
1860.9046484268183 1869.7838834479849
1861.599591848917 1721.8841077054356
1862.294367683151 1593.7230765167908
1862.988975971528 1667.0409101841183
1863.6834167560355 1685.6341843625828
1864.3776900786452 1857.46954129921
1865.0717959813119 1774.2741537021288
1865.7657345059724 1598.564537734817
1866.4595056945564 1806.5431561084686
1867.1531095889586 1683.0866296437666
1867.846546231076 1561.240110215309
1868.5398156627743 1713.004261751507
1869.2329179259123 1700.4732536959596
1869.9258530623283 1759.7643137389812
1870.618621113843 1857.702961365576
1871.3112221222636 1624.0115111119974
1872.0036561293764 1528.6670146476724
1872.695923176956 1751.323095549722
1873.3880233067594 1837.0772786294278
1874.0799565605212 1672.9687578186517
1874.7717229799673 1730.636959259486
1875.4633226068036 1733.7654696197922
1876.1547554827175 1740.4618298062965
1876.8460216493859 1511.3951669676667
1877.5371211484617 1796.3274921651955
1878.2280540215852 1813.6998905968012
1878.9188203103804 1479.6407280722317
1879.6094200564548 1729.740500226531
1880.299853301396 1512.9704048082117
1880.9901200867826 1792.7178392688795
1881.6802204541673 1780.7381452326158
1882.3701544450942 1705.623133099827
1883.059922101087 1686.3933207821951
1883.7495234636517 1701.8114642685196
1884.4389585742792 1547.1475759519617
1885.1282274744517 1640.854172935613
1885.8173302056166 1841.6728349940452
1886.506266809225 1759.0329306793042
1887.195037326701 1660.2311386137887
1887.8836417994517 1560.4289825373485
1888.5720802688702 1751.1056451841225
1889.260352776333 1625.3540394803833
1889.9484593632042 1677.6471647608378
1890.63640007082 1709.4468499364316
1891.3241749405151 1432.7954244168757
1892.0117840135954 1627.8698257631672
1892.6992273313572 1694.8100739566648
1893.3865049350788 1557.7466712550745
1894.0736168660223 1747.075854660757
1894.7605631654333 1707.900971128102
1895.4473438745408 1559.5402399219558
1896.133959034556 1825.7250445909583
1896.820408686679 1711.3639102886386
1897.506692872088 1672.6503768735706
1898.192811631945 1723.2998314531112
1898.8787650073991 1616.737227694485
1899.5645530395832 1741.6568224557045
1900.2501757696118 1729.251577254475
1900.9356332385796 1428.904876614422
1901.620925487574 1801.7650801507239
1902.3060525576602 1724.449135695905
1902.9910144898859 1647.1092993887116
1903.6758113252872 1597.8965524949695
1904.3604431048789 1764.3556969915614
1905.0449098696663 1766.299084492198
1905.7292116606295 1720.8253562005798
1906.4133485187394 1638.7156919117751
1907.0973204849488 1490.575218930486
1907.7811276001976 1509.5573051495662
1908.4647699053967 1577.9973223398424
1909.1482474414588 1204.5075260494973
1909.8315602492694 1363.5272436361688
1910.5147083696957 1633.007846955113
1911.1976918436012 1560.8183727150636
1911.880510711815 1595.1767256807236
1912.5631650151681 1593.6058261928933
1913.2456547944657 1625.1648872378742
1913.927980090495 1530.4038593490418
1914.6101409440362 1632.0795517110998
1915.2921373958416 1582.4581503737268
1915.9739694866603 1749.9784505145349
1916.655637257214 1636.6071067993494
1917.3371407482136 1639.700608270669
1918.0184800003572 1802.108292329573
1918.6996550543154 1692.18126807894
1919.3806659507554 1741.5740590844955
1920.0615127303208 1469.787203016174
1920.7421954336423 1641.5287924060747
1921.4227141013343 1616.4032788919117
1922.103068773993 1651.655839728329
1922.783259492202 1700.9204196503183
1923.4632862965227 1458.0404428488102
1924.1431492275078 1549.2923859905356
1924.8228483256917 1573.6415446983192
1925.5023836315922 1390.120246980203
1926.1817551857057 1326.7852642172677
1926.8609630285227 1622.1078902040153
1927.5400072005123 1744.09393373948
1928.218887742125 1531.3820867865384
1928.8976046938005 1587.1928323114337
1929.5761580959588 1723.8600556951747
1930.2545479890086 1457.3028945125093
1930.9327744133352 1443.9519773320612
1931.6108374093164 1632.8950782838115
1932.2887370173066 1577.3684224504013
1932.9664732776473 1392.4708955787055
1933.6440462306673 1644.2412509111414
1934.3214559166754 1512.7621213059097
1934.9987023759659 1559.7803048501685
1935.675785648813 1522.5705911946438
1936.3527057754836 1457.7841626356678
1937.029462796223 1483.521682910878
1937.70605675126 1509.3490141209409
1938.3824876808085 1437.7710276978623
1939.058755625072 1597.471851603785
1939.7348606242267 1708.9385687069087
1940.4108027184448 1712.8176585684862
1941.0865819478713 1700.4583623500257
1941.7621983526478 1572.3025861501812
1942.4376519728921 1501.3034763791538
1943.1129428487038 1629.557485188262
1943.7880710201734 1604.4757004372268
1944.4630365273733 1643.6757469085246
1945.1378394103576 1461.658612998512
1945.8124797091714 1689.4163184621273
1946.4869574638324 1441.4283184124847
1947.161272714353 1432.1803353486068
1947.8354255007234 1611.1802654369808
1948.5094158629272 1528.5517651714995
1949.1832438409183 1545.402719688493
1949.8569094746435 1662.9781009196845
1950.530412804037 1602.441148659299
1951.2037538690092 1693.1088359672078
1951.8769327094578 1534.40896744579
1952.5499493652678 1586.2456322226933
1953.222803876306 1545.7191759123543
1953.895496282421 1588.7528975412702
1954.5680266234522 1434.0652676745544
1955.2403949392155 1527.6119229458343
1955.9126012695142 1460.3303405642039
1956.5846456541403 1638.851687455724
1957.2565281328643 1671.1582881545994
1957.9282487454457 1703.5601916507508
1958.5998075316202 1442.7393935720454
1959.27120453112 1483.960968072934
1959.9424397836501 1545.859356219681
1960.613513328908 1537.3094313984252
1961.2844252065697 1474.7840553230874
1961.9551754563017 1508.3204735217948
1962.6257641177453 1405.2926520097858
1963.29619123054 1364.9656693927946
1963.966456834296 1575.3521160135083
1964.6365609686181 1589.0848440666493
1965.306503673086 1443.2385449664348
1965.976284987275 1566.1913134076583
1966.645904950734 1640.9221102070671
1967.315363603002 1483.888591138742
1967.9846609836077 1581.2185492061521
1968.6537971320486 1416.9700006736634
1969.3227720878222 1596.1654686049435
1969.9915858904042 1494.9319668425019
1970.660238579252 1531.9905652073987
1971.3287301938108 1519.7479966750502
1971.997060773514 1653.0145215245625
1972.665230357772 1478.8799121762872
1973.3332389859843 1374.9900788924133
1974.0010866975335 1443.5104233102334
1974.6687735317864 1660.0170249372782
1975.3362995280932 1554.2375277044634
1976.003664725793 1366.7329652910437
1976.6708691642052 1399.588447849747
1977.3379128826364 1510.9880266004375
1978.004795920373 1570.657518662125
1978.6715183166925 1638.3039277985863
1979.3380801108524 1329.2323412674393
1980.0044813420973 1465.6732416940233
1980.6707220496555 1371.8196630769623
1981.3368022727373 1586.5639620212633
1982.0027220505417 1503.8930094532066
1982.66848142225 1289.132551994989
1983.3340804270283 1362.4738847161477
1983.999519104027 1355.8159362345673
1984.6647974923835 1465.5641328274792
1985.329915631215 1396.7215413695583
1985.99487355963 1407.1303991140603
1986.6596713167146 1564.4301149192756
1987.3243089415428 1458.0410263945882
1987.9887864731754 1580.276152026164
1988.6531039506553 1370.7349819109527
1989.3172614130071 1357.768338420508
1989.9812588992481 1344.8006773378659
1990.645096448372 1363.1944505748293
1991.3087740993633 1376.5813852164595
1991.9722918911848 1197.4467599751144
1992.635649862792 1555.6485825974175
1993.2988480531185 1510.4245637201154
1993.9618865010852 1465.6714866024643
1994.6247652455968 1420.8929161116632
1995.287484325545 1447.902037659318
1995.9500437798033 1428.1344545052632
1996.6124436472292 1440.0270408561444
1997.2746839666706 1349.7640682192682
1997.936764776954 1439.413911234181
1998.598686116895 1311.0166830049207
1999.2604480252903 1495.163427770605
1999.9220505409212 1464.007114867792
2000.5834937025593 1268.1986809038538
2001.2447775489582 1406.374439466216
2001.9059021188514 1271.7198781513757
2002.5668674509616 1368.6937495506158
2003.2276735839987 1458.4870569593054
2003.8883205566508 1544.1924496649588
2004.5488084075987 1555.571641352467
2005.2091371755014 1497.7024909865238
2005.8693068990033 1329.1008726907617
2006.5293176167397 1469.9722905356552
2007.1891693673224 1450.5612022506523
2007.848862189354 1216.4798912846027
2008.5083961214223 1319.5741842234067
2009.1677712020955 1348.1260878275832
2009.8269874699254 1348.7258096916569
2010.4860449634598 1337.421251581962
2011.1449437212177 1326.1659013221947
2011.8036837817108 1548.569083112294
2012.4622651834325 1419.9652035020115
2013.1206879648653 1536.3543310160503
2013.7789521644736 1578.5870424449672
2014.4370578207036 1534.2062770128305
2015.0950049719922 1489.6703349901009
2015.7527936567585 1575.219726730808
2016.4104239134067 1531.0495366052935
2017.067895780323 1486.6973818814017
2017.725209295886 1374.3831825804475
2018.3823644984514 1464.3196795319427
2019.0393614263648 1453.5695684224513
2019.6962001179545 1322.584627263939
2020.3528806115355 1461.7607012369597
2021.0094029454067 1456.2804528562633
2021.6657671578487 1311.9768230354598
2022.321973287133 1438.9576922424153
2022.9780213715148 1346.8090177959127
2023.6339114492293 1309.166546314759
2024.2896435585026 1469.1645589398418
2024.9452177375442 1497.3927152221777
2025.600634024544 1481.5857103906567
2026.2558924576842 1486.2732236206411
2026.9109930751292 1612.1365484487867
2027.565935915025 1405.804818698223
2028.2207210155066 1493.9552060320143
2028.8753484146964 1550.8403798028896
2029.529818150695 1296.4103467345162
2030.1841302615903 1341.011979309724
2030.8382847854573 1310.2661013816482
2031.4922817603601 1499.1604346704219
2032.1461212243357 1388.2769464511862
2032.7998032154192 1301.0693018338984
2033.4533277716218 1482.4442807798434
2034.1066949309443 1403.6139286110142
2034.7599047313688 1299.2274486915
2035.4129572108704 1489.526990490212
2036.0658524074006 1410.2532495327964
2036.7185903589016 1508.3235559316208
2037.3711711032956 1452.1881728335768
2038.023594678496 1465.6236402858465
2038.675861122394 1243.835787780093
2039.3279704728757 1474.2092286778072
2039.9799227678031 1406.175256774984
2040.6317180450278 1572.0769218056832
2041.2833563423865 1358.6657184587225
2041.9348376977014 1517.179014824921
2042.5861621487784 1308.6489263505741
2043.2373297334088 1282.3142157905247
2043.8883404893695 1265.29235886066
2044.5391944544208 1248.112694386858
2045.1898916663158 1329.705879683813
2045.8404321627804 1331.3177546380498
2046.4908159815368 1332.812105848097
2047.1410431602853 1438.9423137967392
2047.7911137367173 1324.2916646617236
2048.441027748504 1533.5411197857852
2049.090785233302 1408.597445872432
2049.7403862287592 1246.4728582319392
2050.389830772503 1435.6977439035666
2051.0391189021466 1386.9593841494575
2051.688250655294 1554.0670427350829
2052.337226069527 1340.167647154703
2052.986045182417 1417.616302762523
2053.634708031521 1177.64876513355
2054.283214654375 1104.786969139664
2054.931565088511 1458.3489635235408
2055.579759371436 1386.2172029087023
2056.2277975406523 1315.0254793169515
2056.8756796336384 1431.3609649209295
2057.5234056878617 1452.60184251975
2058.1709757407752 1473.6606456746426
2058.8183898298194 1492.2651773707698
2059.465647992416 1289.7984352613657
2060.1127502659747 1481.4626413086128
2060.759696687888 1384.1638477886231
2061.4064872955405 1429.6524009225598
2062.053122126292 1459.3409961012812
2062.699601217497 1487.9941291386767
2063.345924606485 1516.7572276249296
2063.992092330587 1417.4395181560758
2064.638104427102 1438.4049238961138
2065.283960933324 1400.3878908821619
2065.92966188653 1222.6589335355452
2066.5752073239855 1465.2054515599566
2067.2205972829397 1410.1419142828781
2067.86583180062 1264.0592164990383
2068.5109109142522 1344.277151274136
2069.15583466104 1431.4125029916718
2069.8006030781708 1368.3047836779465
2070.445216202821 1224.2379864415873
2071.089674072153 1546.2366300928127
2071.7339767233116 1530.973122135914
2072.3781241934303 1325.174768601733
2073.0221165196253 1406.8594854614707
2073.6659537390024 1454.4132111553106
2074.3096358886505 1368.3783836615044
2074.953163005637 1371.4819445183925
2075.596535127028 1177.8413534492804
2076.2397522898664 1389.2432618552903
2076.882814531182 1366.0817051073159
2077.5257218879924 1401.3483395874575
2078.1684743973 1327.6818616343687
2078.8110720960885 1263.0844361439765
2079.453515021336 1623.2969382549654
2080.095803209997 1478.2905522369072
2080.7379366990135 1429.6486696666207
2081.37991552532 1520.1030728636558
2082.0217397258275 1306.8024652607269
2082.6634093374414 1240.6883936721456
2083.3049243970418 1263.2654155821838
2083.9462849415067 1340.1362380993075
2084.587491007689 1451.8235888119693
2085.2285426324324 1376.757266280618
2085.869439852564 1264.6729889079952
2086.510182704902 1213.7300607030872
2087.1507712262483 1284.239722245004
2087.791205453381 1397.710465793039
2088.4314854230743 1279.4514619172758
2089.0716111720867 1295.5848462299077
2089.7115827371617 1108.5187216198615
2090.351400155023 1440.748790665744
2090.991063462385 1416.471102045331
2091.6305726959527 1187.2665385128307
2092.2699278924047 1251.431532263227
2092.9091290884153 1484.992091093024
2093.548176320641 1242.4405543418534
2094.187069625721 1488.2362341550586
2094.8258090402887 1226.434740554831
2095.464394600951 1383.6739005600052
2096.102826344313 1286.6344500591827
2096.741104306955 1473.666897573864
2097.379228525453 1297.7306804038187
2098.017199036358 1179.0876224928202
2098.6550158762147 1352.4666339998419
2099.2926790815527 1405.8616938162293
2099.9301886888825 1331.7818222268415
2100.5675447347076 1479.8233146138439
2101.2047472555114 1470.738789273558
2101.841796287761 1398.835386174783
2102.47869186792 1326.784679766132
2103.1154340324265 1311.5936938102263
2103.752022817709 1197.709712765312
2104.388458260184 1323.9848357823046
2105.024740396251 1342.1341506114052
2105.660869262292 1412.8232116174681
2106.296844894685 1286.6667163707039
2106.93266732978 1374.2472738855454
2107.5683366039284 1142.4847164420341
2108.2038527534532 1266.1161181840275
2108.8392158146726 1469.2701695784092
2109.4744258238843 1371.4077887891349
2110.1094828173755 1233.618602400084
2110.744386831422 1472.5045966530195
2111.3791379022787 1306.7937438125514
2112.01373606619 1306.1106320582728
2112.648181359389 1480.7655701136737
2113.28247381809 1407.6238582821438
2113.916613478492 1166.9305057721635
2114.550600376786 1381.99512695016
2115.1844345491445 1259.6446115720753
2115.818116031729 1313.3527458726362
2116.451644860679 1281.8448323782693
2117.085021072133 1272.1478279162188
2117.718244702204 1123.2566871445201
2118.3513157869984 1280.5961762643162
2118.984234362604 1263.3475698728164
2119.617000465092 1248.467243096064
2120.249614130529 1407.3918643386264
2120.8820753949585 1436.6859756350846
2121.5143842944162 1305.426190980023
2122.14654086492 1391.2819854455481
2122.7785451424734 1419.6892409660018
2123.4103971630702 1197.4005455802946
2124.042096962681 1442.6940806682876
2124.6736445772767 1408.8234456879427
2125.305040042802 1109.453865942748
2125.936283395191 1165.3680156109308
2126.567374670365 1342.7035900932674
2127.198313904233 1221.6229867426805
2127.8291011326855 1219.2492791188417
2128.4597363916037 1216.7257160764325
2129.0902197168507 1250.1153307338498
2129.720551144279 1426.5325744349307
2130.3507307097225 1314.2351832024958
2130.980758449008 1361.1782064249549
2131.6106343979427 1217.3664850389075
2132.2403585923203 1216.149401429076
2132.8699310679276 1214.8868405084525
2133.499351860526 1369.047569785084
2134.1286210058715 1263.5334114999482
2134.7577385397053 1100.4574565746161
2135.3867044977487 1404.948005946871
2136.0155189157176 1335.7494160652673
2136.644181829308 1130.063539701795
2137.2726932742025 1189.8050442462013
2137.901053286074 1336.235515337291
2138.5292619005777 1344.8978269340919
2139.1573191533535 1276.9842504085802
2139.7852250800315 1325.9158556412972
2140.4129797162295 1383.7722531389188
2141.0405830975433 1163.3588794218406
2141.6680352595613 1464.5662179632375
2142.2953362378576 1291.8020486687903
2142.9224860679915 1318.3276153549143
2143.549484785508 1344.90958997659
2144.1763324259373 1156.3424745908687
2144.803029024799 1284.1387689645285
2145.429574617594 1050.6782878876252
2146.0559692398165 1320.623636113643
2146.682212926942 1219.9968500196321
2147.308305714432 1133.112066413728
2147.9342476377333 1446.663659745948
2148.5600387322847 1171.3686918415856
2149.185679033506 1463.6642107646858
2149.8111685768017 1296.4517147069405
2150.4365073975678 1158.445414529874
2151.061695531187 1304.938111165458
2151.686733013021 1495.2572599690652
2152.311619878423 1425.185750244072
2152.9363561627342 1109.2082224710025
2153.560941901278 1143.6408449070461
2154.1853771293663 1267.8192027929167
2154.809661882293 1226.4746990143353
2155.433796195348 1229.8613336538613
2156.0577801037944 1233.097205608393
2156.681613642895 1105.0690597028752
2157.3052968478896 1247.613931864365
2157.928829754006 1093.0279057452194
2158.552212396462 1209.3119347400047
2159.1754448104566 1274.271671037742
2159.7985270311783 1323.9616296198444
2160.4214590938027 952.2175622641307
2161.0442410334927 1127.1552803515394
2161.6668728853874 1356.7117243078155
2162.289354684628 1211.8625638271665
2162.911686466332 1396.6945576469893
2163.533868265602 1366.867266974858
2164.1559001175337 1352.4902939143722
2164.7777820572046 1273.1728672022634
2165.399514119681 1135.2663265705844
2166.021096340013 1068.587658699583
2166.6425287532384 1081.7900297666476
2167.263811394385 1095.0764906891918
2167.8849442984574 1264.1324394812739
2168.505927500455 1313.6931526657095
2169.126761035366 1195.1077509545926
2169.7474449381552 1294.6319384003582
2170.367979243778 1118.3538967189804
2170.9883639871823 1178.8622053438814
2171.608599203293 1148.9931450527858
2172.2286849270276 1220.2133723056443
2172.8486211932886 1248.156304048685
2173.4684080369625 1180.596217292224
2174.0880454929265 1112.821967874494
2174.7075335960417 1115.5282301978432
2175.3268723811543 1356.3068095351605
2175.9460618831 1179.2464697014739
2176.565102136701 1416.7853139698016
2177.1839931767627 1261.9765149654384
2177.802735038078 1097.4704785013262
2178.421327755432 1190.7827930953938
2179.0397713635866 1270.9888417367345
2179.658065897298 1371.3759084666917
2180.276211391305 1385.7546535817069
2180.8942078803357 1400.096593618693
2181.5120553991 1247.6559874882942
2182.129753982299 1161.88712710233
2182.7473036646206 1242.3894457038182
2183.3647044807367 1426.5887300264776
2183.9819564653044 1402.042194295526
2184.599059652968 1377.4852237463529
2185.216014078367 1218.6751120508181
2185.832819776113 1289.0289097014424
2186.4494767808137 1359.4759523745965
2187.065985127063 1153.8507077255952
2187.682344849436 1286.3955385480376
2188.298555982501 1317.37337009393
2188.9146185608097 1341.5350803034905
2189.530532618901 1353.4798212266307
2190.1462981912937 1196.8912643504707
2190.761915312507 1132.594853788603
2191.377384017036 1058.7038985081967
2191.9927043393654 1277.7610845254567
2192.6078763139667 1342.4423577948369
2193.2228999753006 1407.2876521422031
2193.837775357808 1205.0347556180518
2194.452502495922 1073.528240459183
2195.0670814240602 1321.1879930522123
2195.6815121766285 1026.3431710031352
2196.2957947880186 1274.4407213459572
2196.9099292926057 1058.6423551901541
2197.523915724758 1140.8788076711548
2198.137754118825 1246.7300761481595
2198.7514445091456 1399.7239207315965
2199.3649869300443 1237.1145823750267
2199.9783814158327 1437.5325956897352
2200.5916280008096 1404.708309588829
2201.2047267192593 1247.1852525063032
2201.8176776054515 1133.658805076446
2202.430480693649 1001.8071031427507
2203.0431360180955 1185.2286734304375
2203.6556436130195 1280.061113745639
2204.268003512645 1039.2332037589217
2204.8802157511727 1378.5081950196895
2205.492280362796 1629.3384268685481
2206.1041973816937 1110.9237054041944
2206.715966842032 1141.9991928727436
2207.3275887779655 1097.2864029518971
2207.93906322363 1167.6289180832662
2208.550390213153 1097.2212035266218
2209.1615697806465 1244.8697498657302
2209.7726019602105 1265.6831953022572
2210.3834867859277 1246.8039076728028
2210.9942242918787 1148.658835871452
2211.6048145121167 1380.861605802325
2212.2152574806914 1261.3105283224727
2212.825553231638 1452.7184820040727
2213.435701798975 1355.8319291341945
2214.045703216707 1182.5561233886015
2214.655557518832 1014.8748343086299
2215.2652647393297 1015.7811931708054
2215.874824912169 1048.0582241127913
2216.4842380713 1118.8916821538317
2217.09350425067 1145.8809703154361
2217.7026234842033 1222.8285056587138
2218.311595805819 1267.1517694441106
2218.9204212494133 1087.3394644986006
2219.52909984888 1148.618666671211
2220.137631638092 1102.6184348549998
2220.7460166509154 1158.1590563709456
2221.354254921198 1189.3784918874258
2221.9623464827764 1354.099092765003
2222.5702913694713 1145.6226264203804
2223.178089615096 1122.2450088472046
2223.7857412534486 1058.5267859323803
2224.39324631831 994.6831136535336
2225.000604843457 1046.044132541444
2225.607816862641 1198.464824461847
2226.214882409611 1069.4459009760872
2226.8218015180973 1337.6090308108191
2227.4285742218217 1215.5587247505687
2228.0352005544864 1265.4843006760445
2228.6416805497847 1115.599162492307
2229.248014241399 1166.8880899409037
2229.8542016629945 1037.0565465495624
2230.460242848223 1313.1622672317621
2231.0661378307304 1190.581630976455
2231.671886644139 1151.3751131690647
2232.277489322065 1112.1432063672848
2232.8829458981127 941.3109586078048
2233.48825640587 1222.675944422599
2234.0934208789095 1351.57161248844
2234.6984393507955 1069.8919028361172
2235.3033118550793 1063.3487307604923
2235.9080384252975 1088.9240361476554
2236.5126190949723 975.894509196839
2237.1170538976166 1165.1424022637839
2237.721342866729 1173.4049476394903
2238.32548603579 1145.098197451191
2238.9294834382763 1156.2753053769009
2239.533335107646 1064.8529329950586
2240.1370410773434 976.2086224974803
2240.740601380803 979.9076844864314
2241.3440160514474 1168.7402009852779
2241.9472851226783 1271.1440729685737
2242.550408627896 1175.0720304017254
2243.1533866004793 1286.5296795812142
2243.756219073799 1146.1257927685342
2244.3589060812064 1136.8033214542982
2244.961447656049 1074.3210565652607
2245.5638438316564 1295.5424805748753
2246.166094641343 1336.7141359839134
2246.7682001184166 1151.4175317666754
2247.3701602961664 1063.612614882237
2247.971975207871 1361.4366751363457
2248.5736448867974 1215.7145931618356
2249.175169366197 1072.6381143172985
2249.7765486793123 1328.0197708551502
2250.3777828593684 1145.922141789147
2250.9788719395783 1270.4636670101704
2251.579815953146 1126.6768766532546
2252.1806149332606 1003.5402652791212
2252.781268913097 1280.3914849495873
2253.381777925817 1281.1639925773957
2253.9821420045737 1123.4737851645882
2254.5823611825035 1094.2575601087701
2255.1824354927303 1373.383088457772
2255.782364968365 1309.9023057495867
2256.38214964251 1132.454500948947
2256.9817895482483 1160.296232821443
2257.5812847186553 1188.2197319045167
2258.180635186791 1249.2819372023425
2258.779840985704 1172.1455069128683
2259.37890214843 1143.0678106199814
2259.97781870799 1220.9088684674816
2260.5765906973957 1250.6521578190357
2261.175218149645 1195.9355630319335
2261.773701097718 1141.101843685079
2262.3720395745895 969.7435888679711
2262.970233613216 1206.552870209826
2263.568283246548 1062.141033330276
2264.1661885075137 1162.9318315288183
2264.763949429038 1101.588650750981
2265.3615660440246 1128.1471967332745
2265.959038385374 1171.4502828082007
2266.5563664859637 1131.2720126127224
2267.153550378669 1086.5256306163253
2267.7505900963424 1277.6816745377587
2268.3474856718312 1102.1375174063035
2268.9442371379664 1187.081330245446
2269.5408445275643 1252.4137846704768
2270.1373078734377 1275.1364283695946
2270.7336272083758 1040.9290482106503
2271.32980256516 1107.8756014384758
2271.925833976562 1338.9495455317387
2272.5217214753357 1199.1386786732405
2273.117465094223 1132.7481901138326
2273.7130648659586 1066.2129308910014
2274.308520823257 1136.5069231441314
2274.903832998827 1347.1148525980934
2275.4990014253563 1312.1828764694224
2276.094026135528 1277.159299405055
2276.6889071620117 1014.1670704507875
2277.2836445374614 1035.924100479913
2277.878238294519 1057.6610433669794
2278.472688465812 1089.4497222555544
2279.066995083962 1031.3638802844296
2279.6611581815705 1103.4584963642665
2280.255177791232 1012.7148364106648
2280.8490539455233 1097.3951076629623
2281.442786677013 1155.853133099964
2282.0363760182554 1214.4939026472823
2282.6298220017943 1041.249723720745
2283.223124660155 1076.65298139665
2283.816284025859 1112.191137978269
2284.4093001314086 1049.4010945407795
2285.002173009292 1282.1982518778673
2285.5949026919952 1216.3497019758374
2286.1874892119777 1165.218400126379
2286.7799326016993 1113.9208468970405
2287.3722328936 1091.517289140649
2287.964390120109 974.5996625443313
2288.556404313642 1221.1308536196495
2289.1482755066027 1066.1455096641216
2289.7400037313873 1256.2735619641007
2290.3315890203703 977.86916348954
2290.9230314059205 945.4716100438125
2291.5143309203904 913.050931288948
2292.1054875961236 1146.4658307810987
2292.6965014654506 1229.900437274055
2293.287372560684 1048.7958616608144
2293.878100914131 1222.8966834548546
2294.468686558086 1038.3247034200526
2295.059129524827 1042.6511902829056
2295.649429846617 1247.6155085524165
2296.239587555716 1258.5122765311608
2296.8296026843636 1199.1553106259598
2297.419475264791 1122.0445897748566
2298.0092053292137 1019.1421505540535
2298.598792909839 1098.3948933838794
2299.1882380388597 974.3470846710925
2299.777540748455 1164.1123200795007
2300.3667010707904 1135.9983156884723
2300.9557190380256 1027.5695696574653
2301.544594682302 959.1063509522703
2302.1333280357503 890.5545718956046
2302.721919130485 964.9615841041717
2303.3103679986198 1144.0267087398995
2303.898674672242 1323.4355817659402
2304.486839183437 1147.3852442356658
2305.0748615642697 998.5623158204583
2305.6627418468015 1128.6876625342297
2306.2504800630704 1141.2495882497471
2306.8380762451143 1220.1793939206996
2307.425530424949 1266.9166050350061
2308.012842634582 1313.7512209628783
2308.6000129060103 1161.0823491461886
2309.187041271214 1190.0249179678603
2309.773927762164 1178.3927269827693
2310.3606724108213 1324.7206856373714
2310.9472752491274 1023.0736102571658
2311.5337363090184 1213.6971153450875
2312.120055622414 1125.313306570344
2312.706233221221 1167.6302258620544
2313.2922691373424 1039.6341554768028
2313.8781634026564 1227.9301502583753
2314.463916049037 1160.4353630128765
2315.049527108342 1025.3355909692277
2315.6349966124235 1047.9502294449321
2316.2203245931123 1064.0036929736675
2316.8055110822315 1080.0669070353517
2317.3905561115935 892.9414784920725
2317.9754597129977 1049.403146651311
2318.560221918229 1128.4023978003715
2319.1448427590603 1179.425365202153
2319.729322267256 848.8988420998745
2320.313660474563 1016.1184213087123
2320.8978574127195 1291.9686175541633
2321.481913113452 1546.9541963069328
2322.0658276084705 1177.0525706668298
2322.6496009294806 1056.7540967362788
2323.233233108165 1105.942657896123
2323.8167241762058 1155.249961438873
2324.4000741652617 1020.9291346955017
2324.983283106987 1126.412573546392
2325.5663510330232 1117.6789000821207
2326.1492779749933 1102.058998439914
2326.7320639645204 1288.5201492109513
2327.3147090332004 1284.5359435243963
2327.897213212629 1280.4051183681913
2328.4795765343843 1114.010315513537
2329.0617990300307 1107.935467578775
2329.643880731124 1165.2894676692267
2330.22582166921 1222.7772684850186
2330.807621875816 1308.3807467509482
2331.3892813824623 1244.213204110852
2331.9708002206517 1180.0283239877563
2332.5521784218818 1225.343998979619
2333.133416017634 1270.8066532582773
2333.7145130393765 1030.4832436481786
2334.295469518571 1309.2988022567201
2334.876285486658 1182.8105688730825
2335.456960975076 924.5874749830931
2336.037496015242 982.0383480280834
2336.6178906385667 1039.638862706144
2337.198144876451 1203.6204360777385
2337.778258760278 1287.3719437372285
2338.3582323214214 1229.6333685760383
2338.938065591243 1171.72972061865
2339.517758601087 1217.794347266357
2340.0973113822965 995.1042252306012
2340.676723966193 1015.1195578704052
2341.255996384094 1240.6289113918253
2341.835128667295 1110.5290449399422
2342.4141208470883 1308.901086805052
2342.992972954751 969.0387384283986
2343.5716850215467 841.7236138359352
2344.1502570787306 1178.35656258655
2344.7286891575386 1069.1545516908413
2345.3069812892045 993.5871091007041
2345.885133504944 1023.9568837186631
2346.4631458359618 1214.4888792773588
2347.04101831345 1245.7848917921442
2347.6187509685915 1277.0718933600747
2348.196343832553 1087.694033866591
2348.7737969364935 1184.3604243198104
2349.351110311558 970.2662079030852
2349.9282839888765 998.8699576688834
2350.5053179995757 1050.2959990747754
2351.0822123747585 1100.0996874029247
2351.658967145526 1043.1829913730521
2352.2355823429643 1165.0682355458514
2352.812057998144 1197.7350016062878
2353.3883941421263 1048.7145413171927
2353.9645908059647 899.4420817861399
2354.540648020693 895.999234483095
2355.116565817336 892.5707843630004
2355.6923442269126 1036.4542403968376
2356.2679832804224 919.2629143958517
2356.8434830088518 1067.8779013545288
2357.41884344318 972.5249652853988
2357.994064614377 1140.016031507375
