#exp_cfg={"servo_angle": 0.0, "laser_lim": 100.0, "servo_angle_to": 18.0, "laser_wup": 0.0, "bt_dev": "EnSpectr-25AE3", "laser_wdn_max": 0.0, "frames": 10.0, "servo_used": 0, "servo_calib_use": 0, "laser_wdn_min": 0.0, "servo_pix_from": 90.0, "cooler_tout": 300.0, "servo_angle_from": 0.0, "servo_calib": "[-1.9174921013161362e-09, 3.9322238269163779e-05, -0.27385609119055809, 653.59552119713567]", "laser_autoctl": 0, "servo_pix_to": 3682.0, "laser_pw": 100.0, "cooler_on": 0, "laser_volt": 4.0, "cooler_autoctl": 0, "cooler_curr": 70.0, "cooler_startup": 10.0, "laser_fixed_pw": 0, "gain": 1.3, "offset": 2.53059635486, "servo_calib_degree": 3.0, "laser_curr": 55.0, "shutter": 8200.0, "servo_calib_step": 1.0, "laser_fixed_curr": 0, "exp": 2000.0, "ccd_volt": 4.7, "bt_addr": "00:06:66:62:5A:E3", "servo_delay": 500.0, "laser_autooff": 1}
#proc_cfg={"flat_auto_wnd": 200.0, "flat_auto_fr": 200.0, "flat_auto_shift": 5.0, "yconv": 1, "flatten": 1, "flatten_strength": 100.0, "xfrom": 300.0, "auto_max_frame": 2000.0, "auto_signal": 48000.0, "flat_auto_tol": 0.1, "autoclip": 1, "xrel_range": 0.0, "flat_auto_to": 4000.0, "intensity_adj": 1.0, "xrel": 7852.0, "rmhot": 1, "flat_auto_slit": 4.999999999999997, "auto_ini_exp": 300.0, "auto_off": 0, "xto": 2860.0, "flat_auto_ref": "", "flat_auto_rank": 1, "autobackg": 0, "xrel_adj": 0.0, "auto_black_lvl": 1, "base_wnd": 100.0, "sub_baseline": 0, "xconv": 2, "auto_max_exp": 1000.0, "auto_total_exp": 10000.0, "auto_exp": 0, "rmripple": 0, "black_lvl": 8206.7, "shutter_clip_adj": 0.0, "auto_bckg": 0, "flat_auto_thr": 0.9, "subbackg": 1}
316.8218498245369 18446.570462144577
317.89969571804795 18296.780211289653
318.977263876126 18256.05603684161
320.05455438786703 18291.535354771193
321.1315673423287 18247.769029409894
322.2083028285215 18188.956454295807
323.2847609354267 18065.38402325703
324.3609417519747 18076.51860016959
325.43684536705587 18031.385272085117
326.5124718695279 17955.117724450633
327.58782134820103 17981.686529157643
328.66289389184385 17831.982741146472
329.7376895891921 17813.3965588236
330.8122085289342 17833.73108691068
331.88645079971866 17774.225617460383
332.9604164901575 17842.329496455313
334.03410568881554 17630.573571615463
335.1075184842266 17872.06765006426
336.18065496487543 17590.407658701035
337.2535152192122 17558.427354451233
338.32609933564163 17514.319253112415
339.39840740253203 17534.415392447096
340.4704395082099 17482.271851499157
341.5421957409617 17474.088164358713
342.6136761890357 17533.533792327213
343.6848809406365 17446.458790091092
344.75581008392874 17363.729999593685
345.82646370703696 17243.222856871467
346.8968418980512 17226.733596490267
347.96694474501055 17307.159282930774
349.0367723359268 17212.537286355975
350.106324758759 17164.20362236461
351.1756021014353 17117.224048926804
352.2446044518383 17213.882817584825
353.31333189781435 17130.103017191934
354.38178452716966 17119.911002521963
355.449962427665 17113.68787435104
356.51786568702846 16936.246452713676
357.58549439294256 17163.34034063938
358.6528486330535 17095.371157225105
359.71992849496564 16996.975564665827
360.7867340662433 16946.715862378234
361.8532654344144 16975.758305842082
362.9195226869597 17120.530007056877
363.9855059113288 16966.222359367865
365.05121519492604 16895.427018519047
366.11665062511565 16884.624241315276
367.1818122892273 16862.85011708359
368.2467002745434 16899.51362365299
369.31131466831175 16866.0001352583
370.375655557742 16904.988592904927
371.4397230299983 16863.97687296651
372.5035171722102 16746.96665892124
373.5670380714637 16828.922833178607
374.6302858148101 16713.928453063847
375.6932604892554 16853.059868605218
376.7559621817709 16819.062140408285
377.81839097928605 16717.101274267443
378.8805469686886 16731.961763469844
379.94243023683157 16708.601306087963
381.0040408705263 16574.454000599595
382.0653789565458 16604.923108960622
383.1264445816196 16606.89492683061
384.1872378324406 16631.72281143622
385.2477587956637 16649.90615515021
386.3080075579037 16406.373956941417
387.3679842057336 16487.20960570772
388.4276888256918 16451.01399340712
389.48712150426945 16432.74837637483
390.54628232792857 16333.149785225361
391.6051713830857 16383.490150083346
392.66378875611736 16376.550530483564
393.7221345333637 16384.771674193868
394.7802088011249 16365.693900173326
395.838011645661 16354.429506608425
396.89554315319765 16166.375093860808
397.9528034099112 16186.019440454951
399.00979250194723 16156.676626946375
400.06651051541485 16102.066980116715
401.1229575363741 16068.497877647033
402.17913365085224 16138.930067066593
403.23503894483656 16199.320608054288
404.2906735042761 16100.782339485571
405.3460374150818 16067.07075983463
406.401130763119 16076.23806613145
407.455953634224 16133.179285293567
408.5105061141876 16072.346288380137
409.56478828876243 15975.229232206862
410.6188002436629 15991.169363702948
411.6725420645689 15994.400434990039
412.72601383711117 15884.241941410542
413.77921564689314 16045.24144460585
414.8321475794728 15986.379884262444
415.88480972036814 15752.7886509885
416.93720215506437 15867.510771297259
417.9893249690049 15891.910899560724
419.04117824759123 15759.124184680262
420.09276207619223 15678.86137443194
421.144076540133 15720.596983278538
422.1951217247042 15732.537074958294
423.24589771515275 15658.523947250442
424.2964045966928 15587.25905955007
425.34664245449494 15668.739797704446
426.3966113736933 15603.918101653524
427.4463114393875 15598.212442998167
428.49574273662984 15578.765072415288
429.5449053504417 15552.096778448842
430.5937993658026 15568.325329974532
431.6424248676558 15482.794787174964
432.6907819409007 15541.937409557038
433.73887067040596 15491.365954155839
434.7866911409965 15482.99632255414
435.8342434374608 15484.198629268745
436.88152764455117 15379.16891762058
437.9285438469724 15378.4996913041
438.9752921294057 15312.102203629436
440.02177257648145 15398.999375288884
441.06798527279716 15286.332540522315
442.1139303029122 15443.053028387785
443.1596077513459 15300.540607153209
444.2050177025794 15448.878825551456
445.25016024105753 15313.106474828406
446.2950354511886 15319.295583653855
447.33964341733736 15403.64946684804
448.383984223834 15214.77440992218
449.4280579549686 15377.700438118602
450.471864694995 15299.73133364505
451.5154045281306 15210.72587738436
452.5586775385509 15221.839788218811
453.60168381039693 15199.474693260307
454.64442342776783 15313.007647840432
455.6868964747264 15210.443548036881
456.7291030353008 15159.313553191087
457.77104319347563 15232.075404456908
458.8127170332027 15190.741773955404
459.854124638392 15263.68660870565
460.895266092919 15310.926339973845
461.93614148061897 15429.104521748755
462.97675088529104 15269.839180525301
464.01709439069236 15254.374246154523
465.0571720805492 15298.903712420059
466.0969840385442 15335.741051802257
467.1365303483253 15408.68672587789
468.17581109350067 15405.014474041298
469.2148263576437 15325.015998987223
470.2535762242878 15430.176570121457
471.29206077693016 15431.8927886071
472.33028009902773 15395.565814351667
473.3682342740012 15402.853215536448
474.40592338523857 15434.511488084521
475.4433475160804 15332.52577227309
476.4805067498364 15349.17172235915
477.51740116978 15348.314871369823
478.5540308591426 15506.690345917112
479.59039590112116 15434.335146543817
480.6264963788726 15409.84631957851
481.6623323755193 15540.080422055107
482.6979039741436 15445.4516380748
483.7332112577915 15503.87429799041
484.76825430947247 15478.840279078024
485.80303321215797 15539.24087690611
486.837548048783 15574.896957090194
487.8717989022425 15669.467716983325
488.90578585539697 15572.235184981382
489.9395089910686 15653.609515040991
490.97296839203955 15514.71245085519
492.00616414106116 15472.153056371255
493.0390963208429 15519.26625968801
494.0717650140559 15458.89526159453
495.10417030333883 15374.152757107626
496.1363122712901 15372.285628071471
497.16819100046814 15214.488675760444
498.1998065734024 15225.412729734506
499.2311590725767 15214.693380314615
500.26224858044407 15083.29894926614
501.2930751794156 15180.266666157633
502.3236389518679 15092.354577972179
503.35393998014115 15033.982654545243
504.38397834653733 15070.71473470064
505.4137541333221 14997.742853112743
506.4432674227228 15033.515226851776
507.4725182969323 14946.873632386492
508.5015068381035 14879.803391109192
509.53023312835467 14948.854040265665
510.55869724976765 14928.329317627398
511.58689928438434 14836.438551347663
512.6148393142121 14762.37413618149
513.6425174212218 14806.209128982198
514.6699336873462 14858.026466013069
515.6970881944835 14931.96822212504
516.7239810244901 14708.638050267968
517.7506122591931 14809.415654081724
518.7769819803761 14808.218427539736
519.8030902697901 14778.705521696049
520.8289372091476 14832.561060604505
521.8545228801249 14816.832235453869
522.8798473643619 14712.668389448609
523.9049107434621 14797.788843390925
524.9297130989908 14788.701367837846
525.9542545124805 14694.748023234506
526.9785350654201 14756.366818445105
528.0025548392696 14775.92255447529
529.0263139154504 14730.954653523173
530.0498123753423 14724.781421787691
531.073050300296 14695.64505466892
532.0960277716204 14618.982949596568
533.1187448705896 14663.661405541547
534.1412016784416 14687.196307355975
535.1633982763833 14654.288814076848
536.1853347455726 14672.193279112533
537.2070111671401 14569.551659368255
538.2284276221817 14618.915606196122
539.2495841917516 14588.775197606305
540.2704809568677 14506.685492068213
541.2911179985167 14554.498880426607
542.3114953976419 14572.166214462166
543.3316132351592 14546.603066723934
544.3514715919409 14575.778915631605
545.3710705488247 14483.490128293237
546.3904101866156 14499.98224865321
547.4094905860784 14569.70080921001
548.4283118279418 14587.1424271752
549.4468739929034 14454.837630976113
550.4651771616191 14452.511721852226
551.4832214147063 14460.735656824041
552.501006832761 14654.98404357096
553.5185334963226 14570.632427735127
554.5358014859103 14573.30124872078
555.5528108820035 14548.909905699602
556.5695617650363 14564.410174285575
557.5860542154242 14527.962778680336
558.6022883135283 14496.160488395133
559.6182641396881 14478.617929066138
560.6339817741991 14521.373118392163
561.6494412973225 14588.878736744993
562.6646427892883 14500.055684019884
563.6795863302796 14432.526757461706
564.694272000459 14426.65899537313
565.7086998799423 14447.893795238162
566.7228700488104 14398.774675055418
567.7367825871115 14329.552335161876
568.7504375748576 14368.395617909793
569.7638350920224 14334.654679144776
570.7769752185486 14329.974135262799
571.7898580343353 14319.777559058897
572.802483619258 14253.543132867979
573.8148520531431 14223.75544395939
574.8269634157932 14244.23927166
575.8388177869692 14158.687717803603
576.8504152463938 14172.834039214455
577.8617558737587 14236.79157327116
578.8728397487175 14168.286006992028
579.883666950891 14223.727139541981
580.8942375598654 14194.788917577025
581.9045516551851 14219.240314073206
582.9146093163617 14328.619075809573
583.924410622878 14245.912059063998
584.9339556541727 14254.37563356451
585.9432444896538 14243.56291483769
586.9522772086875 14291.10878009765
587.9610538906127 14249.216201751737
588.9695746147318 14119.376339959757
589.9778394603054 14244.254697230534
590.985848506567 14204.580364460877
591.9936018327098 14026.680755812262
593.0010995178891 14090.876218445377
594.0083416412344 14059.100859270611
595.0153282818283 13993.225681813707
596.0220595187293 13934.411480333962
597.0285354309508 13937.083855849953
598.0347560974806 13870.73770953597
599.0407215972609 14016.018885232052
600.0464320092051 13984.63889959767
601.0518874121954 13796.759869124933
602.0570878850685 13881.175954598311
603.062033506636 13852.164363812568
604.0667243556636 13920.260539741741
605.0711605108936 13819.641917901763
606.0753420510264 13928.686054626765
607.0792690547278 13943.03365034625
608.082941600629 13928.421185169325
609.0863597673306 13845.306340583029
610.0895236333909 14012.916726607044
611.0924332773357 14077.938788877576
612.0950887776617 14166.29377173064
613.0974902128219 14207.717940636358
614.0996376612384 14192.894666910037
615.1015312013005 14409.611112589457
616.1031709113595 14428.042742211604
617.1045568697336 14302.25220723178
618.1056891547069 14539.637415878655
619.1065678445229 14681.213910554976
620.1071930173985 14763.50950935305
621.1075647515099 14648.792354592704
622.1076831250048 14691.472242289228
623.1075482159849 14763.895523245728
624.1071601025305 14814.012056911772
625.1065188626781 14693.419768899548
626.105624574433 14889.606373770555
627.1044773157682 14746.291067063023
628.1030771646128 14884.297779574732
629.1014241988742 14827.397674404512
630.0995184964158 14799.799298368982
631.0973601350688 14953.89634706407
632.0949491926294 14940.600358561953
633.0922857468631 14765.873498326855
634.089369875499 14835.573883973218
635.0862016562278 14786.686229464267
636.0827811667077 14719.727275700838
637.0791084845641 14786.921306543134
638.0751836873878 14616.744945238815
639.0710068527369 14683.24243805929
640.0665780581294 14565.917828039699
641.0618973810506 14499.103386111194
642.0569648989604 14430.983671104195
643.0517806892676 14478.400011075957
644.0463448293649 14355.379122245551
645.040657396592 14305.039371578561
646.0347184682723 14363.125872156885
647.0285281216875 14269.147702518825
648.0220864340772 14285.6021626021
649.0153934826558 14238.173351723415
650.0084493446047 14218.682982042874
651.0012540970674 14132.477621897677
651.9938078171526 14190.42678131444
652.9861105819346 14200.557827981753
653.9781624684565 14136.883740072275
654.9699635537254 14154.464115851311
655.9615139147136 14233.043136938251
656.9528136283589 14073.58984220289
657.9438627715699 14044.37663193695
658.9346614212154 13930.599575842265
659.925209654135 13832.858490149165
660.9155075471263 13944.728449973383
661.9055551769616 13829.997309615555
662.895352620375 13850.079359964027
663.8848999540678 13860.75861100739
664.8741972547068 13707.073410590989
665.863244598926 13779.310033000675
666.8520420633213 13797.70933852765
667.8405897244611 13715.420530706144
668.8288876588758 13787.38451713117
669.8169359430613 13719.817624391964
670.8047346534822 13707.524112091458
671.7922838665672 13630.912031297525
672.7795836587156 13677.80009278171
673.766634106285 13793.963632248468
674.7534352856092 13688.907623482553
675.7399872729766 13606.211051381935
676.7262901446538 13638.019503743071
677.712343976862 13599.23113194542
678.6981488457986 13757.025496512793
679.6837048276229 13656.64902200544
680.6690119984596 13574.69046842429
681.6540704344043 13619.89713839209
682.6388802115107 13547.997187346595
683.6234414058108 13530.744120230049
684.6077540932874 13492.212418571818
685.591818349907 13574.20959252511
686.575634251587 13422.097808086222
687.5592018742263 13405.831775342635
688.5425212936734 13326.143008478368
689.5255925857564 13447.56697968236
690.5084158262707 13489.979127277582
691.4909910909646 13471.765563884906
692.4733184555644 13363.065024692554
693.4553979957618 13371.100227322158
694.4372297872123 13491.668176287305
695.4188139055404 13354.35757480311
696.4001504263324 13436.002960339543
697.3812394251509 13476.976926882684
698.3620809775111 13425.663929506936
699.3426751589104 13476.178117092897
700.3230220448004 13524.700328622208
701.3031217106054 13669.259092234084
702.2829742317172 13642.275947779392
703.2625796834873 13593.7532992489
704.2419381412474 13659.339934988582
705.22104968028 13730.532536906941
706.1999143758458 13919.716625785606
707.178532303169 13747.462831983712
708.1569035374378 14026.532691414473
709.1350281538107 14134.290376917299
710.1129062274158 14189.690619210396
711.0905378333373 14426.162706310995
712.0679230466376 14570.143115002487
713.0450619423427 14878.528827354094
714.0219545954424 15086.71311818785
714.9986010808989 15232.671488709293
715.9750014736292 15470.854374227425
716.9511558485392 15785.019758685905
717.9270642804786 15805.431750514172
718.9027268442787 15982.151051908198
719.8781436147328 16108.088394087721
720.8533146666014 16039.235040433929
721.828240074612 15956.639034052621
722.8029199134635 15847.744520077142
723.7773542578125 15635.865538451035
724.751543182294 15513.996636969363
725.7254867615029 15198.713305090909
726.6991850700015 15124.584649201666
727.6726381823228 15148.43396913631
728.6458461729599 15082.412600446984
729.6188091163858 15125.332430534685
730.5915270870246 15150.353809618455
731.5640001592856 15356.648290610581
732.536228407529 15476.83595122641
733.5082119060917 15513.252596213477
734.4799507292755 15636.977252618486
735.4514449513481 15692.947972749525
736.4226946465496 15885.612359469378
737.3936998890786 15639.525114088456
738.3644607531078 15478.767455720288
739.3349773127793 15286.155632823236
740.3052496421951 15049.515654120212
741.27527781543 14858.210951521783
742.2450619065221 14546.519597293862
743.2146019894826 14265.308577026703
744.183898138288 14093.324316694405
745.1529504268801 13873.08243530279
746.1217589291682 13628.379561299938
747.0903237190341 13278.119253575913
748.058644870318 13320.976361836123
749.0267224568397 13163.81259781857
749.994556552374 13076.91985894451
750.9621472306771 13056.918412940797
751.9294945654583 12845.511696780599
752.8965986304011 12783.992065292749
753.8634594991636 12747.814563251753
754.8300772453586 12729.041760139899
755.7964519425768 12747.058259790309
756.762583664371 12637.094667997762
757.7284724842611 12608.571163120403
758.6941184757416 12675.744205648583
759.6595217122667 12615.936602523017
760.6246822672638 12575.78775062261
761.5896002141235 12556.317934485172
762.5542756262093 12578.70541206991
763.5187085768503 12507.304940694641
764.4828991393406 12500.808282134032
765.4468473869474 12562.274130740663
766.4105533929032 12511.008718406749
767.3740172304078 12471.925124561927
768.3372389726283 12412.99134400549
769.3002186926988 12404.906421423813
770.2629564637282 12383.169043789965
771.2254523587872 12339.563377097258
772.1877064509154 12283.35098177436
773.1497188131179 12211.047543579993
774.1114895183728 12262.479091277815
775.0730186396268 12290.50381247879
776.0343062497905 12176.034877221591
776.9953524217381 12194.3773592687
777.9561572283274 12236.283997975775
778.9167207423689 12249.601349111892
779.8770430366476 12120.532894765849
780.8371241839159 12207.370302692412
781.7969642568951 12195.023830459611
782.7565633282757 12197.039805710432
783.7159214707099 12199.78379089159
784.6750387568281 12229.757816545773
785.6339152592227 12125.250371187558
786.5925510504512 11977.303494120371
787.5509462030477 12093.29529218969
788.5091007895098 12156.65441767385
789.4670148823006 12083.397024530848
790.4246885538596 12139.038256193362
791.3821218765861 12124.761745992248
792.3393149228505 12065.020364045651
793.2962677649975 11986.081544530885
794.2529804753303 12092.215499122094
795.20945312613 12037.107819835875
796.1656857896378 11958.130667418249
797.1216785380675 12060.405847577322
798.0774314435985 12148.533980363298
799.0329445783846 12126.680693813869
799.9882180145414 12093.355186224271
800.9432518241574 12061.905775543602
801.89804607929 12191.888039464491
802.852600851962 12060.424631387572
803.8069162141637 12226.78254155392
804.760992237856 12138.708024835218
805.714828994971 12213.31637669687
806.6684265574077 12191.463283564157
807.6217849970271 12092.638284771707
808.574904385674 12073.567147198155
809.527784795142 12155.31157185064
810.4804262972102 12098.648250956176
811.4328289636178 12076.151009468518
812.3849928660748 12072.012767824657
813.3369180762638 12056.858012652565
814.2886046658241 11913.183993266975
815.2400527063783 11995.409860850134
816.1912622695108 11948.285457813277
817.1422334267718 11804.610728220552
818.0929662496856 11945.699564044085
819.0434608097457 11869.150906108072
819.9937171784059 11791.555592718927
820.9437354271013 11754.338614398574
821.8935156272255 11802.111774018684
822.8430578501484 11760.42707524812
823.7923621672016 11611.772084863183
824.7414286496896 11700.850670878568
825.6902573688876 11730.39361585261
826.6388483960363 11719.204521105208
827.5872018023492 11666.355629192785
828.5353176590033 11660.771233755988
829.4831960371503 11602.385363321604
830.4308370079016 11615.428780432663
831.3782406423525 11565.674132432108
832.3254070115545 11474.535956630274
833.2723361865319 11520.754375564833
834.2190282382799 11516.930568559144
835.1654832377644 11693.211475742297
836.1117012559116 11572.268774610708
837.0576823636256 11520.825063884786
838.003426631778 11489.973866447759
838.9489341312074 11526.280586322562
839.8942049327197 11520.131945423193
840.8392391070975 11485.671138988557
841.7840367250865 11456.878610721558
842.7285978573982 11511.080398977736
843.672922574724 11550.173873697258
844.6170109477152 11541.1021846078
845.560863046996 11503.293975984878
846.5044789431595 11525.24012454949
847.4478587067697 11587.320117172423
848.3910024083561 11629.444276418813
849.333910118421 11571.388070447652
850.2765819074339 11505.374122487516
851.2190178458332 11539.58912614841
852.161218004032 11523.310566999184
853.1031824524016 11564.89562038261
854.0449112612987 11531.950977811663
854.9864045010327 11530.568233562788
855.9276622418947 11524.641327757261
856.8686845541379 11546.784450727779
857.8094715079915 11481.799622658289
858.7500231736467 11504.848267959467
859.690339621271 11554.308177692408
860.6304209209939 11494.956546572457
861.5702671429244 11348.33366315595
862.5098783571284 11463.980391745248
863.4492546336569 11462.022862991842
864.3883960425155 11399.81636935527
865.3273026536863 11478.663026888622
866.2659745371238 11511.606029349237
867.2044117627465 11459.860640970244
868.1426144004472 11406.74394345062
869.0805825200823 11452.394611383415
870.0183161914847 11440.589229618876
870.9558154844526 11448.466231690192
871.8930804687552 11450.41055830431
872.8301112141307 11367.404815250233
873.7669077902865 11469.407038025409
874.7034702669062 11568.185193285633
875.6397987136315 11450.483738811932
876.5758932000863 11411.892279171843
877.5117537958522 11508.870269227424
878.4473805704911 11500.725679525949
879.3827735935283 11427.109917552441
880.3179329344603 11426.489149717963
881.2528586627541 11458.835266013126
882.1875508478479 11603.404357611305
883.1220095591489 11441.053803311286
884.0562348660296 11582.96924477581
884.9902268378391 11543.65943470704
885.9239855438955 11575.914260505331
886.8575110534839 11468.777588443425
887.7908034358588 11325.783177584508
888.7238627602474 11474.958142760897
889.6566890958475 11386.787931183539
890.5892825118208 11364.13552161546
891.5216430773125 11314.514037517281
892.4537708614189 11372.222615344528
893.3856659332196 11169.444756715715
894.3173283617652 11217.329791096392
895.2487582160684 11211.229486742975
896.179955565116 11257.369587343495
897.110920477864 11125.627428482027
898.0416530232451 11228.561916036113
898.9721532701478 11172.40018593046
899.9024212874428 11131.874838064872
900.8324571439662 11125.792092954427
901.7622609085302 11102.58270778033
902.6918326499072 11162.792924936564
903.6211724368477 11224.214536323114
904.5502803380696 11115.700997976186
905.4791564222614 11201.706382935647
906.4078007580792 11160.3409536891
907.3362134141571 11200.66474432527
908.2643944590909 11071.305656492712
909.1923439614493 11203.742851982166
910.1200619897754 11234.950405630192
911.0475486125779 11230.474512825058
911.9748038983344 11246.395074138327
912.9018279155007 11141.292058582794
913.8286207324982 11149.057777209475
914.7551824177117 11140.389855654534
915.6815130395116 11123.59736140552
916.6076126662283 11132.867773420072
917.533481366163 11128.723493306503
918.4591192075914 11071.823631460476
919.3845262587565 11134.81229192673
920.3097025878706 11042.11348104667
921.2346482631237 11042.3758657899
922.1593633526682 11098.792440914742
923.0838479246304 11017.064710514347
924.0081020471061 11097.423231552133
924.9321257881656 11013.778286631297
925.8559192158464 10974.33045985825
926.7794823981512 10929.51634285018
927.7028154030686 10968.035906533236
928.6259182985414 10807.823341925692
929.5487911524906 11003.46215610152
930.4714340328119 10884.8784590178
931.3938470073608 10887.723398942579
932.3160301439748 10883.783497762668
933.2379835104548 10938.899692558905
934.1597071745709 10933.076929926505
935.0812012040769 10904.00039576819
936.002465666681 10918.269518031075
936.9235006300696 11080.884191930876
937.8443061619055 10877.1641346295
938.7648823298077 10806.619478088442
939.6852292013809 10936.093670449924
940.6053468441951 10890.168927167542
941.5252353257874 10848.398426334981
942.4448947136698 10952.688535447553
943.364325075323 10879.646653393982
944.2835264782043 10935.73469461177
945.2024989897309 10853.448403692755
946.1212426773054 11003.618215362509
947.0397576082851 10967.202397563467
947.9580438500125 10941.902368835383
948.8761014697939 10885.028540317977
949.7939305349064 11090.014868070688
950.7115311125999 10966.553076047892
951.6289032700952 11030.384512770099
952.5460470745875 11048.590118057698
953.4629625932339 11095.119754434503
954.3796498931715 11094.3047114673
955.2961090415029 11036.53520279172
956.2123401053068 11036.155702753707
957.1283431516276 11038.083221902903
958.0441182474842 10968.110021036859
958.9596654598663 11067.885892623493
959.8749848557309 11053.217849521165
960.7900765020167 11000.863144400122
961.7049404656209 11001.933729465294
962.6195768134185 10978.463551148794
963.5339856122537 10988.62927332975
964.4481669289453 10912.527662549006
965.3621208302793 10767.904294027809
966.2758473830145 10931.304740409683
967.1893466538822 10875.787476676047
968.1026187095813 10939.170435858692
969.0156636167867 10803.335351351576
969.9284814421426 10880.127129556695
970.8410722522622 10683.702292593192
971.753436113735 10814.988793195957
972.6655730931161 10713.485385272525
973.5774832569368 10813.609647786474
974.4891666716958 10764.130219768494
975.4006234038698 10760.837633962585
976.3118535198955 10720.220695544487
977.2228570861935 10739.150260234845
978.1336341691494 10757.810761369177
979.0441848351202 10659.832282697744
979.9545091504333 10790.096823183929
980.864607181391 10749.672546360722
981.7744789942699 10720.822121905852
982.6841246553086 10764.429529509925
983.5935442307236 10665.295084171355
984.5027377867027 10668.520043953538
985.4117053894024 10679.89648746092
986.3204471049557 10626.461325486744
987.2289629994648 10755.149401808942
988.1372531390007 10740.459176409408
989.0453175896091 10789.591066436175
989.9531564173067 10729.766490824712
990.860769688079 10607.820742332891
991.7681574678918 10738.340169248208
992.6753198226706 10701.9050707115
993.582256818323 10667.724387916574
994.4889685207218 10760.501066169189
995.3954549957143 10835.371876889829
996.301716309119 10725.12411866946
997.2077525267232 10730.80998079309
998.1135637142943 10673.597164902352
999.0191499375615 10701.204989068463
999.924511262232 10591.567301671355
1000.8296477539861 10760.561214297628
1001.7345594784656 10606.595080924886
1002.6392465012996 10688.515140237969
1003.5437088880753 10621.591427795141
1004.4479467043584 10614.896355407982
1005.3519600156869 10529.018482755308
1006.2557488875718 10610.065654671724
1007.1593133854858 10517.169822202351
1008.0626535748888 10529.099016325441
1008.9657695212009 10408.068462046347
1009.8686612898182 10550.48573387962
1010.7713289461135 10417.82152570266
1011.6737725554212 10502.023362675081
1012.5759921830577 10417.31419171409
1013.4779878943027 10535.881436963053
1014.379759754418 10396.572942388104
1015.2813078286254 10361.290089958453
1016.18263218213 10448.329888905195
1017.0837328801026 10360.478610404502
1017.9846099876886 10360.016385795034
1018.8852635700023 10290.309239920754
1019.7856936921362 10297.956261706637
1020.6859004191447 10311.540723095894
1021.5858838160675 10362.321942050143
1022.4856439479063 10269.227325627102
1023.3851808796389 10330.828286344527
1024.2844946762143 10417.132829213433
1025.183585402554 10288.13049272365
1026.082453123554 10185.19021947588
1026.9810979040776 10177.94270785355
1027.8795198089647 10293.966953626757
1028.777718903024 10284.298318394147
1029.6756952510368 10243.960494823625
1030.5734489177648 10181.032700662427
1031.4709799679313 10308.484730605758
1032.3682884662358 10320.53949317631
1033.2653744773506 10321.719861177198
1034.1622380659192 10301.963022725113
1035.058879296559 10493.799917179314
1035.9552982338591 10332.834769457546
1036.8514949423825 10607.13219333285
1037.7474694866614 10588.593285149987
1038.6432219312028 10593.84463204368
1039.5387523404825 10645.774420759504
1040.4340607789582 10814.312182065447
1041.3291473110476 10818.31144701064
1042.2240120011465 11023.314082797564
1043.1186549136273 11189.053661101498
1044.0130761128294 11121.620902819357
1044.9072756630649 11182.51607546615
1045.8012536286205 11302.296938429445
1046.6950100737577 11228.891592817725
1047.588545062701 11626.774628532612
1048.481858659663 11502.49802520578
1049.3749509288118 11547.072708396126
1050.2678219343034 11508.638024974329
1051.1604717402515 11505.614219965431
1052.0529004107575 11428.007120941309
1052.9451080098825 11527.696972661979
1053.8370946016694 11366.550921555528
1054.7288602501267 11355.576323317224
1055.6204050192446 11285.026485919536
1056.511728972977 11312.924975728962
1057.402832175254 11179.706793609359
1058.2937146899785 11075.052657002223
1059.1843765810263 10890.230117972034
1060.0748179122456 11002.301773097166
1060.9650387474576 10908.698275822779
1061.855039150456 10860.784003261106
1062.7448191850071 10722.59227842501
1063.6343789148505 10647.939749509585
1064.5237184037014 10649.570335058674
1065.412837715241 10612.459265103269
1066.3017369131267 10362.075417394006
1067.190416060992 10430.867641964107
1068.0788752224398 10379.721278928833
1068.9671144610438 10406.000254404194
1069.8551338403558 10219.674976687847
1070.7429334239023 10361.035218571471
1071.6305132751695 10179.734792270854
1072.517873457633 10277.437303643916
1073.4050140347335 10164.245401749316
1074.2919350698776 10272.048367353953
1075.1786366264623 10193.160556489309
1076.0651187678395 10271.5485777119
1076.95138155735 10144.981162696944
1077.8374250582929 10219.648298393551
1078.7232493339507 10164.643597255332
1079.608854447577 10173.769529216543
1080.4942404623907 10260.81314659558
1081.3794074415982 10385.84185730816
1082.2643554483657 10381.45542995985
1083.149084545841 10381.300401189006
1084.033594797138 10185.550445674158
1084.9178862653516 10445.285417410525
1085.8019590135427 10422.764837311353
1086.6858131047484 10369.170065795195
1087.5694486019802 10445.102804006054
1088.4528655682225 10571.950320971615
1089.3360640664287 10470.266133967261
1090.2190441595321 10623.228480603093
1091.1018059104317 10706.250960583264
1091.98434938201 10739.333958934352
1092.866674637111 10618.957664446289
1093.748781738559 10732.12438773935
1094.6306707491512 10549.338968349555
1095.5123417316554 10651.159768593181
1096.3937947488157 10583.980669153205
1097.2750298633455 10717.778231593744
1098.156047137938 10580.880636124502
1099.0368466352556 10593.33928348871
1099.9174284179317 10530.358433584574
1100.7977925485757 10492.305134913377
1101.6779390897755 10343.545866071416
1102.5578681040806 10388.993213098136
1103.4375796540226 10440.424201674929
1104.3170738021054 10281.319135603133
1105.1963506108077 10248.20821873359
1106.0754101425773 10082.633462587253
1106.9542524598382 10042.991336324754
1107.8328776249855 10018.003560907917
1108.7112857003904 9979.701320744607
1109.5894767483987 9882.340493014704
1110.4674508313292 9845.889312090008
1111.3452080114657 9880.29427282982
1112.2227483510815 9821.19637991749
1113.1000719124077 9863.860154220642
1113.9771787576592 9655.856623744947
1114.854068949022 9757.60770076251
1115.7307425486542 9755.814580057708
1116.6071996186893 9688.103916177124
1117.483440221229 9641.764557840372
1118.3594644183577 9832.141138476189
1119.235272272128 9722.421458401393
1120.1108638445658 9684.114447293263
1120.9862391976712 9792.56139057217
1121.8613983934229 9889.046965889296
1122.7363414937627 9870.019067226998
1123.6110685606182 9940.860832558976
1124.485579655884 9774.241803881097
1125.359874841426 9927.359191559914
1126.2339541790916 9920.499809072238
1127.1078177306936 9988.387138168113
1127.9814655580267 9803.844093845772
1128.854897722851 9877.275457188045
1129.7281142869106 9861.294797644076
1130.6011153119125 10008.437611402409
1131.473900859548 9980.642315743957
1132.3464709914697 9818.473761817477
1133.2188257693178 9854.181846031237
1134.0909652546961 9831.072445124717
1134.96288950919 9669.519517918645
1135.8345985943506 9828.143734031863
1136.7060925717087 9668.039234219426
1137.57737150277 9667.649517988972
1138.4484354490069 9580.500160393394
1139.3192844718778 9560.10957855006
1140.1899186327992 9427.449114214582
1141.060337993178 9588.20499494643
1141.930542614382 9400.831329540713
1142.8005325577597 9473.141682320585
1143.670307884635 9306.657919443314
1144.5398686563003 9375.528913216836
1145.409214934025 9348.28023204437
1146.2783467790541 9267.501953625626
1147.1472642526023 9302.85683722551
1148.0159674158622 9334.446110653542
1148.8844563300026 9116.818332228337
1149.7527310561618 9208.53447662097
1150.6207916554504 9259.199439297287
1151.4886381889592 9176.781671008674
1152.3562707177498 9101.67178887118
1153.2236893028585 9217.14380729503
1154.090894005296 9168.900419145499
1154.9578848860474 9158.44998472798
1155.8246620060709 9129.044820330402
1156.6912254262988 9218.087080438205
1157.5575752076438 9109.057274667217
1158.42371141098 9119.197391245521
1159.2896340971656 9140.240402022802
1160.1553433270346 9162.997564251242
1161.0208391613887 9124.427305363843
1161.8861216610057 9071.868327741466
1162.75119088664 9083.839556092076
1163.6160468990201 9201.087161890946
1164.4806897588442 9061.127173772693
1165.3451195267917 9067.248790191907
1166.2093362635114 9049.166111046085
1167.0733400296285 9192.358245668984
1167.9371308857444 9040.685957809677
1168.8007088924278 9172.911868625462
1169.6640741102328 9005.540630296691
1170.5272265996773 9084.100698077245
1171.390166421259 8932.32152925956
1172.252893635452 9097.03236870388
1173.1154083026995 9040.717159132771
1173.977710483421 9170.347622455673
1174.8398002380145 8994.272373751784
1175.7016776268483 9053.397244693548
1176.563342710264 9050.787898490084
1177.4247955485826 9027.664502201224
1178.2860362020947 8913.817374032014
1179.147064731069 9029.783037895588
1180.0078811957483 9058.614422454837
1180.8684856563486 9066.61814603375
1181.7288781730604 9008.055956401986
1182.589058806052 9057.749142993851
1183.4490276154593 9068.629466689967
1184.3087846614017 9090.080358495763
1185.1683300039676 9044.31702211531
1186.027663703222 9173.96743617413
1186.8867858192025 9029.561168691962
1187.7456964119228 9219.065178370935
1188.6043955413716 9152.23501440293
1189.4628832675116 9155.366141826027
1190.3211596502842 9099.044437969966
1191.179224749596 9207.394788225272
1192.0370786253388 9195.8833866344
1192.8947213373758 9178.519884202873
1193.7521529455407 9211.010664218375
1194.6093735096438 9177.784824598142
1195.466383089477 9154.61436286067
1196.3231817447977 9138.011277551388
1197.1797695353398 9175.585358586435
1198.0361465208189 9198.37842087388
1198.8923127609214 9056.726213745998
1199.7482683153048 9269.972419671301
1200.6040132436028 9175.920666342596
1201.459547605431 9081.75042560077
1202.3148714603722 9022.450958796173
1203.1699848679855 9129.885219776213
1204.0248878878065 9099.53041309943
1204.8795805793507 9042.817402384946
1205.7340630020935 9083.017705674964
1206.5883352155033 9148.495803548998
1207.4423972790064 9048.753077527694
1208.2962492520237 9060.424384662385
1209.1498911939307 9120.069232289137
1210.0033231640937 9079.305706902294
1210.8565452218427 8853.344294702943
1211.7095574264913 8945.246060682535
1212.5623598373222 8933.700708485667
1213.4149525135963 8888.459608999217
1214.2673355145507 8824.59109367014
1215.1195088993936 8922.651341166933
1215.9714727273113 8819.19822335901
1216.8232270574663 9042.300933647359
1217.6747719489904 8801.326097396679
1218.5261074609934 8867.931871067236
1219.3772336525653 8825.994567870393
1220.2281505827668 8903.686079178618
1221.0788583106296 8778.860812169147
1221.9293568951707 8829.166136979442
1222.7796463953746 8687.380819096301
1223.629726870202 8855.544244390772
1224.4795983785934 8685.444863529618
1225.3292609794553 8704.893233609466
1226.1787147316809 8778.470837740782
1227.0279596941327 8742.42466415814
1227.8769959256424 8604.419581151054
1228.7258234850306 8803.502379426698
1229.5744424310833 8584.632618512029
1230.422852822563 8675.712451397052
1231.2710547182105 8631.500189636874
1232.119048176739 8669.984040901898
1232.9668332568417 8548.770159665732
1233.8144100171812 8610.995993826062
1234.6617785163999 8664.845150477846
1235.508938813111 8604.392552398947
1236.3558909659114 8583.46257542313
1237.2026350333617 8629.933885812256
1238.049171074008 8558.784342191455
1238.8954991463652 8476.249152250097
1239.741619308932 8441.087584922016
1240.587531620169 8443.275615785387
1241.4332361385277 8517.49744926615
1242.2787329224248 8546.012928987864
1243.1240220302534 8426.121694700772
1243.9691035203869 8496.932751164053
1244.813977451171 8609.293039073333
1245.6586438809263 8515.377516520142
1246.5031028679496 8496.957725622404
1247.3473544705157 8580.131527001362
1248.1913987468706 8541.36595871177
1249.0352357552383 8513.95241268312
1249.8788655538228 8535.447605426412
1250.7222882007918 8675.771061073583
1251.565503754302 8664.85873223031
1252.4085122724755 8606.902411628198
1253.2513138134182 8643.117341006458
1254.0939084352049 8683.447871194261
1254.9362961958905 8598.085588137563
1255.7784771535007 8732.616934012727
1256.6204513660432 8710.734712186248
1257.4622188915 8749.984221188795
1258.3037797878242 8741.30612743446
1259.1451341129468 8678.351863020393
1259.9862819247755 8836.221976816661
1260.8272232811978 8794.438895417132
1261.6679582400666 8665.82561011973
1262.5084868592203 8684.753721114863
1263.34880919647 8758.931575874894
1264.1889253095997 8783.712367770979
1265.0288352563712 8629.140095119048
1265.8685390945266 8675.596737706674
1266.7080368817751 8737.627053610135
1267.5473286758115 8791.446298427665
1268.386414534294 8746.454924356296
1269.2252945148703 8720.415918282351
1270.0639686751547 8724.583824234192
1270.9024370727402 8603.589723189998
1271.7406997651997 8745.771285151362
1272.5787568100714 8688.881727513446
1273.4166082648808 8607.875277222522
1274.2542541871244 8608.810369818491
1275.091694634275 8719.737722785656
1275.9289296637817 8651.459151579696
1276.7659593330663 8608.977120826527
1277.6027836995308 8664.470164049544
1278.4394028205552 8668.315594447213
1279.2758167534867 8606.92138725328
1280.112025555658 8652.34997870868
1280.9480292843746 8654.060622518486
1281.7838279969128 8487.141440687768
1282.6194217505326 8613.555418256852
1283.4548106024686 8456.008862219314
1284.289994609926 8634.305133708982
1285.1249738300921 8572.677809668969
1285.959748320127 8525.219399424714
1286.7943181371702 8581.373687923899
1287.6286833383328 8615.757418767442
1288.4628439807038 8546.501670996211
1289.2968001213521 8668.169495333092
1290.1305518173194 8565.872325736676
1290.9640991256183 8698.382130345391
1291.7974421032523 8687.535504863337
1292.630580807183 8640.633495664404
1293.463515294361 8666.393233879633
1294.29624562171 8828.621219165154
1295.12877184613 8776.103707405464
1295.961094024493 8786.16000450178
1296.79321221365 8681.089638877178
1297.6251264704333 8879.975505337277
1298.4568368516466 8897.04757905197
1299.2883434140658 8894.867482672886
1300.1196462144526 8928.91203488119
1300.9507453095375 8969.04744192418
1301.7816407560313 9056.526268893349
1302.6123326106172 9007.952359615643
1303.4428209299622 9017.057232710935
1304.2731057707024 9214.518235318403
1305.1031871894502 9066.659518300103
1305.933065242798 9023.759481204448
1306.7627399873181 9110.051798133469
1307.5922114795467 9130.8233488512
1308.4214797760123 9071.3491497468
1309.2505449332057 9109.224548438913
1310.0794070076026 9121.362579324705
1310.9080660556538 9201.5154891206
1311.736522133786 9130.859727509847
1312.5647752983987 9078.955820078656
1313.3928256058734 9140.967828169389
1314.2206731125661 9199.941394501535
1315.048317874809 9181.369975052192
1315.8757599489109 9233.878812756002
1316.7029993911547 9211.324941802037
1317.5300362578055 9403.85932709622
1318.356870605101 9343.188518917883
1319.183502489257 9453.457813952333
1320.0099319664623 9371.308676808068
1320.836159092889 9546.538038975174
1321.66218392468 9282.428760421903
1322.4880065179532 9400.12392914013
1323.3136269288134 9426.896842734704
1324.1390452133292 9492.557277251524
1324.9642614275563 9441.472760691686
1325.7892756275214 9462.58336909828
1326.6140878692295 9338.368849605262
1327.4386982086617 9421.261532439528
1328.2631067017755 9252.772273640756
1329.0873134045069 9388.073792150777
1329.911318372764 9287.362570368172
1330.735121662441 9342.087290529022
1331.558723329399 9260.26107510382
1332.3821234294774 9106.754809371834
1333.2053220185007 9103.056263148466
1334.0283191522612 9035.132037739893
1334.851114886529 8924.039460643213
1335.6737092770582 8805.73933582842
1336.4961023795695 8760.962224090743
1337.3182942497697 8754.438747894315
1338.1402849433325 8699.774913222122
1338.962074515921 8654.045417659592
1339.7836630231632 8572.886043322484
1340.6050505206676 8590.785736927975
1341.426237064028 8515.36585432787
1342.2472227088037 8455.356429968273
1343.0680075105338 8352.867232578528
1343.888591524741 8490.772376449188
1344.7089748069138 8317.173338608536
1345.5291574125276 8387.344972446674
1346.3491393970307 8196.24689189823
1347.168920815846 8370.173754397947
1347.9885017243778 8188.017318756471
1348.8078821780036 8249.773423819073
1349.6270622320844 8069.1168983889
1350.4460419419447 8050.494767139326
1351.2648213629054 7912.485689929468
1352.0834005502438 8023.939624540821
1352.90177955923 7990.096857798909
1353.7199584451064 7974.600599854789
1354.5379372630887 8032.925448759137
1355.355716068374 7991.200701351401
1356.1732949161305 7924.564714842677
1356.9906738615155 7999.482537542785
1357.8078529596478 7996.181987604566
1358.6248322656375 8035.641190043416
1359.441611834567 7866.904428796876
1360.2581917214866 7965.055107530103
1361.0745719814367 7824.564736110484
1361.890752669433 7881.834281971018
1362.7067338404577 7820.9856438973675
1363.5225155494845 7744.5247990668795
1364.3380978514506 7868.9383536285195
1365.1534808012839 7779.208165510478
1365.9686644538815 7620.311529502156
1366.783648864117 7818.435078758639
1367.5984340868417 7882.56312342317
1368.413020176893 7793.245868542474
1369.2274071890715 7740.131066824925
1370.0415951781652 7709.469362125778
1370.8555841989346 7780.487051079108
1371.6693743061223 7618.300669495731
1372.48296555444 7559.438175010919
1373.2963579985844 7689.389256705018
1374.1095516932255 7698.998286288386
1374.9225466930166 7629.703922171748
1375.7353430525782 7586.53409921651
1376.5479408265164 7676.289729726978
1377.36034006941 7559.017856073685
1378.1725408358216 7597.164000636674
1378.9845431802805 7574.964779787627
1379.796347157304 7653.320781484598
1380.6079528213813 7649.324723747498
1381.4193602269788 7626.024923998816
1382.230569428546 7544.2572091993225
1383.0415804805016 7473.114743628981
1383.852393437246 7495.755452623822
1384.6630083531563 7634.938591757709
1385.4734252825892 7493.801846506755
1386.2836442798798 7685.1451995664265
1387.0936653993322 7575.3950398956895
1387.9034886952395 7666.632522993275
1388.713114221864 7616.194769431281
1389.5225420334482 7500.935069550766
1390.331772184214 7639.24154964543
1391.1408047283585 7499.36417242239
1391.9496397200564 7647.801059185635
1392.758277213461 7735.823484623397
1393.5667172627054 7553.325570528386
1394.3749599218918 7651.366153597051
1395.1830052451114 7589.4215985152205
1395.9908532864265 7577.587580370733
1396.7985040998774 7545.6622443395245
1397.6059577394808 7663.52324486623
1398.4132142592352 7503.969785432084
1399.2202737131156 7641.066129936335
1400.027136155073 7599.924843342272
1400.8338016390353 7619.384488588131
1401.6402702189134 7500.2395748701965
1402.446541948586 7515.716318573463
1403.2526168819204 7478.2890789731055
1404.058495072757 7491.518053043148
1404.8641765749107 7491.142735859615
1405.6696614421799 7539.491248884327
1406.4749497283356 7602.109156181532
1407.280041487129 7454.147790387176
1408.084936772295 7310.573325766423
1408.8896356375335 7439.793661407255
1409.6941381365323 7370.554028430687
1410.498444322955 7393.728569605633
1411.3025542504402 7417.060065363304
1412.106467972606 7443.900458220936
1412.9101855430508 7421.560631990047
1413.7137070153458 7424.592714739975
1414.5170324430437 7344.013982277174
1415.320161879672 7572.142053316018
1416.1230953787435 7495.632458963145
1416.925832993742 7406.557186791819
1417.7283747781275 7445.1281174801425
1418.5307207853439 7356.412816529005
1419.3328710688093 7350.448212262636
1420.134825681922 7350.681161340678
1420.9365846780584 7248.124189880029
1421.7381481105713 7572.350185118291
1422.539516032788 7402.368469693463
1423.3406884980232 7420.8418878670955
1424.1416655595604 7381.7314053696
1424.942447270665 7403.351322942394
1425.7430336845828 7543.769910068762
1426.5434248545298 7530.804923473828
1427.3436208337116 7504.230223631412
1428.143621675301 7742.12422568351
1428.9434274324558 7676.292424815551
1429.7430381583108 7707.319247065806
1430.5424539059713 7696.931679747499
1431.3416747285337 7991.170650477742
1432.1407006790632 7778.158182413458
1432.9395318106053 7873.273320540296
1433.7381681761835 7865.917569627059
1434.5366098288014 7971.202125217433
1435.3348568214424 7864.045724344226
1436.1329092070573 7898.345031976964
1436.9307670385879 8024.798368982464
1437.7284303689503 8073.255678142642
1438.5258992510335 8079.9298561233445
1439.3231737377118 8119.800368685392
1440.1202538818306 8061.750576535816
1440.9171397362225 7971.494800744937
1441.7138313536925 7868.204433433246
1442.5103287870243 7951.845504376062
1443.3066320889775 7906.694939848884
1444.1027413122956 7965.308193176386
1444.8986565096966 7806.430334801861
1445.694377733882 7897.687008226121
1446.4899050375207 7678.049669170074
1447.2852384732687 7622.233473440821
1448.0803780937622 7647.463133429495
1448.8753239516063 7709.16396863151
1449.6700760993954 7413.430632939581
1450.464634589689 7637.413055747973
1451.2589994750397 7602.30830583802
1452.0531708079689 7393.47504346329
1452.8471486409799 7370.5950840951755
1453.6409330265524 7403.598359718921
1454.4345240171442 7225.097663101721
1455.2279216651987 7311.130999491664
1456.0211260231263 7288.5455674337645
1456.8141371433194 7202.320791399204
1457.6069550781594 7179.217318394318
1458.3995798799897 7226.344629288918
1459.1920116011424 7094.8609568700995
1459.98425029393 7108.362922712453
1460.7762960106338 7072.39766345395
1461.5681488035225 7119.433173285262
1462.3598087248392 7087.789987321837
1463.1512758268036 7044.319921209094
1463.942550161617 6871.300526871159
1464.7336317814625 7054.352940971987
1465.524520738496 6938.846062746745
1466.3152170848552 6973.865811388862
1467.1057208726506 6881.505365100436
1467.8960321539817 6774.873779920725
1468.6861509809169 6735.155633879692
1469.4760774055085 6737.222021659579
1470.265811479785 6598.928161096868
1471.055353255755 6573.879889466906
1471.844702785409 6563.288659413016
1472.6338601207044 6580.250655775174
1473.4228253135934 6639.090419878607
1474.2115984159936 6550.406325554766
1475.0001794798063 6398.037949252177
1475.7885685569145 6526.914432646427
1476.576765699172 6475.09479322824
1477.3647709584238 6466.302973513723
1478.1525843864802 6412.042745376693
1478.9402060351367 6401.666785573632
1479.7276359561693 6321.299946545532
1480.514874201328 6439.39885914861
1481.3019208223468 6364.784897857966
1482.0887758709323 6185.940067881131
1482.8754393987747 6336.6955744015
1483.6619114575406 6365.838706144313
1484.4481920988783 6275.62400118647
1485.2342813744108 6244.116886442744
1486.0201793357446 6202.693942786565
1486.8058860344572 6164.96856093966
1487.591401522117 6224.637364527004
1488.3767258502594 6228.128642580374
1489.1618590704056 6166.957606244401
1489.9468012340494 6112.880366785251
1490.7315523926754 6161.564336167417
1491.5161125977356 6250.102933832476
1492.3004819006637 6254.664839051728
1493.084660352877 6255.519663574085
1493.8686480057622 6199.634501116101
1494.6524449106964 6243.824773217958
1495.4360511190262 6286.226307081894
1496.219466682087 6331.666370348854
1497.0026916511779 6267.785509217267
1497.7857260775945 6222.960717961941
1498.5685700125996 6239.091462178405
1499.3512235074395 6214.558572842137
1500.133686613337 6186.448874873117
1500.9159593814966 6226.746849934829
1501.698041863101 6290.664578818465
1502.4799341093094 6232.537758063241
1503.2616361712662 6178.848293384041
1504.043148100087 6119.46699510301
1504.8244699468742 6202.914662360012
1505.6056017626997 6221.276507310605
1506.3865435986281 6153.234606624561
1507.1672955056893 6143.243215703817
1507.9478575348967 6134.58384067841
1508.7282297372512 6310.295217431571
1509.5084121637192 6173.284373839217
1510.2884048652577 6125.298393329236
1511.0682078927948 6104.526521788348
1511.8478212972423 6207.446521924477
1512.6272451294917 6120.361556417262
1513.4064794404076 6271.863687100673
1514.1855242808433 6095.415430781725
1514.9643797016215 6274.7655340679685
1515.743045753552 6178.649591515159
1516.5215224874191 6075.890611402609
1517.2998099539836 6099.3346071559
1518.077908203999 6107.4049613244815
1518.8558172881785 6163.485908699637
1519.633537257234 6293.254628135117
1520.4110681618404 6065.941428221834
1521.1884100526604 6263.01070733329
1521.9655629803365 6258.80104535345
1522.7425269954856 6315.14764851915
1523.5193021487103 6312.122202606972
1524.2958884905856 6242.809194432275
1525.0722860716687 6265.84029576361
1525.848494942502 6157.498295824777
1526.624515153595 6142.829864187816
1527.4003467554485 6289.673581482639
1528.175989798534 6237.467554505463
1528.9514443333064 6180.827154069212
1529.726710410203 6304.429732462735
1530.5017880796331 6263.646067605119
1531.276677391992 6148.705075530599
1532.0513783976457 6285.1896253064015
1532.825891146953 6229.712856870077
1533.6002156902414 6259.2725908787625
1534.3743520778207 6173.862553873773
1535.1483003599806 6147.741216388725
1535.9220605869923 5980.686033672624
1536.6956328091019 6175.234757329972
1537.4690170765407 6073.655970051494
1538.242213439511 6147.753000190782
1539.015221948208 6109.933244155605
1539.78804265279 6161.6332298388115
1540.560675603405 5929.364231079396
1541.3331208501804 6054.8054727273875
1542.1053784432224 6145.246400216693
1542.8774484326168 6084.109933704139
1543.649330868422 6109.918457784519
1544.4210258006842 6015.919898159495
1545.1925332794308 6129.799650302918
1545.9638533546604 6169.231425604398
1546.7349860763552 6017.883857813548
1547.5059314944829 6105.749521545999
1548.27668965898 5985.575077215528
1549.0472606197673 6086.002388612021
1549.817644426752 5970.80718307656
1550.5878411298072 6007.941608418966
1551.3578507787988 5976.477416727011
1552.1276734235635 6111.011347210633
1552.8973091139233 6076.980259986322
1553.6667578996767 6136.19976002395
1554.436019830604 6117.263611842604
1555.20509495646 5936.477954653382
1555.9739833269869 5935.890807233979
1556.7426849919011 5946.950774560167
1557.511200000903 5980.998375916142
1558.2795284036674 6061.5830017288745
1559.0476702498509 5972.146468881768
1559.8156255890954 6105.20675938077
1560.5833944710157 6232.93098749888
1561.3509769452048 6117.989317069538
1562.1183730612447 6047.26535285676
1562.8855828686865 6060.30435711676
1563.6526064170703 6087.21154097151
1564.4194437559127 6129.209683068689
1565.1860949347047 6191.272895593518
1565.9525600029283 6137.209626177317
1566.7188390100328 6274.098207882163
1567.4849320054564 6086.409473205747
1568.250839038612 6078.032827532
1569.0165601588997 6146.852021667588
1569.7820954156887 6056.215917853064
1570.5474448583373 6096.778685725947
1571.31260853618 6059.4053151994685
1572.0775864985299 5979.461810240348
1572.8423787946813 6084.237825501705
1573.6069854739108 6288.6765745461125
1574.371406585471 6260.5245260424
1575.1356421785986 6272.9480321621395
1575.899692302506 6089.031655661706
1576.6635570063845 6321.278745409377
1577.4272363394157 6234.064837232329
1578.190730350747 6139.86478847978
1578.9540390895163 6102.645044063094
1579.7171626048384 6090.47688696599
1580.480100945806 5998.355147155764
1581.2428541614918 6052.628194455276
1582.0054223009538 5988.760476064467
1582.767805413223 6072.219824251331
1583.5300035473156 6081.947326957954
1584.292016752228 6063.056042163051
1585.0538450769309 6013.722186015677
1585.8154885703807 6131.801707838249
1586.5769472815136 5936.262194436444
1587.3382212592405 6203.32607713604
1588.099310552463 6142.281561851889
1588.8602152100484 6066.8300129952595
1589.6209352808564 6032.6932464605
1590.3814708137234 5851.370885854457
1591.14182185746 5805.249978340996
1591.9019884608679 5832.064823802027
1592.6619706727215 5725.864258879976
1593.4217685417734 5971.285948094101
1594.1813821167616 5808.881974275572
1594.9408114464022 5729.330998413943
1595.7000565793933 5845.695425479432
1596.459117564409 5948.345682810859
1597.2179944501113 5681.766429142231
1597.9766872851324 5668.298968233869
1598.735196118092 5822.477096634965
1599.4935209975883 5812.296847210994
1600.2516619721973 5748.745176799874
1601.0096190904787 5770.256269530364
1601.7673924009723 5732.17834155345
1602.524981952196 5721.248680953
1603.2823877926476 5579.092682151398
1604.0396099708087 5564.2058799153765
1604.7966485351371 5428.421708840142
1605.5535035340745 5664.108548874649
1606.3101750160404 5682.443568441388
1607.0666630294363 5716.671293075225
1607.822967622642 5482.337320289158
1608.5790888440224 5411.263707383486
1609.3350267419137 5559.146553501786
1610.0907813646445 5562.387796217328
1610.8463527605145 5596.737172386915
1611.601740977805 5517.057999618002
1612.356946064785 5588.466716771381
1613.1119680696902 5443.566026745183
1613.8668070407512 5441.3281425609475
1614.6214630261748 5450.572001557959
1615.375936074137 5463.196259596772
1616.1302262328118 5436.85938489318
1616.8843335503425 5430.474216905433
1617.638258074854 5303.7746584941315
1618.391999854457 5419.19210499521
1619.1455589372363 5572.995313663968
1619.8989353712623 5534.414796255462
1620.65212920458 5341.816030431559
1621.4051404852235 5405.857468695392
1622.1579692611976 5309.315287034163
1622.9106155804966 5407.923342970532
1623.663079491087 5259.297668790263
1624.4153610409248 5520.1479355297315
1625.1674602779385 5385.512628409431
1625.9193772500403 5407.166828367601
1626.6711120051277 5330.936823249981
1627.4226645910676 5337.865164676818
1628.174035055721 5362.43852997269
1628.9252234469168 5378.380765310483
1629.676229812474 5374.381246155529
1630.4270542001905 5400.889459992238
1631.1776966578382 5382.132700282661
1631.9281572331747 5258.376912432711
1632.678435973945 5384.324536489923
1633.4285329278573 5175.278336017597
1634.1784481426203 5221.387702983002
1634.9281816659113 5266.880860170859
1635.677733545388 5323.308601590042
1636.4271038286934 5169.635149707851
1637.176292563452 5250.080603224044
1637.9252997972635 5309.0309000756215
1638.674125577716 5325.309553068047
1639.4227699523672 5198.884076530864
1640.171232968767 5219.163636192793
1640.9195146744423 5307.51454505916
1641.6676151168977 5403.517591152511
1642.4155343436178 5229.240390105345
1643.1632724020765 5226.195779580493
1643.9108293397167 5286.610887262433
1644.658205203974 5261.762828049567
1645.4054000422566 5475.541052781668
1646.1524139019566 5171.109741065843
1646.8992468304423 5254.577742263527
1647.6458988750728 5270.379955655908
1648.3923700831765 5380.9048133166725
1649.1386605020743 5247.278098126145
1649.8847701790564 5213.467252623022
1650.6306991614038 5341.254582114625
1651.3764474963682 5172.777803857576
1652.1220152311944 5039.096173887032
1652.867402413096 5368.631054771277
1653.6126090892776 5264.583188463223
1654.3576353069184 5335.51989931441
1655.1024811131829 5225.265640389584
1655.8471465552066 5326.550200259199
1656.5916316801213 5357.2451709403485
1657.3359365350298 5354.864883661061
1658.0800611670165 5188.771919368033
1658.824005623148 5117.723253589952
1659.5677699504722 5179.770985276597
1660.3113541960192 5243.5492783330255
1661.054758406799 5207.134205226126
1661.7979826297997 5144.49318243213
1662.5410269119966 5161.034869499535
1663.283891300338 4989.19309279496
1664.0265758417645 5216.017610730488
1664.7690805831826 5117.422812986786
1665.5114055714948 5120.12624394138
1666.2535508535748 5257.673594259609
1666.9955164762814 4969.277580234312
1667.7373024864555 5094.79374827101
1668.478908930916 5081.002710640506
1669.220335856462 4995.096464023652
1669.9615833098778 5177.445737896915
1670.7026513379296 5105.337997165352
1671.44353998736 5095.081176362939
1672.1842493048916 4914.841727643218
1672.9247793372379 5062.455375686516
1673.6651301310812 4998.956664179628
1674.4053017330934 5005.035843629256
1675.1452941899242 5002.900347722428
1675.885107548207 4744.863364914948
1676.6247418545518 4809.920785988956
1677.3641971555535 4891.435986558807
1678.1034734977893 4913.963280026725
1678.8425709278108 5025.9154261234
1679.5814894921605 4994.680831352195
1680.320229237359 4828.600657192508
1681.0587902098978 4944.121676820019
1681.7971724562685 4994.829017001296
1682.5353760229264 4794.747067097573
1683.2734009563173 4817.168594506298
1684.0112473028657 4668.650947643795
1684.7489151089794 4823.222821993951
1685.4864044210462 4841.602539560345
1686.2237152854377 4745.2983083778845
1686.960847748498 4725.060100255414
1687.6978018565642 4803.509496940425
1688.434577655944 4712.0350082231525
1689.1711751929379 4663.3593265332
1689.9075945138156 4646.615066009528
1690.6438356648396 4746.806334820366
1691.3798986922448 4539.416668145963
1692.1157836422499 4726.7101330698915
1692.851490561059 4689.62027064697
1693.587019494853 4656.476693547887
1694.3223704897991 4501.853942498286
1695.0575435920364 4545.997270765593
1695.792538847696 4642.53131130106
1696.527356302886 4633.094576500247
1697.2619960036936 4451.824093147685
1697.9964579961907 4466.4239481598315
1698.730742326432 4335.537530408632
1699.4648490404488 4376.6392626645265
1700.1987781842563 4477.937860373984
1700.9325298038548 4372.04587201249
1701.6661039452174 4524.973558148568
1702.3995006543082 4590.917120909149
1703.1327199770658 4591.047671069926
1703.865761959416 4434.157893915079
1704.598626647261 4369.180129034323
1705.3313140864866 4435.336328505318
1706.0638243229587 4241.012127091295
1706.7961574025303 4350.904969814017
1707.528313371029 4305.990424881323
1708.260292274268 4191.411413794709
1708.9920941580403 4355.746733138839
1709.7237190681226 4326.97494054152
1710.4551670502697 4301.566574966204
1711.18643815022 4235.929773349053
1711.9175324136959 4433.154323816753
1712.6484498863938 4265.976896808535
1713.379190614005 4131.462779329069
1714.109754642188 4269.487453624211
1714.8401420165883 4296.623802387354
1715.570352782839 4752.368794585862
1716.3003869865497 4162.764886120576
1717.0302446733076 4233.6192379673075
1717.7599258886876 4172.585549163451
1718.4894306782444 4254.627402552824
1719.2187590875183 4067.857153490161
1719.9479111620203 4307.52785699376
1720.6768869472544 4160.809822264371
1721.4056864887025 4151.647059592743
1722.1343098318284 4129.010053108936
1722.8627570220742 4245.114201954506
1723.591028104871 4058.085304222702
1724.3191231256242 4048.6800895351507
1725.0470421297232 4065.344701804849
1725.7747851625427 4134.412533411341
1726.5023522694337 4082.768772904879
1727.2297434957363 4172.3977113996825
1727.9569588867635 3689.102278223864
1728.6839984878152 4095.1259777727464
1729.4108623441734 3963.0510449706358
1730.1375505011038 4004.846910932754
1730.8640630038426 4088.028021443236
1731.5903998976264 3981.361157954344
1732.316561227657 4111.194840721874
1733.0425470391274 4012.06570420531
1733.7683573772065 4043.4315227755824
1734.4939922870508 4020.2025352361416
1735.2194518137949 4098.722911238059
1735.9447360025606 3934.287239069736
1736.669844898439 4026.852913414662
1737.3947785465189 4010.181401916456
1738.1195369918605 3771.649908037548
1738.8441202795093 3984.1172380073017
1739.5685284544943 4106.343500597632
1740.292761561821 4081.5292822528963
1741.0168196464838 4025.852519868714
1741.7407027534518 4015.237180980883
1742.464410927687 3822.1362212747795
1743.187944214118 4178.270432696293
1743.9113026576688 3946.196165656437
1744.634486303241 3926.884464596431
1745.3574951957125 4008.557476350642
1746.0803293799509 4079.8591639176584
1746.8029889008048 3966.6098655993474
1747.5254738031017 3811.6483769861416
1748.2477841316504 3886.484167672314
1748.969919931249 3916.665908150381
1749.6918812466665 3662.242364358504
1750.4136681226646 3964.0312133396974
1751.1352806039777 3943.2788102462846
1751.856718735331 3685.179954935035
1752.5779825614281 3887.2674471571663
1753.2990721269507 4016.8435923403326
1754.0199874765676 3788.6486508333046
1754.7407286549314 3811.6078550149277
1755.4612957066693 3850.0154626988383
1756.1816886763954 3936.577056664867
1756.9019076087097 3846.979128371257
1757.6219525481865 3878.029166038688
1758.3418235393856 3840.5677774108926
1759.061520626854 3892.7770201133762
1759.7810438551096 3892.281705211781
1760.5003932686614 3828.970783112898
1761.2195689119999 3782.8675287231404
1761.938570829594 3863.965229806944
1762.657399065898 3771.094360727047
1763.376053665348 3797.774937973045
1764.0945346723602 3787.8475847368836
1764.812842131334 3789.9937486416384
1765.5309760866512 3770.3561898891176
1766.2489365826787 3693.3776504405664
1766.9667236637597 3747.378461554375
1767.684337374223 3657.9414669501807
1768.401777758383 3606.4079319340553
1769.1190448605284 3815.232694807821
1769.836138724937 3619.8433638954725
1770.5530593958665 3849.1726240887174
1771.2698069175603 3740.8014223458936
1771.9863813342326 3823.673449741172
1772.702782690094 3717.167246546792
1773.4190110293293 3803.742617586194
1774.1350663961111 3764.991257802648
1774.8509488345844 3590.994912738509
1775.5666583888924 3879.5729114489454
1776.2821951031437 3734.485986547873
1776.9975590214362 3705.856483280095
1777.7127501878585 3778.852742640132
1778.4277686464684 3814.454306278828
1779.1426144413108 3840.718211477627
1779.8572876164162 3739.739563406677
1780.571788215797 3650.055121688506
1781.2861162834415 3806.2702063623738
1782.0002718633277 3812.4723324526444
1782.7142549994132 3709.9702565019347
1783.4280657356376 3698.2066846062144
1784.141704115922 3657.1534708928034
1784.855170184177 3635.146101207607
1785.5684639842839 3582.161535370644
1786.2815855601148 3497.4174266912014
1786.9945349555237 3681.151643013846
1787.707312214343 3475.8135765897305
1788.4199173803918 3806.8592557000893
1789.132350497468 3502.8938509300706
1789.8446116093583 3713.4226660729496
1790.556700759822 3635.302020344422
1791.2686179926077 3561.2272731670782
1791.9803633514493 3605.9824582184056
1792.6919368800554 3597.7865897785305
1793.4033386221236 3710.328683643432
1794.1145686213295 3800.1395167142
1794.8256269213307 3698.6230570507237
1795.536513565774 3687.7614837402034
1796.247228598284 3532.565235890267
1796.9577720624693 3584.6577542746513
1797.6681440019165 3710.74943535148
1798.3783444602013 3454.569874947022
1799.0883734808776 3568.9993187890154
1799.7982311074884 3558.2058327497994
1800.5079173835475 3705.5024231271113
1801.2174323525633 3624.2094923859395
1801.9267760580187 3541.7620365558446
1802.635948543386 3521.010764100864
1803.3449498521113 3545.594177557797
1804.0537800276325 3647.08618420497
1804.7624391133668 3670.862491689882
1805.47092715271 3422.9663451414126
1806.1792441890484 3644.0584308599573
1806.8873902657433 3439.1366354625497
1807.5953654261448 3667.3643638279036
1808.3031697135812 3313.6046960295607
1809.0108031713662 3431.538748643955
1809.71826584279 3567.0336768845236
1810.425557771141 3526.092770329651
1811.1326789996747 3629.017135183386
1811.839629571632 3444.32257885758
1812.5464095302468 3441.8655985874693
1813.2530189187182 3409.223484080533
1813.959457780249 3372.2826005781817
1814.6657261580076 3619.983247185874
1815.371824095153 3519.595488042566
1816.0777516348262 3526.160906136439
1816.78350882015 3443.3764308395175
1817.4890956942272 3495.3095339039296
1818.1945123001533 3474.5959053617253
1818.8997586809928 3537.6641488268274
1819.6048348798067 3430.7279735685297
1820.3097409396287 3501.332435716448
1821.0144769034796 3572.723768653438
1821.7190428143622 3434.2160887662453
1822.423438715261 3567.3753259156533
1823.1276646491478 3439.2689917611656
1823.8317206589727 3674.6272650487977
1824.5356067876692 3467.188914334993
1825.2393230781581 3355.369875803096
1825.942869573335 3440.14789776607
1826.646246316086 3521.5999997995486
1827.3494533492758 3417.267475182996
1828.052490715756 3566.9712730638225
1828.7553584583547 3612.5074597625644
1829.458056619891 3483.118115383364
1830.1605852431585 3399.239199478925
1830.8629443709433 3420.7233997822354
1831.5651340460063 3636.1814761794876
1832.2671543110919 3245.943883124396
1832.9690052089318 3510.843434920036
1833.6706867822395 3368.6915794411957
1834.3721990737104 3446.252833084095
1835.0735421260233 3370.548701607203
1835.774715981841 3425.5883860744652
1836.4757206838058 3432.3757302588974
1837.1765562745459 3243.26223676753
1837.8772227966747 3349.419875287239
1838.5777202927839 3437.3641532337288
1839.2780488054523 3436.8812238143937
1839.9782083772352 3543.02778263868
1840.6781990506806 3503.0794264970477
1841.378020868313 3380.821780313432
1842.0776738726418 3595.0681494318633
1842.777158106157 3518.7298834499793
1843.4764736113375 3360.194927476984
1844.1756204306403 3468.047576836367
1844.8745986065078 3191.691304542511
1845.5734081813607 3255.0589109052717
1846.2720491976124 3312.0605634880303
1846.970521697649 3208.033927468363
1847.6688257238511 3493.4953279504616
1848.3669613185684 3404.1136567327244
1849.0649285241452 3233.7093053283684
1849.7627273829057 3475.13344938377
1850.460357937156 3356.38062093794
1851.1578202291857 3188.365852459247
1851.8551143012664 3343.159582905936
1852.5522401956569 3268.7111308224357
1853.2491979545957 3342.188103292786
1853.9459876203055 3388.772173198808
1854.6426092349902 3190.385016015548
1855.3390628408451 3493.1361096940004
1856.0353484800362 3375.5884565367874
1856.7314661947203 3372.0603507867286
1857.4274160270397 3247.664461150049
1858.123198019115 3311.634332338239
1858.8188122130487 3294.3544683255727
1859.5142586509319 3207.7351641610744
1860.209537374838 3372.3231263985263
1860.9046484268183 3304.65109115311
1861.599591848917 3329.721064087553
1862.294367683151 3019.451495131464
1862.988975971528 3344.1883917272403
1863.6834167560355 3079.49052894163
1864.3776900786452 3335.021917806086
1865.0717959813119 3351.322031173312
1865.7657345059724 3193.314665950905
1866.4595056945564 3470.5391071315853
1867.1531095889586 3223.514749239258
1867.846546231076 3187.6957498035913
1868.5398156627743 3232.3826269264305
1869.2329179259123 3187.89493564507
1869.9258530623283 3343.092212900324
1870.618621113843 3258.2145696596494
1871.3112221222636 3107.2768206057367
1872.0036561293764 3147.46873333339
1872.695923176956 3250.055739614575
1873.3880233067594 3378.27384402018
1874.0799565605212 3122.016743329953
1874.7717229799673 3194.8950177523207
1875.4633226068036 3155.9777366833196
1876.1547554827175 3303.2377275582235
1876.8460216493859 3277.669930818794
1877.5371211484617 3111.535290088114
1878.2280540215852 3246.726242829497
1878.9188203103804 3060.7494899196827
1879.6094200564548 3383.8463806288155
1880.299853301396 3044.226783597771
1880.9901200867826 3531.867086829836
1881.6802204541673 3401.3164086670104
1882.3701544450942 3188.768854399774
1883.059922101087 3165.26645108849
1883.7495234636517 3290.2800604266063
1884.4389585742792 3018.27344007837
1885.1282274744517 3129.00599241652
1885.8173302056166 3390.5549088207363
1886.506266809225 3119.7963587301656
1887.195037326701 3197.8087398965376
1887.8836417994517 3119.629456714555
1888.5720802688702 3287.290677929576
1889.260352776333 3144.7893977477247
1889.9484593632042 3165.1206884135445
1890.63640007082 3218.7114245886955
1891.3241749405151 2921.759120166526
1892.0117840135954 3188.97768941377
1892.6992273313572 3170.076436371766
1893.3865049350788 3124.147490683788
1894.0736168660223 3295.8453269002594
1894.7605631654333 3209.2373309973013
1895.4473438745408 3156.593257935071
1896.133959034556 3192.989743642807
1896.820408686679 3183.258694453973
1897.506692872088 3023.5243553350933
1898.192811631945 3220.40244387604
1898.8787650073991 3170.7620454525404
1899.5645530395832 3358.150433897486
1900.2501757696118 3198.39131362253
1900.9356332385796 3071.2396813126934
1901.620925487574 3289.5244346978216
1902.3060525576602 3268.8995356413893
1902.9910144898859 3243.0160695504924
1903.6758113252872 3046.3454544543138
1904.3604431048789 3142.459937232649
1905.0449098696663 3146.8324352227837
1905.7292116606295 3050.8961075973302
1906.4133485187394 3095.364545665339
1907.0973204849488 2825.3965262232646
1907.7811276001976 2965.6921139741216
1908.4647699053967 3072.2852076237755
1909.1482474414588 2653.51586605632
1909.8315602492694 2683.5693959446608
1910.5147083696957 3126.0271871986733
1911.1976918436012 3081.7542730198084
1911.880510711815 3044.6158604011443
1912.5631650151681 3181.340957706804
1913.2456547944657 3053.6926563502134
1913.927980090495 3018.040331546946
1914.6101409440362 3137.3810833960124
1915.2921373958416 3136.8642632116484
1915.9739694866603 3112.3692523971536
1916.655637257214 3107.310625137476
1917.3371407482136 3072.645290279717
1918.0184800003572 3169.4365385464794
1918.6996550543154 3052.1601467041464
1919.3806659507554 3034.7681656736686
1920.0615127303208 3057.106331881368
1920.7421954336423 3031.0237086937914
1921.4227141013343 3056.832788919118
1922.103068773993 3103.0722330837402
1922.783259492202 3149.400435208427
1923.4632862965227 2989.2621367790043
1924.1431492275078 3049.805578283293
1924.8228483256917 2993.1575516681905
1925.5023836315922 2791.0825924985775
1926.1817551857057 2813.7601316503556
1926.8609630285227 3129.9022456751104
1927.5400072005123 3168.0945088276308
1928.218887742125 2769.518306511218
1928.8976046938005 2964.219602805294
1929.5761580959588 3178.2644227825704
1930.2545479890086 3025.0181902920294
1930.9327744133352 2930.780823499642
1931.6108374093164 3049.0352135197218
1932.2887370173066 3007.432582696753
1932.9664732776473 2851.5474511643506
1933.6440462306673 3034.151472844856
1934.3214559166754 2954.2812279954915
1934.9987023759659 2919.561482046285
1935.675785648813 2789.0509655343876
1936.3527057754836 2758.767638509792
1937.029462796223 3166.9581159580994
1937.70605675126 2959.431018637982
1938.3824876808085 2867.5755768267736
1939.058755625072 2884.139008383614
1939.7348606242267 2994.2176805272716
1940.4108027184448 3100.7535614750896
1941.0865819478713 3006.858552643804
1941.7621983526478 3043.7950810222515
1942.4376519728921 2884.4421576078907
1943.1129428487038 2943.295319488684
1943.7880710201734 2905.262498854814
1944.4630365273733 3140.929341267977
1945.1378394103576 2849.8495217734226
1945.8124797091714 3074.1936584383866
1946.4869574638324 2715.7502277947024
1947.161272714353 2899.69486051341
1947.8354255007234 2944.8580263609547
1948.5094158629272 2941.725176269431
1949.1832438409183 2988.866903172182
1949.8569094746435 3038.989602328411
1950.530412804037 3141.5260287406713
1951.2037538690092 3256.845921148322
1951.8769327094578 2807.2985324203937
1952.5499493652678 2949.615251035843
1953.222803876306 2974.3789332651304
1953.895496282421 3032.13368845453
1954.5680266234522 2875.556509994962
1955.2403949392155 3078.2476619552062
1955.9126012695142 2798.397631747281
1956.5846456541403 2869.454149106573
1957.2565281328643 2875.217338157895
1957.9282487454457 2989.5356188009346
1958.5998075316202 2775.598855356454
1959.27120453112 3016.4821491630914
1959.9424397836501 3006.1504759808927
1960.613513328908 2950.7569058998306
1961.2844252065697 2822.6640952438306
1961.9551754563017 2763.9862240545417
1962.6257641177453 2856.38870835369
1963.29619123054 2825.9016473736133
1963.966456834296 2858.1845095796134
1964.6365609686181 2899.2555241894233
1965.306503673086 2989.512799770545
1965.976284987275 2920.165920854213
1966.645904950734 2956.149031372584
1967.315363603002 2785.928090226167
1967.9846609836077 2977.5504677367953
1968.6537971320486 2636.151520758692
1969.3227720878222 2930.294184205843
1969.9915858904042 2774.168018085908
1970.660238579252 2847.2249677302616
1971.3287301938108 2912.6032134651186
1971.997060773514 2770.6412257650327
1972.665230357772 2717.918058736163
1973.3332389859843 2759.5115078095578
1974.0010866975335 2657.7093298381765
1974.6687735317864 2918.916999107295
1975.3362995280932 2879.7574121991433
1976.003664725793 2755.9467254491974
1976.6708691642052 2702.349240204382
1977.3379128826364 2799.7060825443896
1978.004795920373 2932.8482113528507
1978.6715183166925 2982.345756069348
1979.3380801108524 2695.9692695916374
1980.0044813420973 2739.47245149224
1980.6707220496555 2590.563414313671
1981.3368022727373 2916.066608508864
1982.0027220505417 2694.5374500547023
1982.66848142225 2529.866355675847
1983.3340804270283 2820.7115071948692
1983.999519104027 2757.3687316859196
1984.6647974923835 2843.4503018714586
1985.329915631215 2710.699510664095
1985.99487355963 2799.8074223887033
1986.6596713167146 2832.6047682242947
1987.3243089415428 2733.3862385146904
1987.9887864731754 3003.9108960006115
1988.6531039506553 2680.5512118654287
1989.3172614130071 3057.5034329567793
1989.9812588992481 2670.0181054285154
1990.645096448372 2558.0761169460316
1991.3087740993633 2713.29304476694
1991.9722918911848 2630.6582703008094
1992.635649862792 2901.9414584889064
1993.2988480531185 2797.077824428587
1993.9618865010852 2972.6348623472486
1994.6247652455968 2737.622629726419
1995.287484325545 2719.2089182456957
1995.9500437798033 2799.801257872912
1996.6124436472292 2707.133429429404
1997.2746839666706 2674.6129534299457
1997.936764776954 2737.2146692745973
1998.598686116895 2769.1961413881777
1999.2604480252903 2879.151324505437
1999.9220505409212 2893.7376689087077
2000.5834937025593 2598.7277590754793
2001.2447775489582 2844.267515748131
2001.9059021188514 2584.2594405244995
2002.5668674509616 2586.470325775076
2003.2276735839987 2592.5935914342945
2003.8883205566508 2689.4297955256393
2004.5488084075987 2676.78697002905
2005.2091371755014 2944.3528173251643
2005.8693068990033 2784.049852536847
2006.5293176167397 2772.831669211366
2007.1891693673224 2580.459759309239
2007.848862189354 2435.6832450123798
2008.5083961214223 2502.698893080934
2009.1677712020955 2588.7608263846873
2009.8269874699254 2700.184467897741
2010.4860449634598 2853.747352971215
2011.1449437212177 2556.9532829802292
2011.8036837817108 2801.9797491852128
2012.4622651834325 2794.526064429825
2013.1206879648653 2760.9561071457833
2013.7789521644736 2756.752646038954
2014.4370578207036 2500.1831387132493
2015.0950049719922 2695.6503578642887
2015.7527936567585 2800.9326326076343
2016.4104239134067 2659.267740321423
2017.067895780323 2840.776703105827
2017.725209295886 2549.2292306571635
2018.3823644984514 2618.51225562082
2019.0393614263648 2771.846170986072
2019.6962001179545 2490.54863515635
2020.3528806115355 2739.9359737848695
2021.0094029454067 2661.5378287509425
2021.6657671578487 2713.2609817048965
2022.321973287133 2673.2475819185784
2022.9780213715148 2579.688167386624
2023.6339114492293 2762.7382923817704
2024.2896435585026 2741.3214023436003
2024.9452177375442 2523.0502299157733
2025.600634024544 2745.0296178418375
2026.2558924576842 2802.6210941230124
2026.9109930751292 2803.1220277581933
2027.565935915025 2640.0147717615087
2028.2207210155066 2847.4959879591306
2028.8753484146964 2788.1696523322717
2029.529818150695 2465.003671673179
2030.1841302615903 2542.005729384892
2030.8382847854573 2516.349935635931
2031.4922817603601 2601.9266610127193
2032.1461212243357 2640.3275061450813
2032.7998032154192 2321.007847445576
2033.4533277716218 2753.718462696286
2034.1066949309443 2605.750202303011
2034.7599047313688 2545.2596982036084
2035.4129572108704 2666.0992429526045
2036.0658524074006 2683.5285623919176
2036.7185903589016 2720.8514711448283
2037.3711711032956 2777.109949586125
2038.023594678496 2674.694140525423
2038.675861122394 2370.1122402202413
2039.3279704728757 2717.883111745304
2039.9799227678031 2549.4195552380643
2040.6317180450278 2708.9907521168307
2041.2833563423865 2553.675237278823
2041.9348376977014 2612.5333402037413
2042.5861621487784 2531.158583729327
2043.2373297334088 2501.794477721692
2043.8883404893695 2664.0596722439886
2044.5391944544208 2550.5336480708625
2045.1898916663158 2827.790866662602
2045.8404321627804 2706.966152996715
2046.4908159815368 2608.1078555954414
2047.1410431602853 2624.291349052616
2047.7911137367173 2439.683744895746
2048.441027748504 2638.2794712512127
2049.090785233302 2628.2880060827606
2049.7403862287592 2574.46313323929
2050.389830772503 2682.31796912918
2051.0391189021466 2537.5626885577713
2051.688250655294 2517.5605067526653
2052.337226069527 2564.061831846446
2052.986045182417 2586.066421305869
2053.634708031521 2429.217377432943
2054.283214654375 2235.643528750098
2054.931565088511 2673.686779643691
2055.579759371436 2462.5823935582803
2056.2277975406523 2599.1108447565484
2056.8756796336384 2598.759966042237
2057.5234056878617 2222.333691482543
2058.1709757407752 2787.2453990847807
2058.8183898298194 2593.3416749431112
2059.465647992416 2578.0391429439132
2060.1127502659747 2593.126147200707
2060.759696687888 2518.6059534925816
2061.4064872955405 2643.5536517653477
2062.053122126292 2677.961569641778
2062.699601217497 2145.687534217972
2063.345924606485 2614.634305003909
2063.992092330587 2660.889611664542
2064.638104427102 2614.237114643144
2065.283960933324 2676.6027573903984
2065.92966188653 2398.3252861374785
2066.5752073239855 2556.155730101254
2067.2205972829397 2512.934275906157
2067.86583180062 2421.927223514858
2068.5109109142522 2524.2885270804736
2069.15583466104 2589.206095123206
2069.8006030781708 2507.2775858218556
2070.445216202821 2327.276981903441
2071.089674072153 2548.3267719507885
2071.7339767233116 2644.135981610714
2072.3781241934303 2687.5719451463256
2073.0221165196253 2610.1095910290755
2073.6659537390024 2525.808102176179
2074.3096358886505 2387.805995790122
2074.953163005637 2424.676030507975
2075.596535127028 2398.7291186746943
2076.2397522898664 2458.651471151189
2076.882814531182 2365.154247720916
2077.5257218879924 2568.4221868205705
2078.1684743973 2423.2344647389273
2078.8110720960885 2363.9075709159815
2079.453515021336 2700.6619472400657
2080.095803209997 2633.258909265373
2080.7379366990135 2559.9448886983832
2081.37991552532 2657.8798053239384
2082.0217397258275 2417.527017691162
2082.6634093374414 2424.5238969149996
2083.3049243970418 2390.1523144570797
2083.9462849415067 2535.7395034229585
2084.587491007689 2580.2025699853566
2085.2285426324324 2464.4532323138487
2085.869439852564 2568.1989967762747
2086.510182704902 2342.6031007257657
2087.1507712262483 2356.2239608787618
2087.791205453381 2388.3587559391417
2088.4314854230743 2484.2634241871347
2089.0716111720867 2557.082988601326
2089.7115827371617 2383.837863766337
2090.351400155023 2584.659160664877
2090.991063462385 2449.738779666694
2091.6305726959527 2434.6533664329445
2092.2699278924047 2449.9672044645586
2092.9091290884153 2585.60754564085
2093.548176320641 2462.2461432484706
2094.187069625721 2662.597891224566
2094.8258090402887 2266.2699233283483
2095.464394600951 2547.724000088726
2096.102826344313 2502.424800782001
2096.741104306955 2599.180724786266
2097.379228525453 2464.482879131176
2098.017199036358 2345.960532970301
2098.6550158762147 2436.944509040456
2099.2926790815527 2509.224191869021
2099.9301886888825 2429.246820520867
2100.5675447347076 2483.8624452742356
2101.2047472555114 2617.885452577169
2101.841796287761 2109.9544764993416
2102.47869186792 2532.1303058075814
2103.1154340324265 2410.179584245886
2103.752022817709 2379.519308996395
2104.388458260184 2389.271960393213
2105.024740396251 2385.9666252713405
2105.660869262292 2498.38313181447
2106.296844894685 2170.466441153875
2106.93266732978 2593.824481604112
2107.5683366039284 2292.899198464402
2108.2038527534532 2410.743810924699
2108.8392158146726 2562.523565460098
2109.4744258238843 2456.429829306163
2110.1094828173755 2122.7442479378337
2110.744386831422 2310.989064828957
2111.3791379022787 2472.0231907353946
2112.01373606619 2528.438161852059
2112.648181359389 2491.8763192449887
2113.28247381809 2560.513205436455
2113.916613478492 2366.141037223479
2114.550600376786 2500.124473732739
2115.1844345491445 2278.206734171058
2115.818116031729 2479.03695118919
2116.451644860679 2532.785329724141
2117.085021072133 2382.915139569467
2117.718244702204 2188.703178141868
2118.3513157869984 2488.6740902819047
2118.984234362604 2225.5270144167357
2119.617000465092 2374.1369364363536
2120.249614130529 2472.730573305697
2120.8820753949585 2646.228528896306
2121.5143842944162 2480.4017374645077
2122.14654086492 2514.525855697738
2122.7785451424734 2531.7586691177557
2123.4103971630702 2268.880309595327
2124.042096962681 2480.9966387250097
2124.6736445772767 2581.6612573115262
2125.305040042802 2214.740334225444
2125.936283395191 2246.1927547577798
2126.567374670365 2209.5181138498824
2127.198313904233 2175.028141160198
2127.8291011326855 2419.418703106435
2128.4597363916037 2374.602651347229
2129.0902197168507 2165.3228372842777
2129.720551144279 2348.6773229984615
2130.3507307097225 2523.412485227625
2130.980758449008 2370.537011440988
2131.6106343979427 2297.1325340448716
2132.2403585923203 2524.1336743250404
2132.8699310679276 2389.371049828963
2133.499351860526 2409.25528212179
2134.1286210058715 2340.472356027277
2134.7577385397053 2212.9443316836223
2135.3867044977487 2461.785285453635
2136.0155189157176 2504.6083605917006
2136.644181829308 2208.3194572926072
2137.2726932742025 2406.7080706744187
2137.901053286074 2505.20644892131
2138.5292619005777 2389.3430945379478
2139.1573191533535 2352.4964406506324
2139.7852250800315 2520.5918180321814
2140.4129797162295 2238.4828774344787
2141.0405830975433 2343.8815538974145
2141.6680352595613 2515.0756715496536
2142.2953362378576 2393.809536449872
2142.9224860679915 2157.363865999459
2143.549484785508 2250.5263084739904
2144.1763324259373 2369.172943630142
2144.803029024799 2327.065975875162
2145.429574617594 2012.1091593478618
2146.0559692398165 2477.0419066124823
2146.682212926942 2213.4273927802824
2147.308305714432 2338.195496552276
2147.9342476377333 2488.4204687915744
2148.5600387322847 2390.616522228027
2149.185679033506 2403.5225366199998
2149.8111685768017 2343.965587879858
2150.4365073975678 2224.6041071262316
2151.061695531187 2471.5655447782938
2151.686733013021 2404.962579281727
2152.311619878423 2536.5940635512766
2152.9363561627342 2175.6930468751043
2153.560941901278 2154.8179673017494
2154.1853771293663 2315.838187195711
2154.809661882293 2284.3171493808336
2155.433796195348 2628.7884616076594
2156.0577801037944 2139.285498578292
2156.681613642895 2095.227651446536
2157.3052968478896 1927.5313697322
2157.928829754006 2405.5942298751097
2158.552212396462 2406.55649386725
2159.1754448104566 2052.2599209272576
2159.7985270311783 2220.937580392705
2160.4214590938027 2007.1031318339908
2161.0442410334927 2051.235503753653
2161.6668728853874 2293.2044316745023
2162.289354684628 2312.0721901070565
2162.911686466332 2334.886443810744
2163.533868265602 2259.2807253870315
2164.1559001175337 2293.6278259398377
2164.7777820572046 2466.7318936255774
2165.399514119681 2120.7540911879596
2166.021096340013 2037.949320519919
2166.6425287532384 2453.0434073419488
2167.263811394385 2125.899384553929
2167.8849442984574 2249.0290296953676
2168.505927500455 2280.0562670769987
2169.126761035366 2351.8689260661586
2169.7474449381552 2295.9947791948807
2170.367979243778 2173.395482432951
2170.9883639871823 2358.5435200577904
2171.608599203293 2121.634543827481
2172.2286849270276 2357.1407753384074
2172.8486211932886 2497.1350621722568
2173.4684080369625 2450.2971435067548
2174.0880454929265 2138.075994886309
2174.7075335960417 2177.7237756186137
2175.3268723811543 2343.1175538203106
2175.9460618831 2200.4103483635163
2176.565102136701 2318.6019837533404
2177.1839931767627 2384.046901299122
2177.802735038078 2158.546948100201
2178.421327755432 2295.867830678752
2179.0397713635866 2030.9495269964677
2179.658065897298 2249.7571929042992
2180.276211391305 2130.9151537779458
2180.8942078803357 2342.1348296261103
2181.5120553991 2224.2498381349956
2182.129753982299 2057.773840080107
2182.7473036646206 2260.095008668926
2183.3647044807367 2569.102855428041
2183.9819564653044 2488.0530446513576
2184.599059652968 2406.8944135704915
2185.216014078367 2357.2629692283467
2185.832819776113 1938.7764572971537
2186.4494767808137 2306.0727710282654
2187.065985127063 2315.31479988633
2187.682344849436 2108.9367616559653
2188.298555982501 2386.0865839954004
2188.9146185608097 2492.561322066159
2189.530532618901 2478.267053492866
2190.1462981912937 2276.370282297453
2190.761915312507 2083.7364479687317
2191.377384017036 2043.366607972814
2191.9927043393654 2297.4144299767713
2192.6078763139667 2017.2447472503973
2193.2228999753006 2385.2535617883314
2193.837775357808 2136.1513726575813
2194.452502495922 2026.1220535753703
2195.0670814240602 2209.000297870217
2195.6815121766285 2074.1113414009587
2196.2957947880186 2265.615202662004
2196.9099292926057 2043.9491676051307
2197.523915724758 2200.094349271815
2198.137754118825 2294.6786451247112
2198.7514445091456 2251.7222944413143
2199.3649869300443 2081.809243542136
2199.9783814158327 2330.2051073572316
2200.5916280008096 2222.3924056062556
2201.2047267192593 2480.0012135137135
2201.8176776054515 2182.206528609691
2202.430480693649 2012.8130587571864
2203.0431360180955 2185.0264092435327
2203.6556436130195 2101.5902760611857
2204.268003512645 2090.489729291714
2204.8802157511727 2276.2834688647913
2205.492280362796 2528.4103065595264
2206.1041973816937 2187.721682617806
2206.715966842032 2329.7414473384565
2207.3275887779655 1994.6673015912206
2207.93906322363 2334.7306105864227
2208.550390213153 1956.0308081471223
2209.1615697806465 2204.588944407095
2209.7726019602105 2054.1791469160453
2210.3834867859277 2165.677925084748
2210.9942242918787 1888.7212972741868
2211.6048145121167 2273.8305496056955
2212.2152574806914 2478.2808686044777
2212.825553231638 2179.607912233118
2213.435701798975 2286.772866391828
2214.045703216707 2204.642706993621
2214.655557518832 1954.1475133050153
2215.2652647393297 2055.131628960543
2215.874824912169 2006.1764482890244
2216.4842380713 2133.531075827616
2217.09350425067 2167.4647962717027
2217.7026234842033 2221.4955249131876
2218.311595805819 2239.9777691425506
2218.9204212494133 1889.9930383413794
2219.52909984888 2200.923478125281
2220.137631638092 2044.4234412650537
2220.7460166509154 2118.0988679362886
2221.354254921198 2249.172799080064
2221.9623464827764 2166.5944281031984
2222.5702913694713 2078.101983630574
2223.178089615096 2350.3520148454345
2223.7857412534486 2064.7029099500223
2224.39324631831 1948.4913057286183
2225.000604843457 2129.0350340647965
2225.607816862641 2086.129695198865
2226.214882409611 2151.3482109946035
2226.8218015180973 2275.7780876720544
2227.4285742218217 2074.8018268831465
2228.0352005544864 2000.7892867035061
2228.6416805497847 2029.398671159351
2229.248014241399 1946.4432152040304
2229.8542016629945 1938.7739525902984
2230.460242848223 2166.0651478675213
2231.0661378307304 2332.7346672742515
2231.671886644139 1972.6191842740488
2232.277489322065 1944.7977787373045
2232.8829458981127 1960.5799097335148
2233.48825640587 2033.1260759353183
2234.0934208789095 2300.8377813565326
2234.6984393507955 2247.027905531062
2235.3033118550793 2101.3709581666826
2235.9080384252975 2203.5577657140684
2236.5126190949723 2120.581542890139
2237.1170538976166 2049.2261592166014
2237.721342866729 1783.319637713163
2238.32548603579 2002.8243073311648
2238.9294834382763 2197.7652059926686
2239.533335107646 1960.5972532656783
2240.1370410773434 1686.3618897650874
2240.740601380803 1768.421414868116
2241.3440160514474 2109.205092444361
2241.9472851226783 2557.9109403562234
2242.550408627896 2200.9606831178216
2243.1533866004793 2298.5579635906497
2243.756219073799 2063.2106915802697
2244.3589060812064 1946.9877781623989
2244.961447656049 1985.6480421774072
2245.5638438316564 2195.8816859144886
2246.166094641343 2189.082073553069
2246.7682001184166 2105.3169756884886
2247.3701602961664 2033.2789587287086
2247.971975207871 2180.7099440841985
2248.5736448867974 2010.5334956245447
2249.175169366197 1985.6441877131554
2249.7765486793123 2085.586231176302
2250.3777828593684 1963.6667761100896
2250.9788719395783 2175.2498885158006
2251.579815953146 2012.6952741934463
2252.1806149332606 1993.0906569716376
2252.781268913097 2255.6167777865544
2253.381777925817 2043.3258371412953
2253.9821420045737 1930.94720926575
2254.5823611825035 2021.9082360656412
2255.1824354927303 2250.739124122417
2255.782364968365 2056.037338398544
2256.38214964251 1861.1301386376392
2256.9817895482483 1993.0169131640464
2257.5812847186553 2119.1669981676737
2258.180635186791 2105.862652112127
2258.779840985704 2119.673650009047
2259.37890214843 1927.3748715934344
2259.97781870799 2093.2825247922565
2260.5765906973957 2227.8419465911425
2261.175218149645 1998.9478172633121
2261.773701097718 1975.027529250432
2262.3720395745895 1706.12136864554
2262.970233613216 1790.7287034509159
2263.568283246548 2137.3411777260885
2264.1661885075137 1975.279490393167
2264.763949429038 2085.853940384471
2265.3615660440246 1985.637693779531
2265.959038385374 2003.726609787131
2266.5563664859637 2100.9066036785293
2267.153550378669 1892.6759454245541
2267.7505900963424 2111.90355405653
2268.3474856718312 2069.649736815672
2268.9442371379664 1929.8648793730158
2269.5408445275643 1866.9818529860781
2270.1373078734377 1804.0239014306203
2270.7336272083758 1902.3150442042177
2271.32980256516 1803.264692666185
2271.925833976562 2091.773352686032
2272.5217214753357 2262.674183030745
2273.117465094223 1959.2703864596037
2273.7130648659586 1882.7844419500975
2274.308520823257 2063.140953067165
2274.903832998827 2131.3914098639643
2275.4990014253563 2141.1632747794965
2276.094026135528 2150.9137506143443
2276.6889071620117 2140.525890317399
2277.2836445374614 1865.6297279725
2277.878238294519 1890.366016244603
2278.472688465812 2035.8462560344112
2279.066995083962 2063.6963592543257
2279.6611581815705 1827.9181592091827
2280.255177791232 1804.4560715432174
2280.8490539455233 2063.7318824043928
2281.442786677013 2250.493465775165
2282.0363760182554 2274.3557340894736
2282.6298220017943 1919.9258649233852
2283.223124660155 2187.0244576849764
2283.816284025859 2016.1878997770968
2284.4093001314086 1934.1251372018348
2285.002173009292 2017.760732859054
2285.5949026919952 2048.3313316756658
2286.1874892119777 2234.1847419650644
2286.7799326016993 2095.372248470702
2287.3722328936 1750.2389360968398
2287.964390120109 1835.3387107599362
2288.556404313642 2051.1612871647912
2289.1482755066027 1884.272320757081
2289.7400037313873 2152.3443935910373
2290.3315890203703 1967.7742468686806
2290.9230314059205 1872.9737304230493
2291.5143309203904 1751.200065400729
2292.1054875961236 1999.5899039624098
2292.6965014654506 1806.6390035617762
2293.287372560684 1779.900913374107
2293.878100914131 1854.7795414697332
2294.468686558086 1929.8778009052505
2295.059129524827 1916.1002137216558
2295.649429846617 2211.193472321122
2296.239587555716 1826.1977540228133
2296.8296026843636 1770.6090639432211
2297.419475264791 2040.6437281296817
2298.0092053292137 1951.357470619673
2298.598792909839 1845.7914186161368
2299.1882380388597 1880.8421435197736
2299.777540748455 2037.5971493752172
2300.3667010707904 1977.975895823841
2300.9557190380256 1895.709434420769
2301.544594682302 1883.9015751236122
2302.1333280357503 1814.2339193463881
2302.721919130485 2126.9729837799905
2303.3103679986198 2181.3285084248296
2303.898674672242 1939.8991164335098
2304.486839183437 1833.6021385513475
2305.0748615642697 1882.076390653531
2305.6627418468015 1787.223262636849
2306.2504800630704 1973.360266448121
2306.8380762451143 1990.170002178477
2307.425530424949 2092.8409924388175
2308.012842634582 2195.731335838173
2308.6000129060103 2120.334345846455
2309.187041271214 2070.7652028188177
2309.773927762164 1853.5898019154433
2310.3606724108213 2212.4138187142885
2310.9472752491274 1866.1922408615276
2311.5337363090184 1930.5293221721374
2312.120055622414 2019.5573775322894
2312.706233221221 1930.4356064226013
2313.2922691373424 1803.3843063383072
2313.8781634026564 2017.2259332150365
2314.463916049037 2111.655645539178
2315.049527108342 1622.488736872517
2315.6349966124235 1924.0547319482855
2316.2203245931123 2089.4774303729596
2316.8055110822315 1841.0231369920766
2317.3905561115935 1702.6601503624279
2317.9754597129977 1962.5658138614847
2318.560221918229 2006.1636907334923
2319.1448427590603 1710.0838965237822
2319.729322267256 1605.895878957754
2320.313660474563 1835.5352594245894
2320.8978574127195 2144.0606050170422
2321.481913113452 2086.9719980064315
2322.0658276084705 2021.4689169868143
2322.6496009294806 1822.1698604790581
2323.233233108165 1540.3304983746114
2323.8167241762058 1663.1326946675294
2324.4000741652617 1786.2065407151986
2324.983283106987 1872.5244068443658
2325.5663510330232 1911.785974124666
2326.1492779749933 1991.3254744537862
2326.7320639645204 2058.9776681227318
2327.3147090332004 1831.2860586850595
2327.897213212629 2182.0483403173153
2328.4795765343843 2185.157838371796
2329.0617990300307 1970.1560326415097
2329.643880731124 1915.5819786921015
2330.22582166921 1861.0331541284963
2330.807621875816 2101.2425423144277
2331.3892813824623 1628.3682686634704
2331.9708002206517 1872.4784458101906
2332.5521784218818 1746.9431336804028
2333.133416017634 1949.349403066585
2333.7145130393765 1830.5756217160565
2334.295469518571 1818.9201480277563
2334.876285486658 2044.3349936777195
2335.456960975076 2093.5546034416343
2336.037496015242 2142.9204944242056
2336.6178906385667 2143.666881312401
2337.198144876451 1853.1899703524327
2337.778258760278 2207.0152259972174
2338.3582323214214 2128.0299550793065
2338.938065591243 2048.8076718007314
2339.517758601087 1896.187558738234
2340.0973113822965 1812.080486334426
2340.676723966193 1889.8731785756377
2341.255996384094 1784.7530390220952
2341.835128667295 2016.4528358802495
2342.4141208470883 2193.2527959831514
2342.992972954751 1696.6837786111168
2343.5716850215467 2036.4770337838013
2344.1502570787306 1877.9515394535647
2344.7286891575386 1719.0285511243685
2345.3069812892045 1784.8492841303766
2345.885133504944 1801.929222941615
2346.4631458359618 1888.551972309972
2347.04101831345 1802.6855855530732
2347.6187509685915 2155.985024063348
2348.196343832553 1892.1253271572598
2348.7737969364935 2087.031587807477
2349.351110311558 1911.9309591825647
2349.9282839888765 1885.225036029045
2350.5053179995757 1911.0402431125337
2351.0822123747585 1737.448611309989
2351.658967145526 1814.183686718249
2352.2355823429643 1878.8807342615848
2352.812057998144 1864.82513711631
2353.3883941421263 1789.3582071176304
2353.9645908059647 1608.3132239563015
2354.540648020693 1898.7174347629243
2355.116565817336 1618.8308722319075
2355.6923442269126 1732.6427588931813
2356.2679832804224 1846.694111172262
2356.8434830088518 1677.1782684974173
2357.41884344318 1648.8236047024743
2357.994064614377 1632.738578147606
