#exp_cfg={"servo_angle": 0.0, "laser_lim": 100.0, "servo_angle_to": 18.0, "laser_wup": 0.0, "bt_dev": "EnSpectr-25AE3", "laser_wdn_max": 0.0, "frames": 10.0, "servo_used": 0, "servo_calib_use": 0, "laser_wdn_min": 0.0, "servo_pix_from": 90.0, "cooler_tout": 300.0, "servo_angle_from": 0.0, "servo_calib": "[-1.9174921013161362e-09, 3.9322238269163779e-05, -0.27385609119055809, 653.59552119713567]", "laser_autoctl": 0, "servo_pix_to": 3682.0, "laser_pw": 100.0, "cooler_on": 0, "laser_volt": 4.0, "cooler_autoctl": 0, "cooler_curr": 70.0, "cooler_startup": 10.0, "laser_fixed_pw": 0, "gain": 1.3, "offset": 2.53059635486, "servo_calib_degree": 3.0, "laser_curr": 55.0, "shutter": 8200.0, "servo_calib_step": 1.0, "laser_fixed_curr": 0, "exp": 2000.0, "ccd_volt": 4.7, "bt_addr": "00:06:66:62:5A:E3", "servo_delay": 500.0, "laser_autooff": 1}
#proc_cfg={"flat_auto_wnd": 200.0, "flat_auto_fr": 200.0, "flat_auto_shift": 5.0, "yconv": 1, "flatten": 1, "flatten_strength": 100.0, "xfrom": 300.0, "auto_max_frame": 2000.0, "auto_signal": 48000.0, "flat_auto_tol": 0.1, "autoclip": 1, "xrel_range": 0.0, "flat_auto_to": 4000.0, "intensity_adj": 1.0, "xrel": 7852.0, "rmhot": 1, "flat_auto_slit": 4.999999999999997, "auto_ini_exp": 300.0, "auto_off": 0, "xto": 2860.0, "flat_auto_ref": "", "flat_auto_rank": 1, "autobackg": 0, "xrel_adj": 0.0, "auto_black_lvl": 1, "base_wnd": 100.0, "sub_baseline": 0, "xconv": 2, "auto_max_exp": 1000.0, "auto_total_exp": 10000.0, "auto_exp": 0, "rmripple": 0, "black_lvl": 8240.275, "shutter_clip_adj": 0.0, "auto_bckg": 0, "flat_auto_thr": 0.9, "subbackg": 1}
316.8218498245369 23480.37613900485
317.89969571804795 23231.51118026635
318.977263876126 23272.614839635986
320.05455438786703 23103.632099026025
321.1315673423287 22997.96223528571
322.2083028285215 23049.747771225477
323.2847609354267 22944.647927815975
324.3609417519747 22793.02723932595
325.43684536705587 22773.607716723283
326.5124718695279 22632.808253509997
327.58782134820103 22586.312948571474
328.66289389184385 22589.825460484404
329.7376895891921 22481.343615627884
330.8122085289342 22262.522304645594
331.88645079971866 22303.537126085765
332.9604164901575 22268.814864212884
334.03410568881554 22145.370893726533
335.1075184842266 22205.03980536778
336.18065496487543 22119.991652096087
337.2535152192122 22080.098309767323
338.32609933564163 21961.280042519127
339.39840740253203 21812.98929012286
340.4704395082099 21872.189339740497
341.5421957409617 21778.618584168427
342.6136761890357 21914.305218662892
343.6848809406365 21752.11484310115
344.75581008392874 21694.16478900465
345.82646370703696 21511.565193491413
346.8968418980512 21603.63713414564
347.96694474501055 21576.493510984004
349.0367723359268 21540.179144755362
350.106324758759 21404.000525675656
351.1756021014353 21438.341602908957
352.2446044518383 21327.831616909167
353.31333189781435 21408.118197019805
354.38178452716966 21342.97011486321
355.449962427665 21337.39711732576
356.51786568702846 21152.35923640063
357.58549439294256 21395.895314692807
358.6528486330535 21340.161421698074
359.71992849496564 21336.620740587117
360.7867340662433 21215.195674421382
361.8532654344144 21288.200062281227
362.9195226869597 21336.091713258407
363.9855059113288 21273.1147241104
365.05121519492604 21249.109657053752
366.11665062511565 21257.509506089875
367.1818122892273 21249.19261843054
368.2467002745434 21304.263792031477
369.31131466831175 21294.075501401836
370.375655557742 21302.346438339115
371.4397230299983 21279.055304649366
372.5035171722102 21246.701071687894
373.5670380714637 21241.03121674467
374.6302858148101 21296.60934177185
375.6932604892554 21239.733426355382
376.7559621817709 21292.80881529654
377.81839097928605 21162.336421818974
378.8805469686886 21197.27359702519
379.94243023683157 21203.490822106825
381.0040408705263 21076.201428464603
382.0653789565458 21053.90862058565
383.1264445816196 20994.109498208178
384.1872378324406 21037.557032453613
385.2477587956637 21062.392209609134
386.3080075579037 20883.401141991275
387.3679842057336 20827.65409640138
388.4276888256918 20832.217396241173
389.48712150426945 20887.044727009867
390.54628232792857 20727.33432880155
391.6051713830857 20766.055356490288
392.66378875611736 20657.19007495828
393.7221345333637 20724.642054508637
394.7802088011249 20599.825902230674
395.838011645661 20671.42101255968
396.89554315319765 20545.54903045685
397.9528034099112 20489.202959458467
399.00979250194723 20381.219383086394
400.06651051541485 20451.838583537578
401.1229575363741 20382.130896539016
402.17913365085224 20440.716148242103
403.23503894483656 20357.379211006984
404.2906735042761 20292.420586494212
405.3460374150818 20152.260584359938
406.401130763119 20149.282271809592
407.455953634224 20203.62559948999
408.5105061141876 20153.247607471458
409.56478828876243 19946.294742582035
410.6188002436629 19962.949427299693
411.6725420645689 19927.83948734269
412.72601383711117 20016.947579231386
413.77921564689314 20011.258010199148
414.8321475794728 19859.94380175244
415.88480972036814 19737.17193769683
416.93720215506437 19820.782883032156
417.9893249690049 19666.38628159806
419.04117824759123 19582.399151590722
420.09276207619223 19645.49859285839
421.144076540133 19678.187670014566
422.1951217247042 19520.238725146948
423.24589771515275 19565.76406026421
424.2964045966928 19455.17087947501
425.34664245449494 19564.116260486197
426.3966113736933 19436.706888273606
427.4463114393875 19386.54994015987
428.49574273662984 19365.355775106844
429.5449053504417 19387.782341698527
430.5937993658026 19350.945123559883
431.6424248676558 19276.251683047205
432.6907819409007 19305.615880683144
433.73887067040596 19297.57271839679
434.7866911409965 19309.83124327989
435.8342434374608 19290.07437057183
436.88152764455117 19115.07208466176
437.9285438469724 19200.68852453045
438.9752921294057 19115.901010392965
440.02177257648145 19153.542431816222
441.06798527279716 18991.773527134515
442.1139303029122 19247.258680133007
443.1596077513459 19071.341811338374
444.2050177025794 19186.312394959146
445.25016024105753 19132.352123248
446.2950354511886 19088.731449428167
447.33964341733736 19049.020955548003
448.383984223834 18984.390810048622
449.4280579549686 18893.786285279053
450.471864694995 18966.63387655985
451.5154045281306 18903.56980783844
452.5586775385509 18915.157956186402
453.60168381039693 18844.504789248993
454.64442342776783 18968.14194834559
455.6868964747264 18893.909351959654
456.7291030353008 18839.193495228
457.77104319347563 18877.283361879752
458.8127170332027 18874.636273547356
459.854124638392 18930.135965383663
460.895266092919 19004.54302055017
461.93614148061897 18978.579824153458
462.97675088529104 19086.583465083466
464.01709439069236 19008.344255250482
465.0571720805492 19114.345464794245
466.0969840385442 19055.085961226705
467.1365303483253 19140.626500647824
468.17581109350067 19112.849726980974
469.2148263576437 19048.204275580843
470.2535762242878 19148.630121126498
471.29206077693016 19230.66615278308
472.33028009902773 19121.41554814405
473.3682342740012 19330.891054652664
474.40592338523857 19260.049205071253
475.4433475160804 19373.010155121818
476.4805067498364 19360.986905920145
477.51740116978 19344.134591583792
478.5540308591426 19427.137523189085
479.59039590112116 19581.474000529393
480.6264963788726 19508.826751848093
481.6623323755193 19807.767110820852
482.6979039741436 19853.9102579047
483.7332112577915 20024.22233345291
484.76825430947247 20285.293580827136
485.80303321215797 20405.234458038878
486.837548048783 20428.443856075293
487.8717989022425 20655.504670781385
488.90578585539697 20535.538377895376
489.9395089910686 20804.273838223624
490.97296839203955 20546.679360911934
492.00616414106116 20432.896882713398
493.0390963208429 20434.126761861997
494.0717650140559 20281.01961426604
495.10417030333883 20170.44901653967
496.1363122712901 19959.69810783516
497.16819100046814 19797.059274706957
498.1998065734024 19589.718481751774
499.2311590725767 19532.655025295837
500.26224858044407 19280.738809276874
501.2930751794156 19163.552749755498
502.3236389518679 19045.971088746675
503.35393998014115 18854.654139990133
504.38397834653733 18903.820123146485
505.4137541333221 18789.11866680134
506.4432674227228 18778.12136271142
507.4725182969323 18615.457769227083
508.5015068381035 18582.43703296054
509.53023312835467 18504.600126597827
510.55869724976765 18471.385357745658
511.58689928438434 18398.363697672878
512.6148393142121 18303.56628270295
513.6425174212218 18389.543284591648
514.6699336873462 18409.296904421553
515.6970881944835 18372.804420936405
516.7239810244901 18282.36648703311
517.7506122591931 18157.740368713163
518.7769819803761 18260.437782176126
519.8030902697901 18237.944063537718
520.8289372091476 18207.979643214996
521.8545228801249 18292.583940110304
522.8798473643619 18188.698873553993
523.9049107434621 18086.894103608545
524.9297130989908 18209.432694403476
525.9542545124805 18031.395999628265
526.9785350654201 18086.630621966317
528.0025548392696 18105.2735980335
529.0263139154504 18016.53191154083
530.0498123753423 18059.01932509035
531.073050300296 17876.09850537827
532.0960277716204 17831.0914786463
533.1187448705896 17994.88932004487
534.1412016784416 17790.615720228823
535.1633982763833 17850.245717641563
536.1853347455726 17621.76963868206
537.2070111671401 17695.64287629462
538.2284276221817 17669.497237286334
539.2495841917516 17610.82834024001
540.2704809568677 17455.940229704975
541.2911179985167 17491.115539895465
542.3114953976419 17394.947675448853
543.3316132351592 17398.7400409123
544.3514715919409 17294.907842234083
545.3710705488247 17269.23496201881
546.3904101866156 17271.60494580723
547.4094905860784 17395.1014678587
548.4283118279418 17216.4577656271
549.4468739929034 17246.392682209298
550.4651771616191 17144.08560826697
551.4832214147063 17181.489923153298
552.501006832761 17175.640275987225
553.5185334963226 17071.070705802056
554.5358014859103 17125.856236899857
555.5528108820035 17143.337781083617
556.5695617650363 17112.177749994335
557.5860542154242 17230.202595468294
558.6022883135283 17128.933295559906
559.6182641396881 17052.55137083898
560.6339817741991 17044.507901192937
561.6494412973225 17087.694559612275
562.6646427892883 17156.59081493225
563.6795863302796 16972.829610836732
564.694272000459 16979.80134915125
565.7086998799423 17154.417153338618
566.7228700488104 17052.13329650586
567.7367825871115 17040.260536451828
568.7504375748576 17054.331000353046
569.7638350920224 17093.911462446955
570.7769752185486 17037.197121281475
571.7898580343353 17072.41876603894
572.802483619258 17017.175903833675
573.8148520531431 17162.00016791954
574.8269634157932 17150.34175950281
575.8388177869692 17187.542295603485
576.8504152463938 17199.496006884063
577.8617558737587 17374.635674351488
578.8728397487175 17337.690295807417
579.883666950891 17281.08571061676
580.8942375598654 17446.02102375293
581.9045516551851 17610.354538401647
582.9146093163617 17733.362385442648
583.924410622878 17723.092293669986
584.9339556541727 17692.121339471974
585.9432444896538 17856.688064920763
586.9522772086875 17751.174523529313
587.9610538906127 17812.047070375844
588.9695746147318 17642.029219606
589.9778394603054 17681.5392760039
590.985848506567 17642.4211567939
591.9936018327098 17559.197520002625
593.0010995178891 17341.86875470241
594.0083416412344 17437.827437963577
595.0153282818283 17251.605283437268
596.0220595187293 17175.951261984203
597.0285354309508 17144.61570478928
598.0347560974806 17122.089097408596
599.0407215972609 17057.430856239465
600.0464320092051 17072.914273639435
601.0518874121954 16952.29129335703
602.0570878850685 16994.97427523223
603.062033506636 16987.37760977583
604.0667243556636 16998.543927477283
605.0711605108936 16949.8621381629
606.0753420510264 17106.608239915506
607.0792690547278 16952.77367896908
608.082941600629 16941.074430275436
609.0863597673306 16958.34673755812
610.0895236333909 17140.669901925605
611.0924332773357 17254.128782647535
612.0950887776617 17289.83783638802
613.0974902128219 17362.992689096187
614.0996376612384 17358.24042017087
615.1015312013005 17511.96712787086
616.1031709113595 17595.41752663135
617.1045568697336 17613.45820015577
618.1056891547069 17827.424157777645
619.1065678445229 18011.01554913067
620.1071930173985 18326.418435580672
621.1075647515099 18284.85259068889
622.1076831250048 18482.65719028965
623.1075482159849 18602.646461006072
624.1071601025305 18793.95211833858
625.1065188626781 18910.42890523186
626.105624574433 19274.5304742449
627.1044773157682 19274.948428843407
628.1030771646128 19459.655227045532
629.1014241988742 19606.038261535323
630.0995184964158 19750.76756265609
631.0973601350688 19894.086288002738
632.0949491926294 20099.397890347955
633.0922857468631 19867.11240069822
634.089369875499 19893.462507931723
635.0862016562278 19982.308344012734
636.0827811667077 19739.716958081066
637.0791084845641 19698.610943092943
638.0751836873878 19472.494354315906
639.0710068527369 19375.594021804198
640.0665780581294 19193.973851510826
641.0618973810506 18961.2054940713
642.0569648989604 18969.711038781366
643.0517806892676 18652.542735018593
644.0463448293649 18590.548105265305
645.040657396592 18364.923534217192
646.0347184682723 18195.260498516618
647.0285281216875 18067.04777551756
648.0220864340772 17883.67200534837
649.0153934826558 17843.24367639562
650.0084493446047 17770.812646312595
651.0012540970674 17555.75072485021
651.9938078171526 17454.419511336866
652.9861105819346 17392.009427072313
653.9781624684565 17381.227602127303
654.9699635537254 17232.332547104852
655.9615139147136 17287.62155359067
656.9528136283589 17049.62990926962
657.9438627715699 17126.524135529602
658.9346614212154 16944.653481191322
659.925209654135 16837.614031753463
660.9155075471263 16890.202235809124
661.9055551769616 16874.117939136875
662.895352620375 16804.090224886793
663.8848999540678 16755.23220936502
664.8741972547068 16525.409393095244
665.863244598926 16619.65823572954
666.8520420633213 16515.40800610236
667.8405897244611 16430.464645270713
668.8288876588758 16273.234463852325
669.8169359430613 16422.16150309567
670.8047346534822 16354.894813117566
671.7922838665672 16247.372613215533
672.7795836587156 16292.905349045763
673.766634106285 16418.446757801565
674.7534352856092 16199.965685482064
675.7399872729766 16211.971419457215
676.7262901446538 16180.40947580678
677.712343976862 16241.488920583171
678.6981488457986 16339.41685663138
679.6837048276229 16109.803888799393
680.6690119984596 16051.940043234436
681.6540704344043 16148.240032407168
682.6388802115107 15988.321474407083
683.6234414058108 16005.561919891126
684.6077540932874 15985.923172040155
685.591818349907 16021.939253466966
686.575634251587 15933.05015162561
687.5592018742263 15849.283571725155
688.5425212936734 15730.390218275332
689.5255925857564 15761.02148949469
690.5084158262707 15681.383275061322
691.4909910909646 15751.251801936596
692.4733184555644 15584.97408405366
693.4553979957618 15687.295221031984
694.4372297872123 15649.09899973898
695.4188139055404 15623.567272788705
696.4001504263324 15416.762123247765
697.3812394251509 15469.040189134812
698.3620809775111 15494.116114330016
699.3426751589104 15557.3486643101
700.3230220448004 15483.562965233106
701.3031217106054 15498.199044618794
702.2829742317172 15549.05278647612
703.2625796834873 15439.068836510743
704.2419381412474 15370.920769140575
705.22104968028 15523.434969459597
706.1999143758458 15468.331823989382
707.178532303169 15364.0899783358
708.1569035374378 15486.230793181036
709.1350281538107 15486.194946359037
710.1129062274158 15564.442050814807
711.0905378333373 15608.384921289773
712.0679230466376 15623.530294441667
713.0450619423427 15789.797296735467
714.0219545954424 15954.643280935998
714.9986010808989 15766.07386970196
715.9750014736292 15980.243447835319
716.9511558485392 16238.452144395205
717.9270642804786 16156.886579675014
718.9027268442787 16318.427183924021
719.8781436147328 16194.010967101372
720.8533146666014 16272.091917373764
721.828240074612 16224.515701887936
722.8029199134635 16179.378710034367
723.7773542578125 16038.947875763417
724.751543182294 16013.69575095228
725.7254867615029 15911.849361588747
726.6991850700015 15778.713266226725
727.6726381823228 15718.063633055563
728.6458461729599 15650.178334368544
729.6188091163858 15650.811754891245
730.5915270870246 15650.17092284773
731.5640001592856 15546.325858899407
732.536228407529 15559.58529770126
733.5082119060917 15577.06741271177
734.4799507292755 15472.56684157892
735.4514449513481 15548.301965976736
736.4226946465496 15687.79672197167
737.3936998890786 15596.119171321925
738.3644607531078 15394.126466915457
739.3349773127793 15401.664965284208
740.3052496421951 15468.98937620386
741.27527781543 15325.781012568541
742.2450619065221 15268.533794902245
743.2146019894826 15162.866390001724
744.183898138288 15171.255123424096
745.1529504268801 15135.944248961305
746.1217589291682 14995.024716435237
747.0903237190341 14841.629063048375
748.058644870318 14969.176117010695
749.0267224568397 14789.419844145665
749.994556552374 14740.040908380965
750.9621472306771 14758.990400037597
751.9294945654583 14717.378684928557
752.8965986304011 14648.979912252025
753.8634594991636 14625.714336278823
754.8300772453586 14634.22839052318
755.7964519425768 14612.263520053759
756.762583664371 14588.90459290059
757.7284724842611 14586.632214585745
758.6941184757416 14682.116636900431
759.6595217122667 14630.486731330742
760.6246822672638 14524.110376480432
761.5896002141235 14425.661152839684
762.5542756262093 14494.383894319948
763.5187085768503 14632.208631353526
764.4828991393406 14500.592601761495
765.4468473869474 14463.464817244687
766.4105533929032 14445.368620071244
767.3740172304078 14424.777147006109
768.3372389726283 14386.148415518881
769.3002186926988 14273.77595763714
770.2629564637282 14255.16855012801
771.2254523587872 14256.612887954037
772.1877064509154 14157.257472252164
773.1497188131179 14068.858994993818
774.1114895183728 14065.950085481269
775.0730186396268 14035.760247076052
776.0343062497905 13934.921368311178
776.9953524217381 13876.79379583252
777.9561572283274 13958.990685704248
778.9167207423689 13842.013234594695
779.8770430366476 13876.220152012622
780.8371241839159 13809.31197257633
781.7969642568951 13898.756883651684
782.7565633282757 13942.362482827544
783.7159214707099 13733.92218980325
784.6750387568281 13873.102151711311
785.6339152592227 13796.456607377739
786.5925510504512 13711.790749047874
787.5509462030477 13759.888269166506
788.5091007895098 13805.215159848663
789.4670148823006 13728.405429974087
790.4246885538596 13860.183837757937
791.3821218765861 13707.301893332196
792.3393149228505 13672.514349253059
793.2962677649975 13713.293688401605
794.2529804753303 13827.046686352758
795.20945312613 13862.237113103514
796.1656857896378 13771.6374610426
797.1216785380675 13794.965197689506
798.0774314435985 13946.490482077297
799.0329445783846 14037.646843655404
799.9882180145414 14072.119601910852
800.9432518241574 14010.253140051538
801.89804607929 14133.048306933375
802.852600851962 14139.140754205295
803.8069162141637 14226.67780486943
804.760992237856 14304.966136006511
805.714828994971 14312.799240931108
806.6684265574077 14373.97506096593
807.6217849970271 14332.381845828044
808.574904385674 14221.916952311547
809.527784795142 14241.300572758239
810.4804262972102 14301.34809297733
811.4328289636178 14113.975416959063
812.3849928660748 13927.398468505158
813.3369180762638 13931.051887680162
814.2886046658241 13880.366661472319
815.2400527063783 13776.666346570473
816.1912622695108 13728.282140573905
817.1422334267718 13688.980935300551
818.0929662496856 13519.345772599161
819.0434608097457 13389.691702628767
819.9937171784059 13356.840616232768
820.9437354271013 13305.07788769291
821.8935156272255 13335.522544469155
822.8430578501484 13212.267861114242
823.7923621672016 13067.708001025432
824.7414286496896 13213.056389794225
825.6902573688876 13160.667242770229
826.6388483960363 13188.31172237421
827.5872018023492 13117.621643165834
828.5353176590033 13040.438753629433
829.4831960371503 13012.907734411869
830.4308370079016 13108.03000507865
831.3782406423525 13020.480341071872
832.3254070115545 12950.963778965166
833.2723361865319 12909.0041143814
834.2190282382799 12933.253300921377
835.1654832377644 13046.296463733659
836.1117012559116 12958.135902605953
837.0576823636256 12963.794840418797
838.003426631778 12840.598152281615
838.9489341312074 12869.114890826231
839.8942049327197 12989.754621198692
840.8392391070975 12957.784458138933
841.7840367250865 12940.095182578578
842.7285978573982 12774.235123202096
843.672922574724 12913.064076490049
844.6170109477152 12832.200085162647
845.560863046996 12848.291826797886
846.5044789431595 12856.480201171205
847.4478587067697 12785.19175538133
848.3910024083561 12930.63609418946
849.333910118421 12809.69787044721
850.2765819074339 12719.82488359736
851.2190178458332 12860.80018546123
852.161218004032 12750.279457081217
853.1031824524016 12821.51229287251
854.0449112612987 12772.704832260064
854.9864045010327 12899.786351864606
855.9276622418947 12680.115985467215
856.8686845541379 12809.34033612724
857.8094715079915 12682.116685954765
858.7500231736467 12839.584837308239
859.690339621271 12844.406056664917
860.6304209209939 12871.505401595832
861.5702671429244 12719.591795631113
862.5098783571284 12782.320992200031
863.4492546336569 12866.202245837974
864.3883960425155 12759.802432887716
865.3273026536863 12708.26411490689
866.2659745371238 12728.66081957643
867.2044117627465 12874.579705746593
868.1426144004472 12757.657966178991
869.0805825200823 12894.785058109059
870.0183161914847 12897.664729444152
870.9558154844526 12932.678573171344
871.8930804687552 12889.400643594121
872.8301112141307 12941.090706812907
873.7669077902865 13010.540820246386
874.7034702669062 13160.442703815565
875.6397987136315 12999.108338516076
876.5758932000863 13025.390299868108
877.5117537958522 13197.890902596864
878.4473805704911 13066.616713674932
879.3827735935283 13092.637105519354
880.3179329344603 13240.348074831858
881.2528586627541 13337.877297734018
882.1875508478479 13346.054999044372
883.1220095591489 13191.798032665178
884.0562348660296 13145.635600314024
884.9902268378391 13260.114840782506
885.9239855438955 13120.69525644611
886.8575110534839 13072.066255027246
887.7908034358588 13012.811398670474
888.7238627602474 13080.708009240445
889.6566890958475 13078.486670207116
890.5892825118208 12938.705395056691
891.5216430773125 12906.601730348546
892.4537708614189 12932.53232303627
893.3856659332196 12784.523289140829
894.3173283617652 12721.442707662867
895.2487582160684 12703.951783182802
896.179955565116 12604.952508828026
897.110920477864 12517.706429177353
898.0416530232451 12584.957634314758
898.9721532701478 12477.195810129178
899.9024212874428 12554.918086664931
900.8324571439662 12433.807411337797
901.7622609085302 12482.784593513297
902.6918326499072 12397.490729904
903.6211724368477 12526.882065723737
904.5502803380696 12540.901244678298
905.4791564222614 12503.607081958635
906.4078007580792 12384.187420410017
907.3362134141571 12407.477735096034
908.2643944590909 12435.383181427182
909.1923439614493 12340.357113492473
910.1200619897754 12246.351723723415
911.0475486125779 12393.327089726405
911.9748038983344 12356.034308835933
912.9018279155007 12167.532177926874
913.8286207324982 12185.016569563115
914.7551824177117 12335.472684031422
915.6815130395116 12302.372638799045
916.6076126662283 12110.032257678413
917.533481366163 12204.66688509112
918.4591192075914 12218.780270803967
919.3845262587565 12234.990969493667
920.3097025878706 12085.227308268219
921.2346482631237 12032.618853115488
922.1593633526682 12157.64019114901
923.0838479246304 12108.926139739666
924.0081020471061 12225.34265748391
924.9321257881656 11967.82653676726
925.8559192158464 12043.655970948
926.7794823981512 12012.154960169375
927.7028154030686 11949.77114887798
928.6259182985414 11909.298739729036
929.5487911524906 12081.478610486338
930.4714340328119 12091.05305175436
931.3938470073608 11937.767855513559
932.3160301439748 11933.356357116903
933.2379835104548 12007.750393550115
934.1597071745709 11999.842604028418
935.0812012040769 11977.748756411154
936.002465666681 12027.557109186677
936.9235006300696 12033.263516529518
937.8443061619055 12024.843587499628
938.7648823298077 11918.988197768938
939.6852292013809 11785.732512366667
940.6053468441951 11951.876506902465
941.5252353257874 11905.963976503637
942.4448947136698 11979.01784544071
943.364325075323 11882.120120518639
944.2835264782043 11931.941603622265
945.2024989897309 11913.698320228057
946.1212426773054 11974.000543365775
947.0397576082851 11886.999185630531
947.9580438500125 11983.83712413647
948.8761014697939 11876.32786804399
949.7939305349064 12008.67577775277
950.7115311125999 11926.66801702674
951.6289032700952 11970.381897999487
952.5460470745875 11974.925113871976
953.4629625932339 11941.824682606597
954.3796498931715 11906.198895640857
955.2961090415029 11935.648991578577
956.2123401053068 11871.415348264227
957.1283431516276 11852.74174129408
958.0441182474842 11932.855347206892
958.9596654598663 11928.074997198404
959.8749848557309 11888.468982440205
960.7900765020167 11829.78885214222
961.7049404656209 11833.165665075478
962.6195768134185 11951.210037728995
963.5339856122537 11845.285213593295
964.4481669289453 11885.9587488016
965.3621208302793 11741.676444317955
966.2758473830145 11764.422977741979
967.1893466538822 11859.233802805233
968.1026187095813 11808.858064586328
969.0156636167867 11821.433533382795
969.9284814421426 11920.767396224912
970.8410722522622 11760.127806526894
971.753436113735 11767.699317856737
972.6655730931161 11765.204793049974
973.5774832569368 11843.006646818327
974.4891666716958 11805.413915690751
975.4006234038698 11778.383922635716
976.3118535198955 11748.284390590698
977.2228570861935 11879.614808741237
978.1336341691494 11809.781238538959
979.0441848351202 11735.00845897703
979.9545091504333 11758.01721228841
980.864607181391 11822.92838414415
981.7744789942699 11797.691101577391
982.6841246553086 11780.93556504944
983.5935442307236 11740.277907592132
984.5027377867027 11855.94809931166
985.4117053894024 11918.982612375981
986.3204471049557 11858.74960508498
987.2289629994648 11886.050178289757
988.1372531390007 11951.389619785712
989.0453175896091 11860.463448261911
989.9531564173067 11828.793025371602
990.860769688079 11817.239882163753
991.7681574678918 12065.474335730894
992.6753198226706 11999.414104912747
993.582256818323 12004.114142117995
994.4889685207218 11957.418135660553
995.3954549957143 12171.50802377202
996.301716309119 12051.869015798784
997.2077525267232 12089.846867025673
998.1135637142943 12022.510792389969
999.0191499375615 12099.61453520238
999.924511262232 11989.870481290545
1000.8296477539861 12170.218575450155
1001.7345594784656 12000.069335567452
1002.6392465012996 12092.341618116185
1003.5437088880753 12081.414741382077
1004.4479467043584 12021.65386339818
1005.3519600156869 11908.8970884294
1006.2557488875718 12133.386940038738
1007.1593133854858 12041.547225847613
1008.0626535748888 12058.919706075576
1008.9657695212009 11876.900454636027
1009.8686612898182 12087.768560558714
1010.7713289461135 12003.48286964447
1011.6737725554212 11986.746830537562
1012.5759921830577 11987.95628866524
1013.4779878943027 12034.078911471399
1014.379759754418 11946.0019734435
1015.2813078286254 11856.675492562315
1016.18263218213 11840.577506600759
1017.0837328801026 11795.274096177152
1017.9846099876886 11808.916730426445
1018.8852635700023 11751.8995412002
1019.7856936921362 11734.806169849091
1020.6859004191447 11806.359800800356
1021.5858838160675 11774.901135649958
1022.4856439479063 11645.063148002544
1023.3851808796389 11606.243461950002
1024.2844946762143 11759.409072923328
1025.183585402554 11665.18027162284
1026.082453123554 11476.880308017086
1026.9810979040776 11584.216721974142
1027.8795198089647 11548.073058259073
1028.777718903024 11653.566094131353
1029.6756952510368 11570.961287113883
1030.5734489177648 11466.395020278238
1031.4709799679313 11592.460777797036
1032.3682884662358 11549.97485377169
1033.2653744773506 11431.276760848923
1034.1622380659192 11382.141035370674
1035.058879296559 11627.93418256442
1035.9552982338591 11513.945773361245
1036.8514949423825 11509.596899936201
1037.7474694866614 11559.401723743194
1038.6432219312028 11417.552270396802
1039.5387523404825 11570.409851432873
1040.4340607789582 11498.190479758396
1041.3291473110476 11576.94043729503
1042.2240120011465 11642.377784833012
1043.1186549136273 11678.832684049172
1044.0130761128294 11591.342001920546
1044.9072756630649 11662.567456118817
1045.8012536286205 11754.968853200004
1046.6950100737577 11625.533178470356
1047.588545062701 11854.697749089566
1048.481858659663 11786.019548026457
1049.3749509288118 11849.972054370872
1050.2678219343034 11806.838966595697
1051.1604717402515 11733.602476420532
1052.0529004107575 11760.479933692786
1052.9451080098825 11805.201480304857
1053.8370946016694 11723.02029884099
1054.7288602501267 11779.604514007417
1055.6204050192446 11721.703199890037
1056.511728972977 11768.4148940071
1057.402832175254 11594.304180892877
1058.2937146899785 11732.412393243061
1059.1843765810263 11594.288488095826
1060.0748179122456 11835.296319188546
1060.9650387474576 11658.734338414752
1061.855039150456 11781.6146976395
1062.7448191850071 11660.135932753281
1063.6343789148505 11675.302979608086
1064.5237184037014 11791.582148133266
1065.412837715241 11722.84263803557
1066.3017369131267 11674.272549894991
1067.190416060992 11719.853187073739
1068.0788752224398 11606.653402664175
1068.9671144610438 11606.84166637981
1069.8551338403558 11625.835535056498
1070.7429334239023 11720.186478513799
1071.6305132751695 11547.751949242956
1072.517873457633 11682.719547203389
1073.4050140347335 11501.329502993194
1074.2919350698776 11595.311135942582
1075.1786366264623 11570.623215563031
1076.0651187678395 11641.128869635193
1076.95138155735 11432.441595447208
1077.8374250582929 11549.422669667032
1078.7232493339507 11447.284614104996
1079.608854447577 11435.3582353908
1080.4942404623907 11337.684826241157
1081.3794074415982 11389.33745489945
1082.2643554483657 11423.903550189945
1083.149084545841 11350.313875315405
1084.033594797138 11214.316201051206
1084.9178862653516 11389.183045751208
1085.8019590135427 11407.313492435504
1086.6858131047484 11267.10806114609
1087.5694486019802 11364.486879264954
1088.4528655682225 11332.329833553082
1089.3360640664287 11287.322504264408
1090.2190441595321 11330.453373534587
1091.1018059104317 11332.967802473568
1091.98434938201 11460.487189861296
1092.866674637111 11349.646072213463
1093.748781738559 11287.62139531553
1094.6306707491512 11269.215693221937
1095.5123417316554 11349.091637020905
1096.3937947488157 11233.91577820526
1097.2750298633455 11213.778204460255
1098.156047137938 11252.182273174945
1099.0368466352556 11297.798300815326
1099.9174284179317 11374.316126641479
1100.7977925485757 11110.236307201207
1101.6779390897755 11215.659463915777
1102.5578681040806 11202.857426318127
1103.4375796540226 11203.462322474435
1104.3170738021054 11167.218750919294
1105.1963506108077 11093.199853984124
1106.0754101425773 11136.336259225476
1106.9542524598382 11145.859894188068
1107.8328776249855 11085.645907815275
1108.7112857003904 11195.237831075463
1109.5894767483987 11157.006253190022
1110.4674508313292 11299.548215973658
1111.3452080114657 11197.628296805104
1112.2227483510815 11266.487780742436
1113.1000719124077 11420.923189656834
1113.9771787576592 11375.865843306503
1114.854068949022 11443.386504538841
1115.7307425486542 11392.743239057016
1116.6071996186893 11403.306274821536
1117.483440221229 11516.184443203249
1118.3594644183577 11580.6138976792
1119.235272272128 11578.503460637927
1120.1108638445658 11672.116965992976
1120.9862391976712 11859.413191767602
1121.8613983934229 11865.493521288941
1122.7363414937627 11945.93936146879
1123.6110685606182 11927.339112780428
1124.485579655884 12041.962027177058
1125.359874841426 12135.055018472322
1126.2339541790916 12172.282590134735
1127.1078177306936 12285.06366681811
1127.9814655580267 12136.324178201521
1128.854897722851 12281.374613880002
1129.7281142869106 12230.59572687819
1130.6011153119125 12386.557283903207
1131.473900859548 12366.272996468655
1132.3464709914697 12251.694628786297
1133.2188257693178 12282.439708075173
1134.0909652546961 12112.615009619984
1134.96288950919 11988.295113359754
1135.8345985943506 12098.366521518945
1136.7060925717087 11889.329388875227
1137.57737150277 11959.463343680472
1138.4484354490069 11843.204017343784
1139.3192844718778 11828.400356032718
1140.1899186327992 11639.255450006713
1141.060337993178 11741.787867607742
1141.930542614382 11578.095317882835
1142.8005325577597 11531.230101284531
1143.670307884635 11347.17852968819
1144.5398686563003 11500.02950975472
1145.409214934025 11363.402338719048
1146.2783467790541 11172.482910585077
1147.1472642526023 11212.014011461653
1148.0159674158622 11205.496915614007
1148.8844563300026 11097.416585070623
1149.7527310561618 11075.971978802241
1150.6207916554504 11036.425605945184
1151.4886381889592 10922.389593920961
1152.3562707177498 10903.640815229572
1153.2236893028585 11002.079207099205
1154.090894005296 11035.124818533728
1154.9578848860474 11044.42528985839
1155.8246620060709 10899.657378459397
1156.6912254262988 10812.414661372972
1157.5575752076438 10877.739428132858
1158.42371141098 10872.688729746227
1159.2896340971656 10933.064735377175
1160.1553433270346 10817.64289635699
1161.0208391613887 10873.54629548993
1161.8861216610057 10918.263488841905
1162.75119088664 10852.304557531455
1163.6160468990201 10788.620684174815
1164.4806897588442 10688.612218823297
1165.3451195267917 10821.731490020378
1166.2093362635114 10763.806131832607
1167.0733400296285 10788.153610313007
1167.9371308857444 10735.495900715287
1168.8007088924278 10765.730862873224
1169.6640741102328 10747.314403515284
1170.5272265996773 10608.629181985776
1171.390166421259 10590.762697108523
1172.252893635452 10874.899315800305
1173.1154083026995 10870.463808179771
1173.977710483421 10859.073812354047
1174.8398002380145 10657.251798260502
1175.7016776268483 10851.210255138662
1176.563342710264 10718.742090405014
1177.4247955485826 10770.619772535443
1178.2860362020947 10819.604320827731
1179.147064731069 10688.142278919522
1180.0078811957483 10785.129961347688
1180.8684856563486 10718.13367917246
1181.7288781730604 10730.316441667299
1182.589058806052 10894.442277263324
1183.4490276154593 10936.149494409012
1184.3087846614017 10799.360537868615
1185.1683300039676 10859.590649961156
1186.027663703222 11099.3656457701
1186.8867858192025 10968.025505653652
1187.7456964119228 10949.204846327313
1188.6043955413716 11031.577211445263
1189.4628832675116 11109.82239497409
1190.3211596502842 11161.098794108166
1191.179224749596 11288.716212910384
1192.0370786253388 11088.830119261573
1192.8947213373758 11278.008193715612
1193.7521529455407 11386.975376891478
1194.6093735096438 11190.293661742715
1195.466383089477 11391.4838477841
1196.3231817447977 11294.377250953548
1197.1797695353398 11424.90801051076
1198.0361465208189 11342.476168777936
1198.8923127609214 11303.67878204648
1199.7482683153048 11440.69773623916
1200.6040132436028 11469.47191452101
1201.459547605431 11278.878437297117
1202.3148714603722 11295.36650533146
1203.1699848679855 11311.351670138487
1204.0248878878065 11346.468781563857
1204.8795805793507 11185.209158248785
1205.7340630020935 11347.34466974092
1206.5883352155033 11365.184098422078
1207.4423972790064 11373.109307644081
1208.2962492520237 11142.512255964797
1209.1498911939307 11154.344923353294
1210.0033231640937 11187.545980279006
1210.8565452218427 11169.655092626916
1211.7095574264913 10972.551934304634
1212.5623598373222 10931.208659840679
1213.4149525135963 10854.29764956383
1214.2673355145507 10995.593568814911
1215.1195088993936 10853.980683177428
1215.9714727273113 10855.418141945676
1216.8232270574663 10960.362216524496
1217.6747719489904 10697.621668269323
1218.5261074609934 10795.47301398773
1219.3772336525653 10839.719127840594
1220.2281505827668 10846.012067172564
1221.0788583106296 10766.412033377706
1221.9293568951707 10734.271886858534
1222.7796463953746 10666.547201705249
1223.629726870202 10687.861170988961
1224.4795983785934 10679.468191370612
1225.3292609794553 10643.156402309247
1226.1787147316809 10676.70134632009
1227.0279596941327 10650.380074413437
1227.8769959256424 10634.525976860585
1228.7258234850306 10600.875375575353
1229.5744424310833 10458.615513629273
1230.422852822563 10641.622477154382
1231.2710547182105 10639.352504008213
1232.119048176739 10575.527874374915
1232.9668332568417 10456.116458978337
1233.8144100171812 10649.378997793126
1234.6617785163999 10583.577252484503
1235.508938813111 10498.216161424894
1236.3558909659114 10526.857183978627
1237.2026350333617 10732.644725272005
1238.049171074008 10650.978399037986
1238.8954991463652 10473.316421418336
1239.741619308932 10599.511860927774
1240.587531620169 9465.715515755914
1241.4332361385277 10639.927805594672
1242.2787329224248 10544.29581576918
1243.1240220302534 10523.259177017064
1243.9691035203869 10431.645705354067
1244.813977451171 10560.834723522781
1245.6586438809263 10499.991798340723
1246.5031028679496 10298.140986660563
1247.3473544705157 10442.141561379114
1248.1913987468706 10366.325941606114
1249.0352357552383 10399.180987651442
1249.8788655538228 10485.175795408964
1250.7222882007918 10612.707591467146
1251.565503754302 10450.584254621597
1252.4085122724755 10506.653556876448
1253.2513138134182 10477.451781044718
1254.0939084352049 10582.055220751645
1254.9362961958905 10451.791626018598
1255.7784771535007 10504.942499166096
1256.6204513660432 10492.130715440822
1257.4622188915 10582.298562937434
1258.3037797878242 10517.434061065118
1259.1451341129468 10397.669082368482
1259.9862819247755 10500.941006278134
1260.8272232811978 10516.269582319732
1261.6679582400666 10610.745655046505
1262.5084868592203 10431.94992193697
1263.34880919647 10361.487001658308
1264.1889253095997 10414.837767923531
1265.0288352563712 10470.264245099559
1265.8685390945266 10323.664817344368
1266.7080368817751 10414.84192275886
1267.5473286758115 10471.14531123284
1268.386414534294 10448.643604539368
1269.2252945148703 10284.662799433554
1270.0639686751547 10373.895671279759
1270.9024370727402 10358.32944473916
1271.7406997651997 10421.229699545738
1272.5787568100714 10266.663038437171
1273.4166082648808 10290.071037945181
1274.2542541871244 10310.48760562542
1275.091694634275 10537.722424031996
1275.9289296637817 10309.519314675961
1276.7659593330663 10383.828227093003
1277.6027836995308 10340.63884173574
1278.4394028205552 10379.554971765683
1279.2758167534867 10422.985493427655
1280.112025555658 10212.669919708536
1280.9480292843746 10367.723680788342
1281.7838279969128 10183.920052450025
1282.6194217505326 10296.332490313629
1283.4548106024686 10282.427212248203
1284.289994609926 10240.303058189875
1285.1249738300921 10372.270394962245
1285.959748320127 10202.087239178612
1286.7943181371702 10251.566764482528
1287.6286833383328 10296.889016553472
1288.4628439807038 10362.923119179311
1289.2968001213521 10311.980627859943
1290.1305518173194 10263.77653406321
1290.9640991256183 10299.265618212983
1291.7974421032523 10246.218613313047
1292.630580807183 10208.653742152594
1293.463515294361 10308.729425474387
1294.29624562171 10414.331292333449
1295.12877184613 10247.377357658594
1295.961094024493 10243.485597815314
1296.79321221365 10263.279169273645
1297.6251264704333 10368.667281116315
1298.4568368516466 10408.887928611159
1299.2883434140658 10392.746048496721
1300.1196462144526 10272.461088166094
1300.9507453095375 10392.78111063632
1301.7816407560313 10456.762949449203
1302.6123326106172 10411.510957549559
1303.4428209299622 10305.968307866777
1304.2731057707024 10593.354375633535
1305.1031871894502 10409.89719889706
1305.933065242798 10388.727518354792
1306.7627399873181 10382.341021543887
1307.5922114795467 10724.355297873422
1308.4214797760123 10495.597207467628
1309.2505449332057 10485.600302210347
1310.0794070076026 10407.629833553268
1310.9080660556538 10623.81880195133
1311.736522133786 10553.269946328332
1312.5647752983987 10498.922880728911
1313.3928256058734 10358.273460680113
1314.2206731125661 10553.529040534653
1315.048317874809 10578.745761402037
1315.8757599489109 10548.589239763762
1316.7029993911547 10578.946753248902
1317.5300362578055 10724.02414677456
1318.356870605101 10577.447737451035
1319.183502489257 10422.729680342867
1320.0099319664623 10672.74756443954
1320.836159092889 10654.586133347177
1321.66218392468 10585.009609815623
1322.4880065179532 10494.859547971242
1323.3136269288134 10574.407868390299
1324.1390452133292 10739.719113362513
1324.9642614275563 10687.265468338595
1325.7892756275214 10626.560357557932
1326.6140878692295 10467.754925166675
1327.4386982086617 10701.626053562151
1328.2631067017755 10484.214116924288
1329.0873134045069 10569.430520317399
1329.911318372764 10490.586349132504
1330.735121662441 10582.498966944182
1331.558723329399 10531.19886615938
1332.3821234294774 10478.912978448512
1333.2053220185007 10473.484270410274
1334.0283191522612 10423.818155073433
1334.851114886529 10509.627874226975
1335.6737092770582 10356.862953096808
1336.4961023795695 10341.334945774617
1337.3182942497697 10251.523690283822
1338.1402849433325 10338.898832415212
1338.962074515921 10283.023647734533
1339.7836630231632 10176.795285818343
1340.6050505206676 10377.983524641939
1341.426237064028 10297.236854561994
1342.2472227088037 10115.156540778966
1343.0680075105338 10069.792723917719
1343.888591524741 10124.185302486108
1344.7089748069138 10239.729677931351
1345.5291574125276 10182.366208296497
1346.3491393970307 9919.536240979336
1347.168920815846 10202.73250843669
1347.9885017243778 10018.854745237428
1348.8078821780036 10064.312975724908
1349.6270622320844 10009.302960022402
1350.4460419419447 9992.60595454871
1351.2648213629054 9921.09484270856
1352.0834005502438 9889.07278617667
1352.90177955923 9869.097487789035
1353.7199584451064 9963.046930275243
1354.5379372630887 9984.230284809766
1355.355716068374 9942.48569313726
1356.1732949161305 9901.536171617583
1356.9906738615155 9928.93046646303
1357.8078529596478 9878.08944974297
1358.6248322656375 10020.039584719922
1359.441611834567 9860.036923893686
1360.2581917214866 9834.506695079934
1361.0745719814367 9792.167460066543
1361.890752669433 9799.76770148563
1362.7067338404577 9759.244812628876
1363.5225155494845 9908.396364750775
1364.3380978514506 9870.524810147346
1365.1534808012839 9773.064376584978
1365.9686644538815 9560.330860299722
1366.783648864117 9933.797059513367
1367.5984340868417 9829.50115695474
1368.413020176893 9768.229275904423
1369.2274071890715 9580.689045872945
1370.0415951781652 9755.847705700004
1370.8555841989346 9702.767632703912
1371.6693743061223 9572.093831743108
1372.48296555444 9522.36139947637
1373.2963579985844 9762.58950510747
1374.1095516932255 9674.781686046928
1374.9225466930166 9591.657299449133
1375.7353430525782 9573.064395882977
1376.5479408265164 9572.162035673533
1377.36034006941 9594.846667024232
1378.1725408358216 9599.46733742012
1378.9845431802805 9490.777706222036
1379.796347157304 9730.774901255754
1380.6079528213813 9556.185744549253
1381.4193602269788 9486.35025499476
1382.230569428546 9372.456503334502
1383.0415804805016 9555.511891839109
1383.852393437246 9436.648849997606
1384.6630083531563 9480.336771574504
1385.4734252825892 9416.557612091414
1386.2836442798798 9605.23889467846
1387.0936653993322 9485.798274986748
1387.9034886952395 9483.35558323829
1388.713114221864 9396.703133725132
1389.5225420334482 9438.533552240027
1390.331772184214 9432.262244920657
1391.1408047283585 9362.225992672877
1391.9496397200564 9405.772485511148
1392.758277213461 9455.701056225484
1393.5667172627054 9452.6057188788
1394.3749599218918 9335.374185858593
1395.1830052451114 9336.195380172221
1395.9908532864265 9386.60867815861
1396.7985040998774 9434.25730447396
1397.6059577394808 9204.48248939333
1398.4132142592352 9273.80077671578
1399.2202737131156 9302.783714785339
1400.027136155073 9451.867165122649
1400.8338016390353 9246.876130797598
1401.6402702189134 9103.203788889978
1402.446541948586 9333.503288150756
1403.2526168819204 9151.497308770113
1404.058495072757 9115.695684809381
1404.8641765749107 9181.067143528533
1405.6696614421799 9280.109337488238
1406.4749497283356 9352.650837776691
1407.280041487129 9128.410876378117
1408.084936772295 8938.933249950876
1408.8896356375335 9123.774468349873
1409.6941381365323 9214.166942898157
1410.498444322955 9001.946150665426
1411.3025542504402 9074.456390178046
1412.106467972606 9074.904394853434
1412.9101855430508 9069.54176488036
1413.7137070153458 8923.616891397967
1414.5170324430437 8956.236229358119
1415.320161879672 9017.98064929122
1416.1230953787435 9036.029617922011
1416.925832993742 8861.747958421254
1417.7283747781275 8790.042238864438
1418.5307207853439 8952.87372376314
1419.3328710688093 8866.932402856688
1420.134825681922 8751.086107228224
1420.9365846780584 8842.096353878964
1421.7381481105713 9023.06145656147
1422.539516032788 8875.102803283607
1423.3406884980232 8738.391008692512
1424.1416655595604 8774.192635964
1424.942447270665 8773.969606083903
1425.7430336845828 8860.696500487355
1426.5434248545298 8891.048318401059
1427.3436208337116 8870.404663161944
1428.143621675301 8822.13842017541
1428.9434274324558 8883.465147915027
1429.7430381583108 8598.393709372642
1430.5424539059713 8682.684240203762
1431.3416747285337 9054.396070582749
1432.1407006790632 8847.592529195874
1432.9395318106053 8702.848412126821
1433.7381681761835 8681.724041622303
1434.5366098288014 8866.30030112068
1435.3348568214424 8847.607493509578
1436.1329092070573 8737.556118762335
1436.9307670385879 8710.304578119947
1437.7284303689503 8880.085541472481
1438.5258992510335 8900.015552729325
1439.3231737377118 8798.23017045567
1440.1202538818306 8701.109241346585
1440.9171397362225 8790.1606115931
1441.7138313536925 8740.74490408733
1442.5103287870243 8675.437005874368
1443.3066320889775 8582.025616824725
1444.1027413122956 8831.68018784207
1444.8986565096966 8747.545197006753
1445.694377733882 8714.956922181347
1446.4899050375207 8458.307812571136
1447.2852384732687 8651.672845657133
1448.0803780937622 8682.996530886503
1448.8753239516063 8546.710486970778
1449.6700760993954 8442.6363570798
1450.464634589689 8641.517745838513
1451.2589994750397 8744.292902625084
1452.0531708079689 8474.61645106561
1452.8471486409799 8329.052997439823
1453.6409330265524 8706.865800869078
1454.4345240171442 8491.152717584979
1455.2279216651987 8398.256724145953
1456.0211260231263 8435.461024307935
1456.8141371433194 8744.961800629393
1457.6069550781594 8458.760318465898
1458.3995798799897 8276.630211085852
1459.1920116011424 8283.479577684935
1459.98425029393 8364.088768639294
1460.7762960106338 8346.495743791947
1461.5681488035225 8413.072531660051
1462.3598087248392 8443.455960046009
1463.1512758268036 8588.461465168542
1463.942550161617 8366.358615680032
1464.7336317814625 8270.466087097386
1465.524520738496 8448.15833726338
1466.3152170848552 8362.718710330368
1467.1057208726506 8375.88884799988
1467.8960321539817 8174.327261643465
1468.6861509809169 8191.056600054338
1469.4760774055085 8258.349625435392
1470.265811479785 8288.949357772124
1471.055353255755 8054.304952996189
1471.844702785409 8111.7885838082875
1472.6338601207044 8256.125365960033
1473.4228253135934 8218.339966274838
1474.2115984159936 8104.066445761724
1475.0001794798063 8011.371604644954
1475.7885685569145 8249.487525415943
1476.576765699172 8149.480343912604
1477.3647709584238 8108.948068180633
1478.1525843864802 8237.327122888024
1478.9402060351367 8109.104635535625
1479.7276359561693 8105.3112647928265
1480.514874201328 8072.139180808718
1481.3019208223468 8020.8130349254625
1482.0887758709323 7938.501225047521
1482.8754393987747 8216.600893572364
1483.6619114575406 7937.356390658855
1484.4481920988783 7926.05874867276
1485.2342813744108 8044.056308457099
1486.0201793357446 7897.0405249135965
1486.8058860344572 7894.723666274879
1487.591401522117 7942.442138606692
1488.3767258502594 8195.150152843209
1489.1618590704056 8124.6023184458445
1489.9468012340494 7951.201824113858
1490.7315523926754 8092.103577623649
1491.5161125977356 8093.2365009530085
1492.3004819006637 8002.500853025395
1493.084660352877 7932.926063259564
1493.8686480057622 7923.353336461699
1494.6524449106964 8114.705329840222
1495.4360511190262 8063.281071528538
1496.219466682087 8164.096739436112
1497.0026916511779 8043.903326679203
1497.7857260775945 8086.799524896471
1498.5685700125996 8045.368603600764
1499.3512235074395 7963.214570434449
1500.133686613337 7758.835156271268
1500.9159593814966 7950.513728474422
1501.698041863101 8177.444160030512
1502.4799341093094 7927.96656156407
1503.2616361712662 7861.105407801537
1504.043148100087 7924.474229837733
1504.8244699468742 7937.283980298079
1505.6056017626997 7814.546768032249
1506.3865435986281 7884.272085642103
1507.1672955056893 7873.035892692884
1507.9478575348967 7860.150227239082
1508.7282297372512 7961.494548616478
1509.5084121637192 7953.857634659516
1510.2884048652577 7827.619927079143
1511.0682078927948 7832.572326038644
1511.8478212972423 7797.855830269463
1512.6272451294917 7745.792068346913
1513.4064794404076 7856.857653863338
1514.1855242808433 8043.947381027072
1514.9643797016215 7828.276339671438
1515.743045753552 7843.453876423344
1516.5215224874191 7808.909394980428
1517.2998099539836 7679.125959707357
1518.077908203999 7813.490543413971
1518.8558172881785 7780.402075690999
1519.633537257234 7850.274292209318
1520.4110681618404 7880.414431994241
1521.1884100526604 7767.40210991208
1521.9655629803365 7668.419926492267
1522.7425269954856 7869.026166716269
1523.5193021487103 7952.921962650585
1524.2958884905856 7818.08139194782
1525.0722860716687 7784.0364543669
1525.848494942502 7693.364050611339
1526.624515153595 7747.938406045856
1527.4003467554485 7731.852347388031
1528.175989798534 7782.097151172091
1528.9514443333064 7802.193515650872
1529.726710410203 8000.76978334445
1530.5017880796331 7723.915883189131
1531.276677391992 7650.606184324463
1532.0513783976457 7815.175147770386
1532.825891146953 7750.125122027224
1533.6002156902414 7830.594971806163
1534.3743520778207 7833.834019015725
1535.1483003599806 7709.119551874534
1535.9220605869923 7872.769286059284
1536.6956328091019 7809.76012704243
1537.4690170765407 7704.379434450622
1538.242213439511 7815.68702091068
1539.015221948208 7776.1200211518935
1539.78804265279 7721.7786676663545
1540.560675603405 7630.666080602583
1541.3331208501804 7782.356110212403
1542.1053784432224 7937.587237710408
1542.8774484326168 7697.664820771706
1543.649330868422 7710.1945641284865
1544.4210258006842 7759.4427515972075
1545.1925332794308 7858.260371399917
1545.9638533546604 7816.496559211385
1546.7349860763552 7749.608801848126
1547.5059314944829 7940.352493297467
1548.27668965898 7783.063759491255
1549.0472606197673 7796.835966381279
1549.817644426752 7702.125571984808
1550.5878411298072 7898.568800096735
1551.3578507787988 7790.292302322379
1552.1276734235635 7611.254289702518
1552.8973091139233 7657.338384185825
1553.6667578996767 7862.387637654389
1554.436019830604 7796.460636796163
1555.20509495646 7727.715857124332
1555.9739833269869 7637.0124196711695
1556.7426849919011 7688.6509844541215
1557.511200000903 7897.416896030314
1558.2795284036674 7815.1890104917165
1559.0476702498509 7635.55719811464
1559.8156255890954 7899.02995961932
1560.5833944710157 7967.623948832258
1561.3509769452048 7584.628416599573
1562.1183730612447 7657.467247617153
1562.8855828686865 7696.75751515849
1563.6526064170703 7951.330023764541
1564.4194437559127 7735.1619088149455
1565.1860949347047 7714.7011115315345
1565.9525600029283 7859.034998704378
1566.7188390100328 7857.03196163611
1567.4849320054564 7542.255317340964
1568.250839038612 7660.836355518737
1569.0165601588997 7634.2031045739295
1569.7820954156887 7625.649151966897
1570.5474448583373 7527.373476303456
1571.31260853618 7541.815488018115
1572.0775864985299 7387.668687314837
1572.8423787946813 7679.506588935032
1573.6069854739108 7571.448058472102
1574.371406585471 7514.08823493693
1575.1356421785986 7664.529717165172
1575.899692302506 7498.246317723446
1576.6635570063845 7525.807340716883
1577.4272363394157 7546.33123524697
1578.190730350747 7416.905756321718
1578.9540390895163 7533.35453481387
1579.7171626048384 7262.966635580458
1580.480100945806 7346.762337740324
1581.2428541614918 7371.255974210513
1582.0054223009538 7343.259122893624
1582.767805413223 7424.6083127378615
1583.5300035473156 7395.47838265791
1584.292016752228 7528.4927888766615
1585.0538450769309 7425.740197012829
1585.8154885703807 7303.736611803198
1586.5769472815136 7288.360313742746
1587.3382212592405 7384.519913620698
1588.099310552463 7460.627920703022
1588.8602152100484 7330.243651260013
1589.6209352808564 7328.450383085788
1590.3814708137234 7148.640929311402
1591.14182185746 7590.617708374465
1591.9019884608679 7294.871927607339
1592.6619706727215 7050.031579438948
1593.4217685417734 7292.999857042456
1594.1813821167616 7356.21690500571
1594.9408114464022 7174.712127243147
1595.7000565793933 7224.635350306193
1596.459117564409 7248.217679101069
1597.2179944501113 7183.348396047813
1597.9766872851324 7085.559697090034
1598.735196118092 7103.7463146708415
1599.4935209975883 7270.02748585287
1600.2516619721973 7227.541917396933
1601.0096190904787 7122.956777555822
1601.7673924009723 7040.257638059765
1602.524981952196 7047.086200314055
1603.2823877926476 6947.283503300672
1604.0396099708087 6910.1834300795745
1604.7966485351371 6903.946277657888
1605.5535035340745 7006.669162903447
1606.3101750160404 7095.2382555465065
1607.0666630294363 6896.08669483883
1607.822967622642 6866.799241900311
1608.5790888440224 6927.46824383236
1609.3350267419137 7076.808186443127
1610.0907813646445 6821.246621785729
1610.8463527605145 6834.690237483749
1611.601740977805 6884.630094866118
1612.356946064785 6894.211006854329
1613.1119680696902 6682.079645678372
1613.8668070407512 6785.434094633837
1614.6214630261748 6849.427321888326
1615.375936074137 6806.221181871512
1616.1302262328118 6801.125204516931
1616.8843335503425 6747.525853232136
1617.638258074854 6622.525442050972
1618.391999854457 6797.336060167126
1619.1455589372363 6927.9956274469905
1619.8989353712623 6682.307412358595
1620.65212920458 6461.955505408069
1621.4051404852235 6528.615066941602
1622.1579692611976 6701.916372322902
1622.9106155804966 6524.962768017128
1623.663079491087 6551.905455461963
1624.4153610409248 6781.656333969116
1625.1674602779385 6587.57795397158
1625.9193772500403 6594.222320893042
1626.6711120051277 6844.499362617598
1627.4226645910676 6472.78252385064
1628.174035055721 6625.491533380113
1628.9252234469168 6504.536702549035
1629.676229812474 6539.103238442228
1630.4270542001905 6786.082009536651
1631.1776966578382 6599.017685858215
1631.9281572331747 6544.627013814394
1632.678435973945 6683.685775195397
1633.4285329278573 6608.253741054793
1634.1784481426203 6423.943531917432
1634.9281816659113 6511.906184386903
1635.677733545388 6597.218721281072
1636.4271038286934 6610.317483855046
1637.176292563452 6623.573259694235
1637.9252997972635 6615.292916243791
1638.674125577716 6643.660790835226
1639.4227699523672 6810.177802066035
1640.171232968767 6443.439926544861
1640.9195146744423 6609.199961680884
1641.6676151168977 6834.259435345519
1642.4155343436178 6770.651651629257
1643.1632724020765 6577.661711982995
1643.9108293397167 6668.018898123839
1644.658205203974 6577.225066836581
1645.4054000422566 7061.260016643771
1646.1524139019566 6554.776665412491
1646.8992468304423 6479.40968000264
1647.6458988750728 6521.906458836178
1648.3923700831765 6690.936458688319
1649.1386605020743 6654.626321679355
1649.8847701790564 6653.3677928624775
1650.6306991614038 6822.179467829206
1651.3764474963682 6629.165352758486
1652.1220152311944 6477.260819834017
1652.867402413096 6700.5843550070695
1653.6126090892776 6642.857364613461
1654.3576353069184 6695.64205743053
1655.1024811131829 6708.372015209849
1655.8471465552066 6555.034719897938
1656.5916316801213 6762.589123767207
1657.3359365350298 6689.941215794106
1658.0800611670165 6465.387004012952
1658.824005623148 6514.812671938949
1659.5677699504722 6361.6695988982665
1660.3113541960192 6536.406612054407
1661.054758406799 6520.6981068309615
1661.7979826297997 6307.273939229268
1662.5410269119966 6294.35804284227
1663.283891300338 6330.418077069367
1664.0265758417645 6356.351722394813
1664.7690805831826 6418.698219001465
1665.5114055714948 6388.158544890212
1666.2535508535748 6512.831346087578
1666.9955164762814 6047.7743941733115
1667.7373024864555 6121.73901282194
1668.478908930916 6186.808519071276
1669.220335856462 6099.549940309889
1669.9615833098778 6070.140958674046
1670.7026513379296 6135.8363879263
1671.44353998736 6067.891691619457
1672.1842493048916 5992.269092848213
1672.9247793372379 6125.0125374693735
1673.6651301310812 6059.553467005691
1674.4053017330934 6045.204944000213
1675.1452941899242 5947.648503115533
1675.885107548207 5717.770913678294
1676.6247418545518 5753.046896079178
1677.3641971555535 5772.43559777968
1678.1034734977893 5970.837091307543
1678.8425709278108 5800.800524100727
1679.5814894921605 5849.943011654685
1680.320229237359 5822.555117920138
1681.0587902098978 5761.725497095751
1681.7971724562685 5658.144974703908
1682.5353760229264 5613.385485235021
1683.2734009563173 5781.2241393724635
1684.0112473028657 5535.19144715866
1684.7489151089794 5732.906485772073
1685.4864044210462 5703.494653496551
1686.2237152854377 5350.466833243374
1686.960847748498 5641.7595580155285
1687.6978018565642 5388.642240924983
1688.434577655944 5441.879149603711
1689.1711751929379 5340.918591786731
1689.9075945138156 5493.223703024193
1690.6438356648396 5317.34773265382
1691.3798986922448 5149.741980095934
1692.1157836422499 5307.710875234666
1692.851490561059 5247.036835116892
1693.587019494853 5367.372819351959
1694.3223704897991 5200.068484144138
1695.0575435920364 5097.175149336914
1695.792538847696 5439.349641298555
1696.527356302886 5367.4692446043755
1697.2619960036936 5166.811254582824
1697.9964579961907 5110.093218763533
1698.730742326432 4950.26837126174
1699.4648490404488 5009.265818570592
1700.1987781842563 4991.524162031508
1700.9325298038548 5212.055816976734
1701.6661039452174 5149.890143435267
1702.3995006543082 5045.991448030216
1703.1327199770658 5166.8445876541045
1703.865761959416 5065.476830133677
1704.598626647261 5168.644588931153
1705.3313140864866 4971.250952812201
1706.0638243229587 4960.799198660219
1706.7961574025303 5041.835645924
1707.528313371029 5030.726844791465
1708.260292274268 4845.116510739697
1708.9920941580403 4987.782222221733
1709.7237190681226 4977.19987899465
1710.4551670502697 5055.804614341419
1711.18643815022 4785.494572415151
1711.9175324136959 5099.345295601746
1712.6484498863938 4822.841769875217
1713.379190614005 4737.639988743163
1714.109754642188 4847.8859506178105
1714.8401420165883 4917.080089224137
1715.570352782839 5225.393670498575
1716.3003869865497 4881.799751419667
1717.0302446733076 4825.938593623448
1717.7599258886876 4900.385938822218
1718.4894306782444 4969.639490209165
1719.2187590875183 4714.77648759867
1719.9479111620203 4984.897614683968
1720.6768869472544 4758.704718060278
1721.4056864887025 4946.980848823064
1722.1343098318284 4958.006456334825
1722.8627570220742 4792.055777083195
1723.591028104871 4694.081908439823
1724.3191231256242 4701.733906663423
1725.0470421297232 4803.870260596877
1725.7747851625427 4885.495439104548
1726.5023522694337 4841.846976216567
1727.2297434957363 4685.554887780837
1727.9569588867635 4565.8022616243325
1728.6839984878152 4756.595572640285
1729.4108623441734 4467.946068155479
1730.1375505011038 4773.5506485438655
1730.8640630038426 4676.747500978096
1731.5903998976264 4601.626163484591
1732.316561227657 4673.059712785083
1733.0425470391274 4604.889646779272
1733.7683573772065 4657.453760282626
1734.4939922870508 4649.400841456042
1735.2194518137949 4681.504281356449
1735.9447360025606 4593.872641124601
1736.669844898439 4593.37178416327
1737.3947785465189 4504.765672570226
1738.1195369918605 4485.093062450937
1738.8441202795093 4591.89551213942
1739.5685284544943 4689.324000606806
1740.292761561821 4633.517824339535
1741.0168196464838 4630.261715031749
1741.7407027534518 4606.214726799085
1742.464410927687 4572.962614668364
1743.187944214118 4664.0968731145895
1743.9113026576688 4659.624898234377
1744.634486303241 4531.740889099207
1745.3574951957125 4676.970809647306
1746.0803293799509 4717.310098725734
1746.8029889008048 4496.033685942944
1747.5254738031017 4500.455778866582
1748.2477841316504 4384.537350169537
1748.969919931249 4434.538217370047
1749.6918812466665 4544.179786184311
1750.4136681226646 4633.929937443775
1751.1352806039777 4560.381937487967
1751.856718735331 4266.466005410154
1752.5779825614281 4326.268365365851
1753.2990721269507 4562.094267022319
1754.0199874765676 4515.131493223977
1754.7407286549314 4333.9320854216385
1755.4612957066693 4436.875356986405
1756.1816886763954 4381.095435524718
1756.9019076087097 4525.596290794811
1757.6219525481865 4382.717588935456
1758.3418235393856 4404.28090123717
1759.061520626854 4539.027931675766
1759.7810438551096 4551.377091216729
1760.5003932686614 4417.813322742782
1761.2195689119999 4466.869658388737
1761.938570829594 4455.716739161469
1762.657399065898 4485.638678498365
1763.376053665348 4267.673119467732
1764.0945346723602 4210.122481502214
1764.812842131334 4478.497970927371
1765.5309760866512 4325.590324041913
1766.2489365826787 4315.310805857752
1766.9667236637597 4332.8293131654555
1767.684337374223 4247.924066413086
1768.401777758383 4234.9431517636085
1769.1190448605284 4374.021409953565
1769.836138724937 4257.675271014018
1770.5530593958665 4405.250139214671
1771.2698069175603 4574.599293299095
1771.9863813342326 4441.412560401579
1772.702782690094 4181.203951889261
1773.4190110293293 4460.200592957338
1774.1350663961111 4285.728184237834
1774.8509488345844 4238.231726687031
1775.5666583888924 4413.913737851527
1776.2821951031437 4417.029247642711
1776.9975590214362 4342.489783446035
1777.7127501878585 4457.537935863832
1778.4277686464684 4407.957332049127
1779.1426144413108 4334.519114518209
1779.8572876164162 4468.96922787783
1780.571788215797 4052.4111552961294
1781.2861162834415 4229.105411642568
1782.0002718633277 4407.8663487677095
1782.7142549994132 4368.758957674811
1783.4280657356376 4297.179357338412
1784.141704115922 4164.702121137887
1784.855170184177 4238.379932027641
1785.5684639842839 4174.54272699478
1786.2815855601148 3951.9654653140506
1786.9945349555237 4320.501043000439
1787.707312214343 4216.856909661036
1788.4199173803918 4503.937618918209
1789.132350497468 4085.42523014564
1789.8446116093583 4074.8797932209673
1790.556700759822 4106.059458964524
1791.2686179926077 4272.547152494584
1791.9803633514493 4224.425811224067
1792.6919368800554 4028.5362351787285
1793.4033386221236 4205.233074856371
1794.1145686213295 4392.835417088355
1794.8256269213307 4373.7636656811765
1795.536513565774 4199.80554306467
1796.247228598284 4027.1079712695487
1796.9577720624693 4106.798381056394
1797.6681440019165 4305.724301919681
1798.3783444602013 4157.871163429392
1799.0883734808776 4202.179001884539
1799.7982311074884 4217.497118701574
1800.5079173835475 4138.578960187073
1801.2174323525633 4118.691836670572
1801.9267760580187 4142.310016609581
1802.635948543386 4164.936848830884
1803.3449498521113 4107.239201427664
1804.0537800276325 4224.800936534082
1804.7624391133668 4208.363530641965
1805.47092715271 3895.3549629177883
1806.1792441890484 4112.609836949345
1806.8873902657433 4208.314865329683
1807.5953654261448 4054.377617411451
1808.3031697135812 4025.724919258829
1809.0108031713662 4045.2376699400056
1809.71826584279 4023.0911151509617
1810.425557771141 4147.282405639754
1811.1326789996747 4388.025553595554
1811.839629571632 4001.221231205761
1812.5464095302468 4124.120263060207
1813.2530189187182 4123.4888085906605
1813.959457780249 4023.4226423881964
1814.6657261580076 4185.393633278694
1815.371824095153 4037.631413579461
1816.0777516348262 4248.325595669699
1816.78350882015 3768.7566401757294
1817.4890956942272 3927.086754887396
1818.1945123001533 4052.230605372407
1818.8997586809928 4019.3211474014543
1819.6048348798067 4023.2530372332103
1820.3097409396287 3996.934499425811
1821.0144769034796 4245.551622787706
1821.7190428143622 3943.7211329366132
1822.423438715261 4066.169884604363
1823.1276646491478 3946.6307091937183
1823.8317206589727 4063.698652043064
1824.5356067876692 4027.759623760462
1825.2393230781581 4063.1374641135235
1825.942869573335 3905.1420800318447
1826.646246316086 3906.8226205660662
1827.3494533492758 3990.1057386180373
1828.052490715756 4176.957532184818
1828.7553584583547 4086.3539286542423
1829.458056619891 4055.5723491221834
1830.1605852431585 3891.90315144204
1830.8629443709433 4005.3720133510237
1831.5651340460063 3859.6183770256794
1832.2671543110919 3854.7230029020684
1832.9690052089318 4101.395955886512
1833.6706867822395 3759.593989099523
1834.3721990737104 3964.1144741529884
1835.0735421260233 4063.813969329082
1835.774715981841 3920.722290468167
1836.4757206838058 4054.3502112287433
1837.1765562745459 3978.1690635449604
1837.8772227966747 3823.8634741165865
1838.5777202927839 3897.471608342899
1839.2780488054523 3939.9006198227517
1839.9782083772352 3907.7937102561154
1840.6781990506806 4057.537927316878
1841.378020868313 3839.428722718487
1842.0776738726418 4001.2305768043616
1842.777158106157 3959.313250609567
1843.4764736113375 3823.012189242874
1844.1756204306403 4024.7767069212737
1844.8745986065078 3937.465672615959
1845.5734081813607 3697.759480134282
1846.2720491976124 3835.139953575251
1846.970521697649 3801.7597709947972
1847.6688257238511 3973.5064493454183
1848.3669613185684 3754.9992182728665
1849.0649285241452 3659.379076928578
1849.7627273829057 4003.9440439165146
1850.460357937156 3808.986236975131
1851.1578202291857 3622.643827196503
1851.8551143012664 3952.087992818377
1852.5522401956569 3836.2397960314083
1853.2491979545957 3997.591911459514
1853.9459876203055 3643.0081387294813
1854.6426092349902 3621.37403196998
1855.3390628408451 3778.6716701985592
1856.0353484800362 4035.7483471693536
1856.7314661947203 3879.8929633848065
1857.4274160270397 3733.426239527193
1858.123198019115 3900.6851954801014
1858.8188122130487 3670.111873038701
1859.5142586509319 3676.461391615102
1860.209537374838 3814.5443903469786
1860.9046484268183 3750.681942728341
1861.599591848917 3863.7677389093515
1862.294367683151 3798.8837233748045
1862.988975971528 3750.353020267863
1863.6834167560355 3688.6569730517595
1864.3776900786452 3911.5361488251024
1865.0717959813119 3796.6874959145875
1865.7657345059724 3662.5415283191387
1866.4595056945564 3932.2633555851717
1867.1531095889586 3744.103703849242
1867.846546231076 3638.7971376523265
1868.5398156627743 3830.808005194038
1869.2329179259123 3637.1415857769075
1869.9258530623283 3822.515182989469
1870.618621113843 3611.7678444935336
1871.3112221222636 3570.817798733523
1872.0036561293764 3679.8782914728536
1872.695923176956 3796.053237941698
1873.3880233067594 3863.106993416665
1874.0799565605212 3594.8911998365074
1874.7717229799673 3809.9670930859843
1875.4633226068036 3881.7413077601786
1876.1547554827175 3920.175195557052
1876.8460216493859 3708.7796171021873
1877.5371211484617 3599.559687175429
1878.2280540215852 3874.8983915996587
1878.9188203103804 3596.4719386903757
1879.6094200564548 3761.4104161936275
1880.299853301396 3553.29721683001
1880.9901200867826 4025.35248808119
1881.6802204541673 3769.0847858939037
1882.3701544450942 3908.6826559878523
1883.059922101087 3494.4421576200266
1883.7495234636517 3806.551819341791
1884.4389585742792 3627.5045377023316
1885.1282274744517 3544.3987183168297
1885.8173302056166 4004.1672177689156
1886.506266809225 3785.5677941657545
1887.195037326701 3608.6813492543397
1887.8836417994517 3598.691875881027
1888.5720802688702 3820.3452078444134
1889.260352776333 3695.2421850655546
1889.9484593632042 3782.2615773185935
1890.63640007082 3695.6426148642104
1891.3241749405151 3563.20974777225
1892.0117840135954 3751.96616823695
1892.6992273313572 3657.1714997024733
1893.3865049350788 3550.5047776539272
1894.0736168660223 3847.627493075791
1894.7605631654333 3711.915408150777
1895.4473438745408 3544.2816237030142
1896.133959034556 3967.818163869774
1896.820408686679 3738.3916686489065
1897.506692872088 3787.55989691712
1898.192811631945 3609.0483396785226
1898.8787650073991 3550.595858067512
1899.5645530395832 3886.5607922295253
1900.2501757696118 3732.5879455256318
1900.9356332385796 3460.9049850265233
1901.620925487574 3972.3254089398456
1902.3060525576602 3691.9022356925516
1902.9910144898859 3721.8335130418004
1903.6758113252872 3553.842400056468
1904.3604431048789 3706.0229979140845
1905.0449098696663 3738.3512832567167
1905.7292116606295 3470.669401319331
1906.4133485187394 3678.149650503425
1907.0973204849488 3276.2601053623503
1907.7811276001976 3466.4565201041783
1908.4647699053967 3605.6322706715123
1909.1482474414588 3020.496342326539
1909.8315602492694 3458.4415972150127
1910.5147083696957 3695.79993211202
1911.1976918436012 3540.7475109754496
1911.880510711815 3490.1679981949346
1912.5631650151681 3720.2361957393114
1913.2456547944657 3562.564636033606
1913.927980090495 3457.1841626851033
1914.6101409440362 3535.3071799204286
1915.2921373958416 3749.3337494100583
1915.9739694866603 3647.656098875837
1916.655637257214 3681.845735143083
1917.3371407482136 3575.419704140865
1918.0184800003572 3736.503189901149
1918.6996550543154 3608.5151425053677
1919.3806659507554 3457.0013172153585
1920.0615127303208 3593.7735806618634
1920.7421954336423 3583.7916963204902
1921.4227141013343 3654.504754393272
1922.103068773993 3623.8923601413326
1922.783259492202 3646.316173065662
1923.4632862965227 3408.2800632807594
1924.1431492275078 3517.515388977385
1924.8228483256917 3562.769658034968
1925.5023836315922 3358.310876772494
1926.1817551857057 3163.015468304804
1926.8609630285227 3653.18733853066
1927.5400072005123 3725.48234164527
1928.218887742125 3411.629669589029
1928.8976046938005 3439.2885698386103
1929.5761580959588 3592.8792546442573
1930.2545479890086 3556.487873117666
1930.9327744133352 3285.249184352188
1931.6108374093164 3470.7253102632108
1932.2887370173066 3676.424721555513
1932.9664732776473 3208.211919042218
1933.6440462306673 3470.5268694314154
1934.3214559166754 3459.1850803385723
1934.9987023759659 3556.519082271534
1935.675785648813 3521.388476563506
1936.3527057754836 3223.540044507822
1937.029462796223 3692.9652641655034
1937.70605675126 3295.0200680083567
1938.3824876808085 3294.8523042525317
1939.058755625072 3518.5448379754453
1939.7348606242267 3368.122475458787
1940.4108027184448 3566.719663839204
1941.0865819478713 3519.229734527791
1941.7621983526478 3461.0866747529376
1942.4376519728921 3442.043508583641
1943.1129428487038 3359.6139370821993
1943.7880710201734 3476.5839950881264
1944.4630365273733 3525.48268120715
1945.1378394103576 3299.2530316518314
1945.8124797091714 3698.3364569126925
1946.4869574638324 3233.5150387590666
1947.161272714353 3319.544627902781
1947.8354255007234 3486.7664622074726
1948.5094158629272 3341.0792594005084
1949.1832438409183 3422.438221751453
1949.8569094746435 3616.2511781898693
1950.530412804037 3703.79776985816
1951.2037538690092 3577.1228468291715
1951.8769327094578 3190.961451637403
1952.5499493652678 3365.6707191199807
1953.222803876306 3495.79780752402
1953.895496282421 3459.5520120005676
1954.5680266234522 3381.1923410039826
1955.2403949392155 3465.327955827646
1955.9126012695142 3218.8825657853627
1956.5846456541403 3443.4059662636814
1957.2565281328643 3347.992070057314
1957.9282487454457 3499.7609343028707
1958.5998075316202 3473.929211606359
1959.27120453112 3370.8983134386704
1959.9424397836501 3484.243104719882
1960.613513328908 3400.8131854855906
1961.2844252065697 3541.848155478081
1961.9551754563017 3226.5321095850013
1962.6257641177453 3438.141062329255
1963.29619123054 3121.001130183012
1963.966456834296 3131.83000865767
1964.6365609686181 3222.2767581702988
1965.306503673086 3510.6617574740076
1965.976284987275 3266.203550220273
1966.645904950734 3332.9227886539074
1967.315363603002 3177.674185136715
1967.9846609836077 3418.799247751226
1968.6537971320486 3276.9590528466993
1969.3227720878222 3317.548217437208
1969.9915858904042 3298.8387641296154
1970.660238579252 3424.4386009531554
1971.3287301938108 3434.6922508594625
1971.997060773514 3217.827886819109
1972.665230357772 3171.3167136443412
1973.3332389859843 3257.8030600765196
1974.0010866975335 3093.971083673311
1974.6687735317864 3264.2992386473898
1975.3362995280932 3481.5838965973226
1976.003664725793 3335.4171588884346
1976.6708691642052 3063.4952646473166
1977.3379128826364 3383.9887838084296
1978.004795920373 3353.204452975777
1978.6715183166925 3443.7880793026757
1979.3380801108524 3063.9752425887673
1980.0044813420973 3211.4277131826725
1980.6707220496555 3043.865228226925
1981.3368022727373 3312.7700228401955
1982.0027220505417 3261.4961182496113
1982.66848142225 2981.275353194853
1983.3340804270283 3151.3780605279917
1983.999519104027 3233.721253090329
1984.6647974923835 3290.181443523724
1985.329915631215 3234.2189700977856
1985.99487355963 3279.596659492841
1986.6596713167146 3462.792341454281
1987.3243089415428 3104.2549641835385
1987.9887864731754 3301.5043675324923
1988.6531039506553 3095.441966649757
1989.3172614130071 3610.0909098474235
1989.9812588992481 3047.2167546386054
1990.645096448372 2982.14593048988
1991.3087740993633 3184.325375135003
1991.9722918911848 3130.502344727578
1992.635649862792 3276.461191835945
1993.2988480531185 3334.4208824545626
1993.9618865010852 3564.3793967483384
1994.6247652455968 3170.2369560917805
1995.287484325545 3061.640551228877
1995.9500437798033 3161.997263984721
1996.6124436472292 3203.4986523476928
1997.2746839666706 3235.971192138896
1997.936764776954 3097.6438103075075
1998.598686116895 3052.186700307616
1999.2604480252903 3438.427078383781
1999.9220505409212 3346.8429926482618
2000.5834937025593 3053.354110281132
2001.2447775489582 3088.3761416982907
2001.9059021188514 3202.5424493280466
2002.5668674509616 3027.944943391426
2003.2276735839987 3106.636761359242
2003.8883205566508 3351.4939187750883
2004.5488084075987 3237.007162188326
2005.2091371755014 3298.1637052329656
2005.8693068990033 2986.014723372447
2006.5293176167397 3373.648540162515
2007.1891693673224 3001.467139330094
2007.848862189354 2936.9948675881396
2008.5083961214223 3094.910388686509
2009.1677712020955 2987.206692392733
2009.8269874699254 3088.704431698826
2010.4860449634598 3444.993351514975
2011.1449437212177 2944.4040547213017
2011.8036837817108 3316.449101594482
2012.4622651834325 3210.2963771949967
2013.1206879648653 3159.5249998262098
2013.7789521644736 3319.718153069856
2014.4370578207036 2931.5143499896035
2015.0950049719922 3181.346602203806
2015.7527936567585 3170.281315603647
2016.4104239134067 3060.844763914472
2017.067895780323 3291.585554362021
2017.725209295886 2933.937355607789
2018.3823644984514 3166.041060096296
2019.0393614263648 3180.9779416376778
2019.6962001179545 3085.2995730398675
2020.3528806115355 3160.824539992579
2021.0094029454067 3143.7874203115002
2021.6657671578487 2963.3615696126026
2022.321973287133 3188.9275612780284
2022.9780213715148 3090.7660426784632
2023.6339114492293 3079.370492209946
2024.2896435585026 2955.3171724231834
2024.9452177375442 3005.344658628414
2025.600634024544 3151.603361121558
2026.2558924576842 3150.5024266586283
2026.9109930751292 3133.2152333131844
2027.565935915025 3133.1976472229326
2028.2207210155066 3317.6468930176075
2028.8753484146964 3404.795854869567
2029.529818150695 2708.046581594901
2030.1841302615903 3127.9145318537353
2030.8382847854573 3205.823537024701
2031.4922817603601 3189.5444982980293
2032.1461212243357 3111.506511195551
2032.7998032154192 2951.735870242529
2033.4533277716218 3044.8148660352754
2034.1066949309443 2892.7219541457425
2034.7599047313688 3011.7142419123056
2035.4129572108704 3142.8221636714657
2036.0658524074006 3130.8751003025795
2036.7185903589016 3166.3359631164117
2037.3711711032956 3218.5437167079153
2038.023594678496 3065.734120257056
2038.675861122394 2834.4785219420073
2039.3279704728757 3136.290243205408
2039.9799227678031 2959.461700072558
2040.6317180450278 2979.806648655402
2041.2833563423865 2872.589672113203
2041.9348376977014 3381.0603979606485
2042.5861621487784 3216.028393494783
2043.2373297334088 3140.652782426978
2043.8883404893695 3139.59034878008
2044.5391944544208 3065.624451867318
2045.1898916663158 3152.1826488910565
2045.8404321627804 3375.0723056000015
2046.4908159815368 2938.582003848306
2047.1410431602853 2813.821168216093
2047.7911137367173 2889.357263487769
2048.441027748504 3174.5282421598527
2049.090785233302 3025.665630821862
2049.7403862287592 2802.5295032365907
2050.389830772503 3211.440245785857
2051.0391189021466 2970.3204186364014
2051.688250655294 2921.3228618430144
2052.337226069527 2896.0809148044636
2052.986045182417 3203.072802386163
2053.634708031521 2760.5894922992525
2054.283214654375 3104.465474952981
2054.931565088511 2603.9427213784693
2055.579759371436 2742.8608310710324
2056.2277975406523 2990.383198105098
2056.8756796336384 3201.8289304703508
2057.5234056878617 2796.3434281424466
2058.1709757407752 2941.447595921366
2058.8183898298194 3137.2256103197537
2059.465647992416 3057.4652082246944
2060.1127502659747 3018.232277017896
2060.759696687888 2720.522200424907
2061.4064872955405 3127.6833664059386
2062.053122126292 3227.9064314249945
2062.699601217497 2561.9716060603396
2063.345924606485 2891.5488138044043
2063.992092330587 3008.230357935381
2064.638104427102 2987.8110167220807
2065.283960933324 3034.4339356290866
2065.92966188653 2963.0171008306543
2066.5752073239855 3018.826024639501
2067.2205972829397 2795.06212463738
2067.86583180062 2993.0425971411382
2068.5109109142522 2905.655346921946
2069.15583466104 2858.0583738908763
2069.8006030781708 2810.4200157887913
2070.445216202821 2794.626557579112
2071.089674072153 3120.7563389797115
2071.7339767233116 3124.4538526569863
2072.3781241934303 3024.356299004805
2073.0221165196253 3064.6279369659433
2073.6659537390024 2920.0328845284944
2074.3096358886505 3077.065900837991
2074.953163005637 2915.399587876035
2075.596535127028 2829.1217307686243
2076.2397522898664 2924.809271469855
2076.882814531182 2966.78865904255
2077.5257218879924 2934.305927632081
2078.1684743973 2909.7882873583903
2078.8110720960885 2854.2064192260723
2079.453515021336 3231.4490386088078
2080.095803209997 3020.7140943274653
2080.7379366990135 2969.452717831378
2081.37991552532 2984.776734585717
2082.0217397258275 2943.6862005061234
2082.6634093374414 2710.2996284273017
2083.3049243970418 2846.5955126658955
2083.9462849415067 3031.6619618550844
2084.587491007689 3015.3314614474266
2085.2285426324324 2991.12782804667
2085.869439852564 2881.5507612161896
2086.510182704902 2834.3256830842165
2087.1507712262483 2857.6359434655196
2087.791205453381 2784.7773634928553
2088.4314854230743 3008.5515600600106
2089.0716111720867 2868.287342339153
2089.7115827371617 2634.909515028981
2090.351400155023 3098.6414969879984
2090.991063462385 2911.8370267661844
2091.6305726959527 2649.150331182657
2092.2699278924047 2881.5129057684185
2092.9091290884153 2872.905377016853
2093.548176320641 2731.16413582258
2094.187069625721 2942.3365979098025
2094.8258090402887 2740.6718578759005
2095.464394600951 2957.0095825976605
2096.102826344313 3024.8083614164943
2096.741104306955 3072.806928266188
2097.379228525453 2796.339133210426
2098.017199036358 2659.348837026524
2098.6550158762147 3063.012805465546
2099.2926790815527 2980.229156115992
2099.9301886888825 2917.2961346418015
2100.5675447347076 2837.633630205142
2101.2047472555114 2994.5218296491853
2101.841796287761 2757.160238876588
2102.47869186792 2836.0244945850386
2103.1154340324265 2792.777224105082
2103.752022817709 2856.4485054133015
2104.388458260184 2810.790053897613
2105.024740396251 2645.9194836703873
2105.660869262292 2572.557841373323
2106.296844894685 2902.687273770637
2106.93266732978 2877.3862695769067
2107.5683366039284 2633.0562182170165
2108.2038527534532 2958.6401315894036
2108.8392158146726 2973.112284245408
2109.4744258238843 2839.9044009961603
2110.1094828173755 2796.618183415159
2110.744386831422 3035.121054358885
2111.3791379022787 2834.0750107360686
2112.01373606619 3018.9844515970144
2112.648181359389 2929.8630729612373
2113.28247381809 2914.3111375584454
2113.916613478492 2909.5214694892056
2114.550600376786 2877.8667737483765
2115.1844345491445 2836.2511722571676
2115.818116031729 2824.788163294498
2116.451644860679 2791.2095105985013
2117.085021072133 2513.58916477768
2117.718244702204 2655.0743515455033
2118.3513157869984 2644.0158415156843
2118.984234362604 2734.273474732597
2119.617000465092 2626.384207074149
2120.249614130529 2974.9441882281853
2120.8820753949585 2802.073729344995
2121.5143842944162 2722.2182964441918
2122.14654086492 2801.97256938678
2122.7785451424734 2921.4667445127398
2123.4103971630702 2627.0396022159357
2124.042096962681 2818.656632957392
2124.6736445772767 2904.966200126675
2125.305040042802 2627.3898766013394
2125.936283395191 2797.887865065899
2126.567374670365 2697.555892936918
2127.198313904233 2730.6000867418675
2127.8291011326855 3115.833415397025
2128.4597363916037 2618.3049243668765
2129.0902197168507 2559.674857639467
2129.720551144279 2658.728858883332
2130.3507307097225 3148.7014298647673
2130.980758449008 2932.6849217488684
2131.6106343979427 2651.4185944309384
2132.2403585923203 3028.2899678533627
2132.8699310679276 2817.6545398926455
2133.499351860526 2917.6538752105853
2134.1286210058715 2811.6429033828254
2134.7577385397053 2396.9006995309546
2135.3867044977487 2973.47835370765
2136.0155189157176 3011.6144182234993
2136.644181829308 2874.696953176318
2137.2726932742025 2796.652733345682
2137.901053286074 3015.8572221746213
2138.5292619005777 2638.0989863489604
2139.1573191533535 2622.8270342411843
2139.7852250800315 2764.7608888878895
2140.4129797162295 2754.7230603216276
2141.0405830975433 2589.764727992867
2141.6680352595613 3057.510522940149
2142.2953362378576 2607.3481384128927
2142.9224860679915 2632.628235718028
2143.549484785508 2594.7365379255684
2144.1763324259373 2771.9465847181355
2144.803029024799 2709.947756088747
2145.429574617594 2560.196090604872
2146.0559692398165 2861.8536112489123
2146.682212926942 2626.4703138274026
2147.308305714432 2773.1217839622004
2147.9342476377333 2956.678469866485
2148.5600387322847 2925.3199249474033
2149.185679033506 2906.7167952468544
2149.8111685768017 2737.918083743202
2150.4365073975678 2449.264097739861
2151.061695531187 2599.4271457684054
2151.686733013021 2894.466117346141
2152.311619878423 2758.060512290976
2152.9363561627342 2726.3768463029687
2153.560941901278 2440.8082654224118
2154.1853771293663 2670.067641997298
2154.809661882293 2668.3526271530486
2155.433796195348 2625.175944635438
2156.0577801037944 2581.61655064222
2156.681613642895 2749.8958909316525
2157.3052968478896 2491.1281014526294
2157.928829754006 2871.61076267334
2158.552212396462 2880.4825587656915
2159.1754448104566 2715.715036159958
2159.7985270311783 2494.3469315216207
2160.4214590938027 2275.538871500699
2161.0442410334927 2423.109644974385
2161.6668728853874 2822.958063673086
2162.289354684628 2641.9411799808113
2162.911686466332 2707.7534311492263
2163.533868265602 2782.7015339804943
2164.1559001175337 2760.470277055586
2164.7777820572046 2826.291347652707
2165.399514119681 2575.363670074108
2166.021096340013 2544.8788610413094
2166.6425287532384 2852.4573193238502
2167.263811394385 2407.2325382448016
2167.8849442984574 2724.706891872666
2168.505927500455 2598.455717912292
2169.126761035366 2857.3094310609495
2169.7474449381552 2617.7738809969383
2170.367979243778 2424.926950573009
2170.9883639871823 2989.175824042125
2171.608599203293 2627.148875135328
2172.2286849270276 2862.0311630311103
2172.8486211932886 2913.214578657648
2173.4684080369625 2799.7160713786093
2174.0880454929265 2538.068538318376
2174.7075335960417 2496.31639257639
2175.3268723811543 2830.0753436162413
2175.9460618831 2490.6698492929854
2176.565102136701 2524.373973375885
2177.1839931767627 2523.7040866414964
2177.802735038078 2523.0686765364
2178.421327755432 2559.700435269689
2179.0397713635866 2487.075897506996
2179.658065897298 2699.7920485112218
2180.276211391305 2582.8388778938215
2180.8942078803357 2815.9969531352563
2181.5120553991 2765.620696366799
2182.129753982299 2454.930728087749
2182.7473036646206 2680.5173150183205
2183.3647044807367 2649.9910411920246
2183.9819564653044 2396.1365308338786
2184.599059652968 2590.3626472222827
2185.216014078367 2772.957973207496
2185.832819776113 2259.0923761235667
2186.4494767808137 2748.443271443545
2187.065985127063 2616.0434850743422
2187.682344849436 2695.825089570423
2188.298555982501 2774.1625400980834
2188.9146185608097 2662.458563204746
2189.530532618901 2766.467253760328
2190.1462981912937 2616.4579974589333
2190.761915312507 2670.3559597020326
2191.377384017036 2536.5490108550484
2191.9927043393654 2549.8148362066995
2192.6078763139667 2310.8187460999666
2193.2228999753006 2863.4821349902218
2193.837775357808 2587.5267706957384
2194.452502495922 2271.3264405572436
2195.0670814240602 2658.5569432510597
2195.6815121766285 2312.9572346529408
2196.2957947880186 2376.365268040143
2196.9099292926057 2439.9095747905462
2197.523915724758 2556.575996002698
2198.137754118825 2557.9135500762036
2198.7514445091456 2863.9722885722504
2199.3649869300443 2373.234938874345
2199.9783814158327 2982.569280857709
2200.5916280008096 2852.038553977467
2201.2047267192593 2859.7486942705955
2201.8176776054515 2552.725748158759
2202.430480693649 2258.8389715612143
2203.0431360180955 2892.9485501847184
2203.6556436130195 2626.683317215001
2204.268003512645 2271.972187661083
2204.8802157511727 2480.3550301401747
2205.492280362796 3022.1571668251936
2206.1041973816937 2635.993748054612
2206.715966842032 2667.9071076588925
2207.3275887779655 2621.1490378894923
2207.93906322363 2585.250632068616
2208.550390213153 2637.571271883551
2209.1615697806465 2627.559332678537
2209.7726019602105 2526.8712761922293
2210.3834867859277 2412.9042517122853
2210.9942242918787 2390.2446657635437
2211.6048145121167 2470.453234779722
2212.2152574806914 3074.9302116589806
2212.825553231638 2363.671938876335
2213.435701798975 2947.626000864839
2214.045703216707 2571.493413433816
2214.655557518832 2290.1079107405744
2215.2652647393297 2344.60800353216
2215.874824912169 2222.1566256514693
2216.4842380713 2710.64830140839
2217.09350425067 2361.2011893751583
2217.7026234842033 2640.5297252725036
2218.311595805819 2680.9316101273575
2218.9204212494133 2214.392164527559
2219.52909984888 2600.0273661169035
2220.137631638092 2170.6235233205703
2220.7460166509154 2575.3281738180463
2221.354254921198 2356.9803884215785
2221.9623464827764 2771.0773233167224
2222.5702913694713 2608.4462512062155
2223.178089615096 2675.576605413823
2223.7857412534486 2485.2172474953886
2224.39324631831 2161.959233179064
2225.000604843457 2445.0650799661444
2225.607816862641 2608.7895129108156
2226.214882409611 2518.451222411699
2226.8218015180973 2643.150854305469
2227.4285742218217 2495.926759855551
2228.0352005544864 2462.6838209768453
2228.6416805497847 2380.0595046001113
2229.248014241399 2682.62936195368
2229.8542016629945 2434.745702446942
2230.460242848223 2559.343107387028
2231.0661378307304 2393.9505875141285
2231.671886644139 2228.4299065331593
2232.277489322065 2340.240599094059
2232.8829458981127 2132.396417718781
2233.48825640587 2539.6346784322177
2234.0934208789095 2855.7136069197395
2234.6984393507955 2653.699717134954
2235.3033118550793 2502.495397983205
2235.9080384252975 2367.2063461632515
2236.5126190949723 2423.039498947312
2237.1170538976166 2419.1314783052057
2237.721342866729 2250.031403102172
2238.32548603579 2390.895525524887
2238.9294834382763 2452.87439504313
2239.533335107646 2293.5928151580597
2240.1370410773434 2374.603637425548
2240.740601380803 2217.9127768811336
2241.3440160514474 2578.151997412291
2241.9472851226783 2656.7021403592034
2242.550408627896 2638.3015961234732
2243.1533866004793 2767.1986761513226
2243.756219073799 2468.8692016735054
2244.3589060812064 2372.1824662890835
2244.961447656049 2365.444532535315
2245.5638438316564 2689.8395897674445
2246.166094641343 2562.1895402585956
2246.7682001184166 2330.694925033493
2247.3701602961664 2518.2974290169063
2247.971975207871 2381.3085495555824
2248.5736448867974 2539.57728505867
2249.175169366197 2495.8534640226053
2249.7765486793123 2349.237215096075
2250.3777828593684 2513.45252103768
2250.9788719395783 2348.4017915196064
2251.579815953146 2478.2603799911803
2252.1806149332606 2187.3633681776237
2252.781268913097 2497.789948591523
2253.381777925817 2104.8627956769005
2253.9821420045737 2482.873327775998
2254.5823611825035 2571.18738555633
2255.1824354927303 2559.3761002002225
2255.782364968365 2316.2016113886884
2256.38214964251 2637.865766315313
2256.9817895482483 2267.8091124529647
2257.5812847186553 2311.605301242228
2258.180635186791 2166.242108337405
2258.779840985704 2360.5499276082837
2259.37890214843 2343.0444449253714
2259.97781870799 2599.7036231487173
2260.5765906973957 2644.2548372935476
2261.175218149645 2652.6567594852627
2261.773701097718 2469.2092095690446
2262.3720395745895 2078.278422089708
2262.970233613216 2079.979897022378
2263.568283246548 2438.93093834829
2264.1661885075137 2098.2964650801323
2264.763949429038 2186.2137460576723
2265.3615660440246 2604.999608865696
2265.959038385374 2219.624972828986
2266.5563664859637 2619.342963387466
2267.153550378669 2365.89245302066
2267.7505900963424 2430.277628258278
2268.3474856718312 2298.4365763394585
2268.9442371379664 2128.378881532719
2269.5408445275643 2234.3680111797103
2270.1373078734377 2256.60565203304
2270.7336272083758 2254.422105607581
2271.32980256516 2256.808444844566
2271.925833976562 2620.89601582082
2272.5217214753357 2597.4625009488745
2273.117465094223 2130.046575460664
2273.7130648659586 2252.0577200155376
2274.308520823257 2141.9154258206386
2274.903832998827 2578.4078664543695
2275.4990014253563 2121.407289932535
2276.094026135528 2530.8782884056213
2276.6889071620117 2482.218318185386
2277.2836445374614 2354.504730241892
2277.878238294519 2192.4029071036994
2278.472688465812 2112.0186913058324
2279.066995083962 2031.4420230283006
2279.6611581815705 2319.8411976006664
2280.255177791232 2316.924699968269
2280.8490539455233 2624.758627555159
2281.442786677013 2715.6135858280845
2282.0363760182554 2347.781654693149
2282.6298220017943 2250.4272497431243
2283.223124660155 2655.0878419760797
2283.816284025859 2317.747795171029
2284.4093001314086 2392.3102204567485
2285.002173009292 2235.5349478477674
2285.5949026919952 2650.1424728576903
2286.1874892119777 2356.8031991116072
2286.7799326016993 2486.5986769924157
2287.3722328936 2123.0168439701984
2287.964390120109 2024.4181247099718
2288.556404313642 1934.9334069161773
2289.1482755066027 1845.1684989410558
2289.7400037313873 2351.3726674144455
2290.3315890203703 2160.644930345482
2290.9230314059205 2396.1623333493403
2291.5143309203904 2301.6986301421503
2292.1054875961236 2234.0852873977087
2292.6965014654506 2587.8000105264873
2293.287372560684 2306.5779735335204
2293.878100914131 2175.6808045275247
2294.468686558086 2044.5741506040035
2295.059129524827 2301.328413792809
2295.649429846617 2195.5684216795516
2296.239587555716 2089.51693917733
2296.8296026843636 2284.7179816309144
2297.419475264791 2191.8801652746024
2298.0092053292137 2098.733418861558
2298.598792909839 2487.6884343327356
2299.1882380388597 2186.9768735946373
2299.777540748455 2297.479416289042
2300.3667010707904 2502.5834454559117
2300.9557190380256 2325.969097125705
2301.544594682302 2715.695587230858
2302.1333280357503 2606.3175675461416
2302.721919130485 2496.868228810764
2303.3103679986198 2499.995821620035
2303.898674672242 2373.0326309218003
2304.486839183437 2023.9271821346495
2305.0748615642697 2267.618963559594
2305.6627418468015 2281.276234291173
2306.2504800630704 2194.967029205392
2306.8380762451143 2431.9695491323682
2307.425530424949 2402.385552726524
2308.012842634582 2372.7149403278513
2308.6000129060103 2513.345710533866
2309.187041271214 2574.6981096340473
2309.773927762164 2182.4459502754553
2310.3606724108213 2434.184437491473
2310.9472752491274 2006.712012628921
2311.5337363090184 2435.2502056297826
2312.120055622414 2263.395691147341
2312.706233221221 2475.6911016985837
2313.2922691373424 2530.3704046174466
2313.8781634026564 2585.153880967303
2314.463916049037 2203.9443390413517
2315.049527108342 2497.6624093968726
2315.6349966124235 2685.0123072374913
2316.2203245931123 2381.542735328454
2316.8055110822315 2045.959438011867
2317.3905561115935 2021.8185812156885
2317.9754597129977 2351.543753267403
2318.560221918229 2518.1048739615226
2319.1448427590603 1993.854633987652
2319.729322267256 1971.3248404335432
2320.313660474563 2110.024321926524
2320.8978574127195 2640.195688271301
2321.481913113452 2540.457830324464
2322.0658276084705 2220.320728845571
2322.6496009294806 2108.1826540522466
2323.233233108165 2002.4296478869946
2323.8167241762058 2345.3710466231364
2324.4000741652617 2298.2440268201835
2324.983283106987 2344.9079050159935
2325.5663510330232 2418.378771293189
2326.1492779749933 2217.27282640666
2326.7320639645204 2366.044070587572
2327.3147090332004 2530.8014875495023
2327.897213212629 2206.8419463503183
2328.4795765343843 2405.0671908371764
2329.0617990300307 2026.2500194153777
2329.643880731124 2474.020318468637
2330.22582166921 2093.2127479282035
2330.807621875816 1918.6408604256424
2331.3892813824623 1743.9538107006756
2331.9708002206517 2001.7428713081306
2332.5521784218818 2363.754808842441
2333.133416017634 2094.174609453795
2333.7145130393765 1924.497659715782
2334.295469518571 2400.2036679951793
2334.876285486658 2271.4951705223966
2335.456960975076 2011.063130892935
2336.037496015242 2346.6571273321206
2336.6178906385667 2404.1113906425926
2337.198144876451 2370.9395084695025
2337.778258760278 2298.2505294715993
2338.3582323214214 1935.1483940343394
2338.938065591243 2300.153583074303
2339.517758601087 2337.153904095548
2340.0973113822965 2220.78400741128
2340.676723966193 2135.1362408266114
2341.255996384094 2278.910988331696
2341.835128667295 2471.3592374602204
2342.4141208470883 2331.9937158749954
2342.992972954751 2039.9391226187631
2343.5716850215467 1851.2935044267447
2344.1502570787306 1662.215972168527
2344.7286891575386 1870.4776371934913
2345.3069812892045 2428.4425088901617
2345.885133504944 2193.742801110513
2346.4631458359618 2217.965757038696
2347.04101831345 2062.623394705857
2347.6187509685915 2135.3906053052374
2348.196343832553 2155.871504775873
2348.7737969364935 2347.4468727053577
2349.351110311558 1964.658071965777
2349.9282839888765 2217.6354998508314
2350.5053179995757 2084.522731719077
2351.0822123747585 1905.8111231350788
2351.658967145526 1992.31747418298
2352.2355823429643 2079.0857442636793
2352.812057998144 2193.3248010184006
2353.3883941421263 1801.984062671596
2353.9645908059647 2123.8658639439336
2354.540648020693 2161.334106264784
2355.116565817336 1862.3493821315365
2355.6923442269126 2434.2340707703174
2356.2679832804224 2302.6829559572357
2356.8434830088518 1764.1422490816487
2357.41884344318 1987.194153929958
2357.994064614377 2079.5105951573432
