#exp_cfg={"servo_angle": 0.0, "laser_lim": 100.0, "servo_angle_to": 18.0, "laser_wup": 0.0, "bt_dev": "EnSpectr-25AE3", "laser_wdn_max": 0.0, "frames": 10.0, "servo_used": 0, "servo_calib_use": 0, "laser_wdn_min": 0.0, "servo_pix_from": 90.0, "cooler_tout": 300.0, "servo_angle_from": 0.0, "servo_calib": "[-1.9174921013161362e-09, 3.9322238269163779e-05, -0.27385609119055809, 653.59552119713567]", "laser_autoctl": 0, "servo_pix_to": 3682.0, "laser_pw": 100.0, "cooler_on": 0, "laser_volt": 4.0, "cooler_autoctl": 0, "cooler_curr": 70.0, "cooler_startup": 10.0, "laser_fixed_pw": 0, "gain": 1.3, "offset": 2.53059635486, "servo_calib_degree": 3.0, "laser_curr": 55.0, "shutter": 8200.0, "servo_calib_step": 1.0, "laser_fixed_curr": 0, "exp": 2000.0, "ccd_volt": 4.7, "bt_addr": "00:06:66:62:5A:E3", "servo_delay": 500.0, "laser_autooff": 1}
#proc_cfg={"flat_auto_wnd": 200.0, "flat_auto_fr": 200.0, "flat_auto_shift": 5.0, "yconv": 1, "flatten": 1, "flatten_strength": 100.0, "xfrom": 300.0, "auto_max_frame": 2000.0, "auto_signal": 48000.0, "flat_auto_tol": 0.1, "autoclip": 1, "xrel_range": 0.0, "flat_auto_to": 4000.0, "intensity_adj": 1.0, "xrel": 7852.0, "rmhot": 1, "flat_auto_slit": 4.999999999999997, "auto_ini_exp": 300.0, "auto_off": 0, "xto": 2860.0, "flat_auto_ref": "", "flat_auto_rank": 1, "autobackg": 0, "xrel_adj": 0.0, "auto_black_lvl": 1, "base_wnd": 100.0, "sub_baseline": 0, "xconv": 2, "auto_max_exp": 1000.0, "auto_total_exp": 10000.0, "auto_exp": 0, "rmripple": 0, "black_lvl": 8243.8375, "shutter_clip_adj": 0.0, "auto_bckg": 0, "flat_auto_thr": 0.9, "subbackg": 1}
316.8218498245369 10563.018073889307
317.89969571804795 10488.263826643823
318.977263876126 10435.961583534961
320.05455438786703 10306.631800340063
321.1315673423287 10360.174585409059
322.2083028285215 10324.267793792289
323.2847609354267 10268.861122601335
324.3609417519747 10262.896051911885
325.43684536705587 10183.055059121793
326.5124718695279 10189.698857453857
327.58782134820103 10084.721191475724
328.66289389184385 10111.525520249816
329.7376895891921 9981.113055600861
330.8122085289342 9966.271617184395
331.88645079971866 10042.949068096947
332.9604164901575 9901.596815277659
334.03410568881554 9885.56958570044
335.1075184842266 9987.286396503177
336.18065496487543 9822.479674597029
337.2535152192122 9816.532895573646
338.32609933564163 9842.29952021873
339.39840740253203 9779.520154089658
340.4704395082099 9721.743469819467
341.5421957409617 9679.687479984064
342.6136761890357 9790.540112817213
343.6848809406365 9636.339441789469
344.75581008392874 9554.564886680713
345.82646370703696 9492.98147968738
346.8968418980512 9554.799965263926
347.96694474501055 9547.981754928074
349.0367723359268 9531.359671532382
350.106324758759 9519.12091146449
351.1756021014353 9460.873685723458
352.2446044518383 9416.867454843035
353.31333189781435 9469.17110238311
354.38178452716966 9374.241808138651
355.449962427665 9357.467594148791
356.51786568702846 9313.042248398433
357.58549439294256 9404.636652288891
358.6528486330535 9407.356528332126
359.71992849496564 9377.57263007848
360.7867340662433 9388.636485133113
361.8532654344144 9358.358594876921
362.9195226869597 9404.993217706362
363.9855059113288 9304.524457584646
365.05121519492604 9283.65370162675
366.11665062511565 9313.91361477814
367.1818122892273 9254.12801482147
368.2467002745434 9308.050547895644
369.31131466831175 9275.060864841573
370.375655557742 9253.56730624384
371.4397230299983 9231.882286389056
372.5035171722102 9226.889894352928
373.5670380714637 9183.099006365654
374.6302858148101 9237.633210593609
375.6932604892554 9211.518915559822
376.7559621817709 9204.872114071797
377.81839097928605 9098.716503439366
378.8805469686886 9161.021157387633
379.94243023683157 9280.544368421486
381.0040408705263 9129.771504662645
382.0653789565458 9040.641718658479
383.1264445816196 9024.036619131963
384.1872378324406 9063.66947949107
385.2477587956637 9092.047538510136
386.3080075579037 8965.253171629469
387.3679842057336 8948.61722535144
388.4276888256918 9007.844657895097
389.48712150426945 8929.037365026417
390.54628232792857 8931.906685274458
391.6051713830857 8874.759875954527
392.66378875611736 8914.061989009811
393.7221345333637 8864.819749497556
394.7802088011249 8876.838986748402
395.838011645661 8862.952834235477
396.89554315319765 8776.765940165857
397.9528034099112 8771.628577470987
399.00979250194723 8742.326402426514
400.06651051541485 8691.328354416266
401.1229575363741 8714.82784686226
402.17913365085224 8690.475320470225
403.23503894483656 8725.457357389783
404.2906735042761 8670.881170790528
405.3460374150818 8592.382692271745
406.401130763119 8615.921525954407
407.455953634224 8693.478396629502
408.5105061141876 8636.711493785839
409.56478828876243 8565.272277073282
410.6188002436629 8518.333227984094
411.6725420645689 8509.024991599561
412.72601383711117 8589.284269362752
413.77921564689314 8567.195714947871
414.8321475794728 8408.830860250822
415.88480972036814 8442.479016269792
416.93720215506437 8455.631297967406
417.9893249690049 8390.13175891741
419.04117824759123 8380.522871646634
420.09276207619223 8346.675994584137
421.144076540133 8339.252388584315
422.1951217247042 8326.261254235136
423.24589771515275 8367.012263092634
424.2964045966928 8332.730050352802
425.34664245449494 8311.40757435582
426.3966113736933 8234.125489025339
427.4463114393875 8199.514814023232
428.49574273662984 8272.274441324686
429.5449053504417 8175.864542642781
430.5937993658026 8214.164335040929
431.6424248676558 8205.748160888279
432.6907819409007 8190.701896057253
433.73887067040596 8187.27557090745
434.7866911409965 8185.590540674432
435.8342434374608 8139.013268950994
436.88152764455117 8171.954349589568
437.9285438469724 8122.278958677783
438.9752921294057 8079.852477513271
440.02177257648145 8135.048321792094
441.06798527279716 8046.456774865484
442.1139303029122 8158.406749472777
443.1596077513459 8042.032987401253
444.2050177025794 8124.165087112131
445.25016024105753 8074.371263588156
446.2950354511886 8112.137778468823
447.33964341733736 8101.875832876914
448.383984223834 8092.825332135208
449.4280579549686 8004.345733861985
450.471864694995 8019.565382436116
451.5154045281306 8003.200164055638
452.5586775385509 8036.710430018231
453.60168381039693 7967.975389099466
454.64442342776783 8128.181384044712
455.6868964747264 8062.322937903889
456.7291030353008 8000.074800530203
457.77104319347563 8049.649752815589
458.8127170332027 8042.303200977886
459.854124638392 8073.818909747696
460.895266092919 8161.656488772913
461.93614148061897 8128.967558379421
462.97675088529104 8129.631132235188
464.01709439069236 8214.24283624427
465.0571720805492 8216.035461086463
466.0969840385442 8293.540044923395
467.1365303483253 8307.746057206143
468.17581109350067 8301.999784246025
469.2148263576437 8319.570590581385
470.2535762242878 8319.714140226815
471.29206077693016 8427.19280732508
472.33028009902773 8411.00188106793
473.3682342740012 8386.385592873385
474.40592338523857 8375.597245580051
475.4433475160804 8394.432751226275
476.4805067498364 8375.47197201886
477.51740116978 8323.236488547647
478.5540308591426 8355.765110771716
479.59039590112116 8378.944888001823
480.6264963788726 8320.195953068871
481.6623323755193 8304.62295164062
482.6979039741436 8312.406531974912
483.7332112577915 8384.931975497995
484.76825430947247 8510.85843480589
485.80303321215797 8403.782337532193
486.837548048783 8447.920695761084
487.8717989022425 8505.527743964407
488.90578585539697 8481.909045353072
489.9395089910686 8592.014857601262
490.97296839203955 8404.795668859262
492.00616414106116 8290.016638976103
493.0390963208429 8370.922531854074
494.0717650140559 8355.76996971457
495.10417030333883 8203.522529288322
496.1363122712901 8158.3843469840995
497.16819100046814 8049.243787940904
498.1998065734024 7981.300243106537
499.2311590725767 7969.45853877565
500.26224858044407 7906.130505219849
501.2930751794156 7864.228965822459
502.3236389518679 7837.6042563267965
503.35393998014115 7822.558701507561
504.38397834653733 7788.3005103784
505.4137541333221 7748.396883148702
506.4432674227228 7732.084014270867
507.4725182969323 7638.814112596427
508.5015068381035 7659.835624857964
509.53023312835467 7688.934254159305
510.55869724976765 7632.225890327709
511.58689928438434 7617.276012021917
512.6148393142121 7538.196967329392
513.6425174212218 7582.585620254552
514.6699336873462 7592.847516536165
515.6970881944835 7597.482620289398
516.7239810244901 7504.342708154884
517.7506122591931 7514.487944133839
518.7769819803761 7515.9713252778365
519.8030902697901 7521.7675367457505
520.8289372091476 7529.698266003514
521.8545228801249 7601.0421544057535
522.8798473643619 7426.540606909405
523.9049107434621 7455.266652522505
524.9297130989908 7516.817849939549
525.9542545124805 7438.848306125701
526.9785350654201 7480.290887276744
528.0025548392696 7399.051835543347
529.0263139154504 7312.930228967742
530.0498123753423 7404.093273460227
531.073050300296 7381.873108749806
532.0960277716204 7295.148538212818
533.1187448705896 7294.007923080244
534.1412016784416 7273.173148870718
535.1633982763833 7239.109696848561
536.1853347455726 7248.127899677449
537.2070111671401 7248.113837380342
538.2284276221817 7235.917010052888
539.2495841917516 7173.762123046222
540.2704809568677 7135.522883889756
541.2911179985167 7122.6179885885595
542.3114953976419 7116.303448137926
543.3316132351592 7056.799485563005
544.3514715919409 7023.19478723074
545.3710705488247 7059.5469693738105
546.3904101866156 7006.5824768180955
547.4094905860784 7077.019432418233
548.4283118279418 6985.914747351822
549.4468739929034 6982.200738576459
550.4651771616191 6957.4163514432075
551.4832214147063 6892.133228178699
552.501006832761 6967.400557953559
553.5185334963226 6884.820104534859
554.5358014859103 7022.321300952797
555.5528108820035 6931.214783153331
556.5695617650363 6881.131294673971
557.5860542154242 6889.164335909403
558.6022883135283 6915.530594169382
559.6182641396881 6847.016380518168
560.6339817741991 6888.077331372189
561.6494412973225 6897.6400339905695
562.6646427892883 6901.920728784653
563.6795863302796 6852.943252760716
564.694272000459 6850.983651482946
565.7086998799423 6951.300252682748
566.7228700488104 6850.746467786041
567.7367825871115 6792.8452648473885
568.7504375748576 6829.767022686052
569.7638350920224 6856.417459671595
570.7769752185486 6793.55234511211
571.7898580343353 6812.786584604844
572.802483619258 6724.731780095275
573.8148520531431 6869.188274136262
574.8269634157932 6825.249732060777
575.8388177869692 6844.553934038119
576.8504152463938 6818.840567002048
577.8617558737587 6848.244812837256
578.8728397487175 6796.815911755048
579.883666950891 6829.467796098313
580.8942375598654 6954.608612357699
581.9045516551851 6925.760571214974
582.9146093163617 7073.204825361552
583.924410622878 6966.420353267515
584.9339556541727 6977.9804131041365
585.9432444896538 6987.943408298333
586.9522772086875 6924.684993857438
587.9610538906127 7032.439232980799
588.9695746147318 6963.470328921283
589.9778394603054 7023.4154865407645
590.985848506567 6940.725893940456
591.9936018327098 6922.094257978916
593.0010995178891 6790.232264432087
594.0083416412344 6863.377956641988
595.0153282818283 6714.261870584769
596.0220595187293 6707.9970244119595
597.0285354309508 6663.261016040391
598.0347560974806 6711.963874116214
599.0407215972609 6654.34969251382
600.0464320092051 6676.673610350206
601.0518874121954 6602.789802750801
602.0570878850685 6668.725272945396
603.062033506636 6618.576840509211
604.0667243556636 6677.545216378392
605.0711605108936 6545.694867302512
606.0753420510264 6684.890194866288
607.0792690547278 6617.53746129838
608.082941600629 6611.281421855723
609.0863597673306 6654.93827206447
610.0895236333909 6641.544281453952
611.0924332773357 6748.988437812385
612.0950887776617 6721.849539875014
613.0974902128219 6729.367512506052
614.0996376612384 6723.159589966941
615.1015312013005 6851.064190601447
616.1031709113595 6840.232105676507
617.1045568697336 6818.784020099418
618.1056891547069 6872.793171152747
619.1065678445229 6990.284604411473
620.1071930173985 7076.061919504644
621.1075647515099 7084.910053568378
622.1076831250048 7058.541820961489
623.1075482159849 7201.001631703551
624.1071601025305 7203.319901619837
625.1065188626781 7270.104328055268
626.105624574433 7473.429126728435
627.1044773157682 7460.201184182141
628.1030771646128 7480.709674010725
629.1014241988742 7482.261517883727
630.0995184964158 7602.77420077233
631.0973601350688 7662.39850818979
632.0949491926294 7790.918465561864
633.0922857468631 7644.745952985169
634.089369875499 7616.574887616301
635.0862016562278 7683.19877747807
636.0827811667077 7578.10312686473
637.0791084845641 7492.779342355386
638.0751836873878 7450.195450316549
639.0710068527369 7554.626317888595
640.0665780581294 7347.462481269681
641.0618973810506 7369.82075340122
642.0569648989604 7373.333064312479
643.0517806892676 7153.396690341263
644.0463448293649 7165.566129196649
645.040657396592 7125.0134011605205
646.0347184682723 7019.317424765392
647.0285281216875 6990.554639601064
648.0220864340772 6836.166907754339
649.0153934826558 6815.573430919359
650.0084493446047 6852.6838992741195
651.0012540970674 6768.536613512745
651.9938078171526 6730.83930068833
652.9861105819346 6678.2457124311495
653.9781624684565 6697.045024383787
654.9699635537254 6555.713666018894
655.9615139147136 6670.884067296945
656.9528136283589 6538.624609632684
657.9438627715699 6609.419560999045
658.9346614212154 6482.79548685332
659.925209654135 6420.688157322865
660.9155075471263 6439.268407696642
661.9055551769616 6394.807368793897
662.895352620375 6492.3995961362025
663.8848999540678 6429.680025547163
664.8741972547068 6312.387119757733
665.863244598926 6248.691258399805
666.8520420633213 6361.210883860657
667.8405897244611 6192.956463833785
668.8288876588758 6173.85884287043
669.8169359430613 6256.128925094041
670.8047346534822 6186.436842173364
671.7922838665672 6112.407013245176
672.7795836587156 6217.981944480095
673.766634106285 6306.771911127577
674.7534352856092 6090.556472110939
675.7399872729766 6064.36264646322
676.7262901446538 6114.360653425094
677.712343976862 6118.545896726437
678.6981488457986 6141.675484977003
679.6837048276229 6025.923835121889
680.6690119984596 6141.261287845871
681.6540704344043 6091.6527674033105
682.6388802115107 6047.388557251472
683.6234414058108 6088.396954829391
684.6077540932874 6016.543886176528
685.591818349907 6026.898449712866
686.575634251587 5976.719139371801
687.5592018742263 6002.200538765408
688.5425212936734 5889.669590896111
689.5255925857564 5959.482659686264
690.5084158262707 5992.418850478126
691.4909910909646 5868.954047522777
692.4733184555644 5874.597728349247
693.4553979957618 5915.608592306676
694.4372297872123 5917.159828747894
695.4188139055404 5874.740030994643
696.4001504263324 5741.239434232002
697.3812394251509 5838.713044020605
698.3620809775111 5774.49753680057
699.3426751589104 5831.548536235563
700.3230220448004 5814.309375859079
701.3031217106054 5817.860225060709
702.2829742317172 5888.0709528522675
703.2625796834873 5772.088962922957
704.2419381412474 5785.838875290561
705.22104968028 5770.519733856934
706.1999143758458 5766.690072053903
707.178532303169 5736.207348673492
708.1569035374378 5838.844626795852
709.1350281538107 5871.664367559873
710.1129062274158 5780.1323993789965
711.0905378333373 5893.533377531275
712.0679230466376 5913.230660019553
713.0450619423427 6030.1547640215085
714.0219545954424 5981.491049147649
714.9986010808989 5980.6616693421
715.9750014736292 6099.148375314837
716.9511558485392 6298.57436513652
717.9270642804786 6237.232966789401
718.9027268442787 6245.496217228834
719.8781436147328 6246.320253276348
720.8533146666014 6184.880143716725
721.828240074612 6276.562331275045
722.8029199134635 6217.345681028274
723.7773542578125 6129.015137337615
724.751543182294 6088.400755711568
725.7254867615029 6135.88019818863
726.6991850700015 5941.3818134990415
727.6726381823228 5939.047678342542
728.6458461729599 5919.447198915355
729.6188091163858 5878.878329463105
730.5915270870246 5893.0691466952985
731.5640001592856 5818.058254541264
732.536228407529 5856.688986577709
733.5082119060917 5855.004985823742
734.4799507292755 5849.214501711348
735.4514449513481 5853.490695802971
736.4226946465496 5890.626408969593
737.3936998890786 5849.931637825941
738.3644607531078 5787.898247886099
739.3349773127793 5769.939095368106
740.3052496421951 5705.123609221692
741.27527781543 5718.662121709805
742.2450619065221 5654.8667642957935
743.2146019894826 5627.916104350073
744.183898138288 5597.925721835637
745.1529504268801 5611.099302249219
746.1217589291682 5467.777066757675
747.0903237190341 5498.0983016736145
748.058644870318 5473.772911733312
749.0267224568397 5479.388987110674
749.994556552374 5320.708681778454
750.9621472306771 5437.207755283582
751.9294945654583 5418.886997570763
752.8965986304011 5380.615271029402
753.8634594991636 5324.7107910082
754.8300772453586 5307.507075782469
755.7964519425768 5305.237459285621
756.762583664371 5399.3989141271195
757.7284724842611 5342.530402470563
758.6941184757416 5266.891961845865
759.6595217122667 5308.252642725842
760.6246822672638 5314.22842889183
761.5896002141235 5201.08036839454
762.5542756262093 5283.765496066589
763.5187085768503 5295.338125091111
764.4828991393406 5198.3543080314785
765.4468473869474 5236.64850138591
766.4105533929032 5264.770434680176
767.3740172304078 5223.490786639808
768.3372389726283 5280.361003504997
769.3002186926988 5157.237326094827
770.2629564637282 5183.672869635457
771.2254523587872 5153.106364587099
772.1877064509154 5113.453176187849
773.1497188131179 5039.923407217394
774.1114895183728 5086.263574142462
775.0730186396268 5078.711379069753
776.0343062497905 4979.975420440521
776.9953524217381 5039.456533686243
777.9561572283274 5038.44510849123
778.9167207423689 5027.782604350179
779.8770430366476 4976.27876431745
780.8371241839159 4990.158023720586
781.7969642568951 4955.1463214193245
782.7565633282757 5091.841434615531
783.7159214707099 4996.431801907055
784.6750387568281 5007.398511311566
785.6339152592227 4918.116993646383
786.5925510504512 4875.46867627582
787.5509462030477 4977.428886019923
788.5091007895098 4928.048188514024
789.4670148823006 5002.615378517142
790.4246885538596 4894.025879938346
791.3821218765861 4896.22845894612
792.3393149228505 4843.060666955566
793.2962677649975 4952.8653824889825
794.2529804753303 4904.532490497108
795.20945312613 4953.964844598066
796.1656857896378 4888.919116499101
797.1216785380675 4870.2313657355935
798.0774314435985 4925.728315813159
799.0329445783846 5042.445660782945
799.9882180145414 5000.19070455665
800.9432518241574 5008.592905341362
801.89804607929 4985.4975656909855
802.852600851962 5056.747432808143
803.8069162141637 4997.932269727202
804.760992237856 5069.732715506688
805.714828994971 5096.704458814974
806.6684265574077 5105.175484330504
807.6217849970271 5073.564701308367
808.574904385674 5013.8670892587725
809.527784795142 5074.829532903653
810.4804262972102 5091.396605004341
811.4328289636178 4999.2332711633435
812.3849928660748 4911.925634400481
813.3369180762638 4902.358676410285
814.2886046658241 4935.71795863527
815.2400527063783 4825.496020953318
816.1912622695108 4852.14259613797
817.1422334267718 4842.039448600902
818.0929662496856 4817.985709515956
819.0434608097457 4702.543651732331
819.9937171784059 4750.08779846432
820.9437354271013 4679.8599615520925
821.8935156272255 4786.793914852349
822.8430578501484 4709.648331806128
823.7923621672016 4562.442574733328
824.7414286496896 4645.564330492011
825.6902573688876 4679.807987271626
826.6388483960363 4672.107295416479
827.5872018023492 4593.856510908479
828.5353176590033 4663.423251010951
829.4831960371503 4586.654879929249
830.4308370079016 4560.109736293043
831.3782406423525 4568.045415380358
832.3254070115545 4592.52426372776
833.2723361865319 4537.164131202782
834.2190282382799 4509.001194731254
835.1654832377644 4618.1889822276535
836.1117012559116 4532.548751911475
837.0576823636256 4617.851684992856
838.003426631778 4515.871501957403
838.9489341312074 4462.29653609927
839.8942049327197 4598.5549880523495
840.8392391070975 4600.38536046691
841.7840367250865 4489.792300960533
842.7285978573982 4446.71071277597
843.672922574724 4500.3820456564235
844.6170109477152 4525.106743994202
845.560863046996 4533.201023232826
846.5044789431595 4479.759523740344
847.4478587067697 4502.160825835847
848.3910024083561 4547.900254632811
849.333910118421 4535.992972705273
850.2765819074339 4439.8019722679
851.2190178458332 4568.318802959034
852.161218004032 4533.537819560088
853.1031824524016 4519.224853068647
854.0449112612987 4488.956656147921
854.9864045010327 4502.396921308548
855.9276622418947 4507.479134475991
856.8686845541379 4500.4446918958065
857.8094715079915 4507.923591479955
858.7500231736467 4550.374709443593
859.690339621271 4553.447188865858
860.6304209209939 4463.821252479073
861.5702671429244 4422.837443001231
862.5098783571284 4458.363489832283
863.4492546336569 4526.752657976338
864.3883960425155 4434.359287921979
865.3273026536863 4477.398001634894
866.2659745371238 4363.36167078134
867.2044117627465 4536.341008236964
868.1426144004472 4425.576321773611
869.0805825200823 4506.866757965972
870.0183161914847 4480.804972786287
870.9558154844526 4502.1326698875655
871.8930804687552 4455.178680987514
872.8301112141307 4371.589142794726
873.7669077902865 4451.2609677480195
874.7034702669062 4645.409037596173
875.6397987136315 4554.091889107863
876.5758932000863 4571.707931733812
877.5117537958522 4499.062724588023
878.4473805704911 4505.797020323129
879.3827735935283 4490.281864046088
880.3179329344603 4602.6547113987335
881.2528586627541 4655.9149720264095
882.1875508478479 4640.55245321185
883.1220095591489 4562.20184932509
884.0562348660296 4579.086018082034
884.9902268378391 4563.259494200626
885.9239855438955 4493.94689495464
886.8575110534839 4464.129545233423
887.7908034358588 4504.597203229665
888.7238627602474 4575.96745437786
889.6566890958475 4543.929968259457
890.5892825118208 4385.996682014554
891.5216430773125 4479.884565348142
892.4537708614189 4426.57418585376
893.3856659332196 4400.416583525842
894.3173283617652 4377.498014516055
895.2487582160684 4416.946349133635
896.179955565116 4335.104223798897
897.110920477864 4301.104435749567
898.0416530232451 4359.8825574593375
898.9721532701478 4329.799489893036
899.9024212874428 4406.8967487873715
900.8324571439662 4296.98549190147
901.7622609085302 4236.842457859491
902.6918326499072 4270.837944110403
903.6211724368477 4271.210541884594
904.5502803380696 4366.467226869829
905.4791564222614 4323.5497790489335
906.4078007580792 4214.7676818216
907.3362134141571 4283.9317136443005
908.2643944590909 4344.2239356886
909.1923439614493 4263.116502147789
910.1200619897754 4234.904108913249
911.0475486125779 4383.865981997164
911.9748038983344 4268.544290213944
912.9018279155007 4229.933791432579
913.8286207324982 4145.864813008454
914.7551824177117 4242.124544285212
915.6815130395116 4206.762353507257
916.6076126662283 4130.564306952906
917.533481366163 4231.144972721776
918.4591192075914 4151.3834987269765
919.3845262587565 4181.675636517029
920.3097025878706 4089.415937803311
921.2346482631237 4157.089693620495
922.1593633526682 4153.855408914866
923.0838479246304 4141.344535919831
924.0081020471061 4163.255655170863
924.9321257881656 4047.4642502947004
925.8559192158464 4108.934511897629
926.7794823981512 4047.859159085321
927.7028154030686 4047.2623476626677
928.6259182985414 4029.8473526539665
929.5487911524906 4153.331426570138
930.4714340328119 4136.553759409848
931.3938470073608 4004.7242131086705
932.3160301439748 4074.4303578635104
933.2379835104548 4092.8753166898414
934.1597071745709 4081.306230235257
935.0812012040769 4090.241482052768
936.002465666681 4087.4970760991987
936.9235006300696 4138.556195752428
937.8443061619055 4070.6358036050187
938.7648823298077 3980.6315169624568
939.6852292013809 4066.744556887671
940.6053468441951 4034.159571707918
941.5252353257874 3994.0103692140065
942.4448947136698 4023.1305066051523
943.364325075323 3982.8469306034144
944.2835264782043 3976.4091055735335
945.2024989897309 4035.5482465630857
946.1212426773054 4005.731277852209
947.0397576082851 4035.4304349785125
947.9580438500125 4045.4103962798317
948.8761014697939 4066.6376514325457
949.7939305349064 3993.892775391459
950.7115311125999 3925.375161376961
951.6289032700952 3945.0260362494496
952.5460470745875 4046.625809822992
953.4629625932339 3982.21041295931
954.3796498931715 4026.4753006299047
955.2961090415029 4070.6451567388604
956.2123401053068 4004.0930587748167
957.1283431516276 3969.1845340721093
958.0441182474842 3906.658988941331
958.9596654598663 4030.5812612996424
959.8749848557309 3975.838586030533
960.7900765020167 3937.4997684588807
961.7049404656209 3916.3600240364563
962.6195768134185 4003.9359521824204
963.5339856122537 3977.304853029427
964.4481669289453 3999.2055672477445
965.3621208302793 3930.5485772340908
966.2758473830145 3895.083313941292
967.1893466538822 4018.289194607256
968.1026187095813 3947.876351171897
969.0156636167867 3927.372612873239
969.9284814421426 4008.750749381844
970.8410722522622 3886.7183974686386
971.753436113735 3887.9416972522195
972.6655730931161 3935.5709538759897
973.5774832569368 3946.621749461757
974.4891666716958 3903.9351899510016
975.4006234038698 3810.20064704962
976.3118535198955 3879.368086512541
977.2228570861935 4086.9326241434383
978.1336341691494 3948.7369473201807
979.0441848351202 3860.139901677508
979.9545091504333 4006.454171359487
980.864607181391 3918.8593564138746
981.7744789942699 3917.222623094485
982.6841246553086 3878.342219731221
983.5935442307236 3919.6420731889543
984.5027377867027 3927.5687710754564
985.4117053894024 3972.8767391982424
986.3204471049557 3866.6304196605333
987.2289629994648 3956.4872602029072
988.1372531390007 3994.982080598945
989.0453175896091 3979.883828607599
989.9531564173067 3945.7615562835554
990.860769688079 3891.50854496425
991.7681574678918 3899.302590906738
992.6753198226706 3956.1663562678814
993.582256818323 3916.6156548744425
994.4889685207218 3968.7437285729566
995.3954549957143 4027.399840367577
996.301716309119 4059.790859069799
997.2077525267232 4000.5972942035673
998.1135637142943 3955.167393144133
999.0191499375615 4096.4249308655735
999.924511262232 4024.5095636618
1000.8296477539861 4009.3833996903763
1001.7345594784656 3973.157936565888
1002.6392465012996 3990.0243108852205
1003.5437088880753 4009.550825262554
1004.4479467043584 3995.8398733176205
1005.3519600156869 3898.7713620589775
1006.2557488875718 4036.7800248532417
1007.1593133854858 3982.0024891692215
1008.0626535748888 3931.9263623082065
1008.9657695212009 3858.7361884461484
1009.8686612898182 4057.9643761492907
1010.7713289461135 3968.3089298657096
1011.6737725554212 3958.3328572219457
1012.5759921830577 3977.8201048155083
1013.4779878943027 3924.2901203938322
1014.379759754418 3927.477343637868
1015.2813078286254 3818.708203240174
1016.18263218213 3842.625343167589
1017.0837328801026 3874.690873545968
1017.9846099876886 3945.341695029314
1018.8852635700023 3790.981931454774
1019.7856936921362 3757.0620706508244
1020.6859004191447 3919.5112279881178
1021.5858838160675 3787.3019574568257
1022.4856439479063 3847.622518796542
1023.3851808796389 3715.5486796750665
1024.2844946762143 3856.786880063507
1025.183585402554 3815.2903525236675
1026.082453123554 3615.5498698391684
1026.9810979040776 3811.1397723344403
1027.8795198089647 3695.5163317875326
1028.777718903024 3792.919448470657
1029.6756952510368 3721.6468565063938
1030.5734489177648 3675.1735714284127
1031.4709799679313 3666.303745689661
1032.3682884662358 3872.5705219963697
1033.2653744773506 3605.339797407329
1034.1622380659192 3629.348412775259
1035.058879296559 3745.8806420696615
1035.9552982338591 3770.2789670021098
1036.8514949423825 3694.6701239926747
1037.7474694866614 3710.955150015201
1038.6432219312028 3555.851865557458
1039.5387523404825 3773.485335163516
1040.4340607789582 3703.3646215252375
1041.3291473110476 3704.817118704501
1042.2240120011465 3746.9495313779676
1043.1186549136273 3764.9135647239173
1044.0130761128294 3658.3009589918415
1044.9072756630649 3704.310448129613
1045.8012536286205 3718.691088806063
1046.6950100737577 3709.813083425203
1047.588545062701 3789.8689137591
1048.481858659663 3706.5992297551143
1049.3749509288118 3825.087022860402
1050.2678219343034 3732.14013973881
1051.1604717402515 3741.6361059118194
1052.0529004107575 3660.9869369808393
1052.9451080098825 3752.0307412674256
1053.8370946016694 3684.1569800965344
1054.7288602501267 3761.0010484542377
1055.6204050192446 3707.460553391439
1056.511728972977 3714.537005627485
1057.402832175254 3781.1695860164027
1058.2937146899785 3668.8349667239236
1059.1843765810263 3673.0471782601016
1060.0748179122456 3721.879746685616
1060.9650387474576 3708.0865754486645
1061.855039150456 3672.190025943758
1062.7448191850071 3705.0165344344487
1063.6343789148505 3630.303609027098
1064.5237184037014 3822.434634808026
1065.412837715241 3729.6599388530217
1066.3017369131267 3665.2492371418457
1067.190416060992 3664.4865098812284
1068.0788752224398 3667.3788067742507
1068.9671144610438 3574.762757277561
1069.8551338403558 3676.2733357387797
1070.7429334239023 3635.9471262308994
1071.6305132751695 3535.997708951489
1072.517873457633 3668.185532282524
1073.4050140347335 3599.233535817544
1074.2919350698776 3618.9468924733687
1075.1786366264623 3568.5262997216255
1076.0651187678395 3660.027053204552
1076.95138155735 3553.802945034179
1077.8374250582929 3559.2028266099705
1078.7232493339507 3568.9791001061444
1079.608854447577 3509.9414809263935
1080.4942404623907 3527.7284439336095
1081.3794074415982 3589.365626000975
1082.2643554483657 3623.506640147466
1083.149084545841 3587.1243896355454
1084.033594797138 3505.424960082449
1084.9178862653516 3513.599089081391
1085.8019590135427 3593.016652274878
1086.6858131047484 3426.9035417935565
1087.5694486019802 3527.070250715404
1088.4528655682225 3573.1780732630205
1089.3360640664287 3628.3054305597498
1090.2190441595321 3562.0533431401163
1091.1018059104317 3556.587979004328
1091.98434938201 3626.222309833356
1092.866674637111 3662.102341187268
1093.748781738559 3539.714677315307
1094.6306707491512 3501.6228918148126
1095.5123417316554 3574.080818010201
1096.3937947488157 3543.8107250279477
1097.2750298633455 3542.585276502493
1098.156047137938 3472.7962685033854
1099.0368466352556 3502.497875340653
1099.9174284179317 3602.6318606690947
1100.7977925485757 3430.925495421917
1101.6779390897755 3474.6239305967865
1102.5578681040806 3434.9151672828257
1103.4375796540226 3473.131308773672
1104.3170738021054 3487.860662376666
1105.1963506108077 3335.3410048999053
1106.0754101425773 3291.113763994503
1106.9542524598382 3411.955069899747
1107.8328776249855 3396.0882407837476
1108.7112857003904 3442.71308409836
1109.5894767483987 3357.4132770866645
1110.4674508313292 3472.0227720871335
1111.3452080114657 3430.0760561295224
1112.2227483510815 3420.7352274840364
1113.1000719124077 3521.9432927921976
1113.9771787576592 3459.2168288924863
1114.854068949022 3432.811351228139
1115.7307425486542 3603.4788005123737
1116.6071996186893 3521.3929217241553
1117.483440221229 3564.4735114225127
1118.3594644183577 3523.984934796328
1119.235272272128 3526.100751341768
1120.1108638445658 3601.1306716214967
1120.9862391976712 3691.4603743810753
1121.8613983934229 3670.5508946869695
1122.7363414937627 3656.1087267491566
1123.6110685606182 3681.6951156852483
1124.485579655884 3797.0062829353724
1125.359874841426 3745.8262667438867
1126.2339541790916 3802.8094663384427
1127.1078177306936 3878.2367186896613
1127.9814655580267 3753.06744503303
1128.854897722851 3799.746796581756
1129.7281142869106 3734.5340306616395
1130.6011153119125 3790.4694353445093
1131.473900859548 3893.497877140258
1132.3464709914697 3741.330169067872
1133.2188257693178 3791.728261864059
1134.0909652546961 3717.456345876005
1134.96288950919 3594.992683557282
1135.8345985943506 3753.103219295058
1136.7060925717087 3546.433375666981
1137.57737150277 3601.273155187988
1138.4484354490069 3668.9842860644662
1139.3192844718778 3601.1783926462317
1140.1899186327992 3474.950197824767
1141.060337993178 3617.7109555803445
1141.930542614382 3530.2621565767317
1142.8005325577597 3404.4274801434285
1143.670307884635 3333.1571516103686
1144.5398686563003 3408.626842295466
1145.409214934025 3445.0205154026276
1146.2783467790541 3288.0770815945484
1147.1472642526023 3303.028698854048
1148.0159674158622 3374.3896365666833
1148.8844563300026 3310.9757109605644
1149.7527310561618 3253.582127075927
1150.6207916554504 3221.263748357671
1151.4886381889592 3212.813150939965
1152.3562707177498 3262.1903295286857
1153.2236893028585 3149.4447932963612
1154.090894005296 3155.616766958049
1154.9578848860474 3254.650735853263
1155.8246620060709 3207.152785374705
1156.6912254262988 3080.0892606835678
1157.5575752076438 3190.6019276164193
1158.42371141098 3330.6469566295773
1159.2896340971656 3304.90704778858
1160.1553433270346 3194.511575491079
1161.0208391613887 3137.8423643524084
1161.8861216610057 3095.7933972149576
1162.75119088664 3215.684432870028
1163.6160468990201 3159.924277427203
1164.4806897588442 3158.550095069793
1165.3451195267917 3204.3905636448726
1166.2093362635114 3182.25767459271
1167.0733400296285 3253.6016272337424
1167.9371308857444 3113.775512394594
1168.8007088924278 3078.436507761564
1169.6640741102328 3180.1008583930047
1170.5272265996773 3134.5407743328356
1171.390166421259 3115.9154687348223
1172.252893635452 3205.852179891827
1173.1154083026995 3294.6659331240126
1173.977710483421 3263.679368745144
1174.8398002380145 3101.859842822977
1175.7016776268483 3254.9277052516723
1176.563342710264 3199.7251036804937
1177.4247955485826 3217.786504165834
1178.2860362020947 3177.7401700005003
1179.147064731069 3071.0668070000806
1180.0078811957483 3212.7925681392144
1180.8684856563486 3157.89400845386
1181.7288781730604 3200.7943321595335
1182.589058806052 3180.031334053001
1183.4490276154593 3284.027981616623
1184.3087846614017 3122.6556796282575
1185.1683300039676 3220.2765622002285
1186.027663703222 3336.4580511128574
1186.8867858192025 3236.449042460543
1187.7456964119228 3312.811331279566
1188.6043955413716 3295.257531397656
1189.4628832675116 3359.107651142984
1190.3211596502842 3380.657770155609
1191.179224749596 3411.7100570604207
1192.0370786253388 3275.102678195076
1192.8947213373758 3454.6853377623875
1193.7521529455407 3464.5650992055866
1194.6093735096438 3404.0918860738057
1195.466383089477 3419.9551474385166
1196.3231817447977 3358.3571380265807
1197.1797695353398 3497.2203605615605
1198.0361465208189 3376.144231677334
1198.8923127609214 3361.434410330796
1199.7482683153048 3468.31018713475
1200.6040132436028 3559.2756318479333
1201.459547605431 3471.2058479620187
1202.3148714603722 3487.464530480199
1203.1699848679855 3525.7583148825775
1204.0248878878065 3547.5448783709057
1204.8795805793507 3271.3772382358216
1205.7340630020935 3519.611749785411
1206.5883352155033 3549.1181134744
1207.4423972790064 3473.038908136093
1208.2962492520237 3409.599348370671
1209.1498911939307 3406.030312383041
1210.0033231640937 3383.54356005385
1210.8565452218427 3476.7669185516265
1211.7095574264913 3195.1135557355565
1212.5623598373222 3348.8315383706336
1213.4149525135963 3268.7710281992195
1214.2673355145507 3323.7570612638037
1215.1195088993936 3237.0941307856033
1215.9714727273113 3210.31827216101
1216.8232270574663 3352.2779315700004
1217.6747719489904 3113.731541092326
1218.5261074609934 3215.698533475414
1219.3772336525653 3275.907340150205
1220.2281505827668 3312.730331108364
1221.0788583106296 3315.2718453094844
1221.9293568951707 3167.03561584889
1222.7796463953746 3128.663824488111
1223.629726870202 3243.316463002976
1224.4795983785934 3207.906893884637
1225.3292609794553 3163.310413958501
1226.1787147316809 3084.1754191874375
1227.0279596941327 3178.8499020897157
1227.8769959256424 3207.0338592414146
1228.7258234850306 3141.0305557113634
1229.5744424310833 3100.140168644547
1230.422852822563 3149.470130216103
1231.2710547182105 3240.7695112739802
1232.119048176739 3086.213432737417
1232.9668332568417 3010.3803310718604
1233.8144100171812 3085.2706251401196
1234.6617785163999 3133.2114374684506
1235.508938813111 2948.536005513989
1236.3558909659114 2953.9839240811007
1237.2026350333617 3076.791815681319
1238.049171074008 3153.5868826755996
1238.8954991463652 3018.3188112604325
1239.741619308932 3114.5867610353444
1240.587531620169 3131.21676269905
1241.4332361385277 3147.0699037876425
1242.2787329224248 3041.3698981803154
1243.1240220302534 2957.861913980132
1243.9691035203869 2939.560940668341
1244.813977451171 3171.7820799451797
1245.6586438809263 3056.096024994202
1246.5031028679496 2838.7104403332432
1247.3473544705157 3078.3373595184758
1248.1913987468706 3073.416053521829
1249.0352357552383 2911.3372571830487
1249.8788655538228 2956.599703589919
1250.7222882007918 3054.7171818138922
1251.565503754302 3061.7311720647276
1252.4085122724755 2816.0855634425498
1253.2513138134182 3065.3028198955144
1254.0939084352049 2952.963810044619
1254.9362961958905 3020.994059462293
1255.7784771535007 2991.031859744165
1256.6204513660432 3005.253614576209
1257.4622188915 3045.8530861676236
1258.3037797878242 2951.1026136431315
1259.1451341129468 2981.7877121655433
1259.9862819247755 3021.9444386708296
1260.8272232811978 2931.5091217724307
1261.6679582400666 3034.1343188916862
1262.5084868592203 2928.0545396050156
1263.34880919647 2940.667157006189
1264.1889253095997 2941.5257270741563
1265.0288352563712 3075.3250515387344
1265.8685390945266 2899.5006129708777
1266.7080368817751 3057.7262726092863
1267.5473286758115 3063.292370160784
1268.386414534294 3015.3763670335975
1269.2252945148703 2760.0511301239176
1270.0639686751547 2936.91493505744
1270.9024370727402 2889.756468949584
1271.7406997651997 2972.490863940381
1272.5787568100714 2852.965795470654
1273.4166082648808 2873.006409046664
1274.2542541871244 2893.0528109281586
1275.091694634275 3093.2330179609885
1275.9289296637817 2828.214378026571
1276.7659593330663 2985.9139055766504
1277.6027836995308 2908.8136055795876
1278.4394028205552 2998.3512552442908
1279.2758167534867 3010.445574105618
1280.112025555658 2924.065811632733
1280.9480292843746 2949.584796679034
1281.7838279969128 2805.114364534912
1282.6194217505326 2881.101285452306
1283.4548106024686 2819.9977185447137
1284.289994609926 2882.0288031187656
1285.1249738300921 2984.6745343141883
1285.959748320127 2814.7674989972184
1286.7943181371702 2902.497413155638
1287.6286833383328 2924.431263749691
1288.4628439807038 2942.5115869613956
1289.2968001213521 2881.2549320103967
1290.1305518173194 2791.894586584331
1290.9640991256183 2963.961576734402
1291.7974421032523 2854.765502480084
1292.630580807183 2813.682014904557
1293.463515294361 2933.9541185538174
1294.29624562171 2993.8203717747906
1295.12877184613 2835.802823105275
1295.961094024493 2747.0903673768125
1296.79321221365 2891.4216438089497
1297.6251264704333 2987.55276016699
1298.4568368516466 3069.499668109665
1299.2883434140658 2993.558513091646
1300.1196462144526 2860.950198753232
1300.9507453095375 3009.0726343304627
1301.7816407560313 3061.602860275489
1302.6123326106172 3007.3236166250513
1303.4428209299622 2919.0987472987804
1304.2731057707024 3178.9997598470577
1305.1031871894502 2953.090475304651
1305.933065242798 3117.114357908675
1306.7627399873181 3001.0710357059356
1307.5922114795467 3276.3697058938824
1308.4214797760123 3083.0498067346984
1309.2505449332057 3030.0933355750253
1310.0794070076026 3037.142652207306
1310.9080660556538 3148.500969234731
1311.736522133786 3142.925476765714
1312.5647752983987 3048.2973165152785
1313.3928256058734 2935.3591776383246
1314.2206731125661 3081.4433615309013
1315.048317874809 3090.7105194064943
1315.8757599489109 3047.0747834886206
1316.7029993911547 3043.233605973663
1317.5300362578055 3206.502181696568
1318.356870605101 2992.173220504238
1319.183502489257 3039.95887367023
1320.0099319664623 3095.973063194848
1320.836159092889 3076.2093834756033
1321.66218392468 3077.2811346314556
1322.4880065179532 2954.1788297338494
1323.3136269288134 3015.7426200061386
1324.1390452133292 3205.549255944527
1324.9642614275563 3245.698994238172
1325.7892756275214 3076.6681178599238
1326.6140878692295 2932.7601018533906
1327.4386982086617 3277.150422201642
1328.2631067017755 3108.453392880209
1329.0873134045069 3141.652087774478
1329.911318372764 3068.890140992733
1330.735121662441 3018.3766533913936
1331.558723329399 3074.1557855261362
1332.3821234294774 3041.7651079032607
1333.2053220185007 3072.833396002645
1334.0283191522612 2963.3532612549093
1334.851114886529 3009.2721045795183
1335.6737092770582 2990.574551456736
1336.4961023795695 3008.4029476063793
1337.3182942497697 2925.5493400699916
1338.1402849433325 2955.8779025097147
1338.962074515921 2885.9156120845155
1339.7836630231632 2786.025302333154
1340.6050505206676 3134.2284525948535
1341.426237064028 3022.583567791007
1342.2472227088037 2919.557756525292
1343.0680075105338 2891.33238193173
1343.888591524741 2872.8860385945213
1344.7089748069138 2978.148532497654
1345.5291574125276 2835.8854810771163
1346.3491393970307 2780.51412512492
1347.168920815846 2984.0098552684153
1347.9885017243778 2895.393287673968
1348.8078821780036 2853.386915266235
1349.6270622320844 2865.3690335700585
1350.4460419419447 2811.7491421796085
1351.2648213629054 2870.0136841740054
1352.0834005502438 2757.9055003106123
1352.90177955923 2830.8406992742716
1353.7199584451064 2913.323298519934
1354.5379372630887 2876.364967151586
1355.355716068374 2780.356461459991
1356.1732949161305 2751.787551693288
1356.9906738615155 2768.3013315084704
1357.8078529596478 2820.58428272907
1358.6248322656375 2880.927389313464
1359.441611834567 2687.8059487507608
1360.2581917214866 2939.09896068947
1361.0745719814367 2753.1046454792267
1361.890752669433 2643.639736131446
1362.7067338404577 2728.9979948401033
1363.5225155494845 2845.064126611045
1364.3380978514506 2851.914870824316
1365.1534808012839 2659.8958502865794
1365.9686644538815 2551.072999557957
1366.783648864117 2780.9494548814446
1367.5984340868417 2828.792867592764
1368.413020176893 2758.863276487293
1369.2274071890715 2570.8754596213425
1370.0415951781652 2770.83645109089
1370.8555841989346 2751.938727882681
1371.6693743061223 2629.7136430085297
1372.48296555444 2526.9422411578666
1373.2963579985844 2763.2130520158103
1374.1095516932255 2720.5276304676145
1374.9225466930166 2567.9688320932228
1375.7353430525782 2760.37931148886
1376.5479408265164 2706.992759740807
1377.36034006941 2689.8840839956656
1378.1725408358216 2724.608675253171
1378.9845431802805 2594.1719713946995
1379.796347157304 2879.2656114920715
1380.6079528213813 2788.376490160202
1381.4193602269788 2624.528002460835
1382.230569428546 2575.7046615461
1383.0415804805016 2629.784285461545
1383.852393437246 2690.8914956695457
1384.6630083531563 2746.168590563263
1385.4734252825892 2629.582635808142
1386.2836442798798 2613.349814302515
1387.0936653993322 2627.7078015878133
1387.9034886952395 2637.189484609355
1388.713114221864 2708.5329449840992
1389.5225420334482 2634.4673662209743
1390.331772184214 2630.8751672516823
1391.1408047283585 2468.191663764402
1391.9496397200564 2633.805082258488
1392.758277213461 2696.998720821726
1393.5667172627054 2754.261565614264
1394.3749599218918 2680.2835344609675
1395.1830052451114 2484.6389046348822
1395.9908532864265 2589.850743880018
1396.7985040998774 2694.0297786645106
1397.6059577394808 2560.8513700425237
1398.4132142592352 2604.514653349205
1399.2202737131156 2637.984700024018
1400.027136155073 2639.1100283134897
1400.8338016390353 2536.397661796108
1401.6402702189134 2614.3070802761167
1402.446541948586 2647.0278967833337
1403.2526168819204 2594.855362600536
1404.058495072757 2512.420468165707
1404.8641765749107 2551.8317451093903
1405.6696614421799 2617.5452585677485
1406.4749497283356 2823.9938002283534
1407.280041487129 2527.845072690782
1408.084936772295 2407.952381652117
1408.8896356375335 2693.2967136251177
1409.6941381365323 2682.6289358503977
1410.498444322955 2518.6340195429234
1411.3025542504402 2582.3623354229044
1412.106467972606 2619.3914308041917
1412.9101855430508 2621.964442651596
1413.7137070153458 2442.102249251444
1414.5170324430437 2569.4523404995653
1415.320161879672 2739.9782491972
1416.1230953787435 2843.5000410986713
1416.925832993742 2552.5760152186913
1417.7283747781275 2472.53916353665
1418.5307207853439 2539.8759914078087
1419.3328710688093 2681.9838393900627
1420.134825681922 2376.435318631071
1420.9365846780584 2595.8203326141847
1421.7381481105713 2739.7547212975724
1422.539516032788 2567.6282361729636
1423.3406884980232 2493.1046425997683
1424.1416655595604 2582.670380361863
1424.942447270665 2524.27336423402
1425.7430336845828 2672.093167858791
1426.5434248545298 2530.4037766378938
1427.3436208337116 2599.074644606645
1428.143621675301 2643.22484416285
1428.9434274324558 2752.415422331298
1429.7430381583108 2431.767334484351
1430.5424539059713 2585.3245646757637
1431.3416747285337 2825.212068412466
1432.1407006790632 2664.00564211307
1432.9395318106053 2713.6196294852098
1433.7381681761835 2567.702866445325
1434.5366098288014 2489.1269854750685
1435.3348568214424 2615.9233743604173
1436.1329092070573 2626.408757266266
1436.9307670385879 2638.556873201611
1437.7284303689503 2780.441860609216
1438.5258992510335 2772.923843586813
1439.3231737377118 2716.6638116696695
1440.1202538818306 2706.4159178600407
1440.9171397362225 2563.7212961337545
1441.7138313536925 2624.66864888616
1442.5103287870243 2535.296150248973
1443.3066320889775 2529.627258730855
1444.1027413122956 2730.755671219841
1444.8986565096966 2593.0265399511536
1445.694377733882 2598.6212674642857
1446.4899050375207 2422.386444100407
1447.2852384732687 2653.6205143217603
1448.0803780937622 2546.318873376741
1448.8753239516063 2504.8083244367217
1449.6700760993954 2367.0617134756653
1450.464634589689 2509.955891927689
1451.2589994750397 2693.340875140331
1452.0531708079689 2387.462052484478
1452.8471486409799 2411.1280130916552
1453.6409330265524 2573.948685446971
1454.4345240171442 2374.6973481207256
1455.2279216651987 2415.1081775212165
1456.0211260231263 2439.966350015994
1456.8141371433194 2699.97461176336
1457.6069550781594 2401.221010833149
1458.3995798799897 2289.940781761817
1459.1920116011424 2399.6161037041506
1459.98425029393 2319.544695252581
1460.7762960106338 2394.5052418474816
1461.5681488035225 2353.211674611291
1462.3598087248392 2436.3573274801124
1463.1512758268036 2606.937850271243
1463.942550161617 2371.482756029629
1464.7336317814625 2406.892879891083
1465.524520738496 2442.3509652084235
1466.3152170848552 2359.8928853660354
1467.1057208726506 2328.1555994246437
1467.8960321539817 2281.7184277619394
1468.6861509809169 2157.904807994456
1469.4760774055085 2321.3012450009346
1470.265811479785 2296.134121141939
1471.055353255755 2195.2367990951684
1471.844702785409 2225.5174733937574
1472.6338601207044 2268.7270740284466
1473.4228253135934 2348.4272209130977
1474.2115984159936 2231.0631249784556
1475.0001794798063 2057.9100886182882
1475.7885685569145 2273.8493908714686
1476.576765699172 2263.1174384631495
1477.3647709584238 2108.765831607535
1478.1525843864802 2361.8489807893584
1478.9402060351367 2237.292967302751
1479.7276359561693 2275.262414705578
1480.514874201328 2165.587905339327
1481.3019208223468 2141.9076118787516
1482.0887758709323 2017.1126253797952
1482.8754393987747 2308.918163661402
1483.6619114575406 2089.455019464978
1484.4481920988783 2229.5865646739862
1485.2342813744108 2194.6879727626465
1486.0201793357446 2319.1699748236592
1486.8058860344572 2155.794035993268
1487.591401522117 2186.2262144489446
1488.3767258502594 2155.0175314220946
1489.1618590704056 2050.740389749392
1489.9468012340494 1912.4620006360346
1490.7315523926754 2274.1327790295654
1491.5161125977356 2203.019762165598
1492.3004819006637 2199.0585473172923
1493.084660352877 1982.9242848845047
1493.8686480057622 2213.047954992766
1494.6524449106964 2302.630827566001
1495.4360511190262 2249.0458818976545
1496.219466682087 2134.4822023490415
1497.0026916511779 2255.227045984735
1497.7857260775945 2164.444708949194
1498.5685700125996 2271.578500394349
1499.3512235074395 2124.4342735463806
1500.133686613337 2057.3953679346937
1500.9159593814966 2083.2111725587156
1501.698041863101 2366.9921399535547
1502.4799341093094 2025.9404645952095
1503.2616361712662 2027.4240396988116
1504.043148100087 2124.605194259457
1504.8244699468742 2178.159728485007
1505.6056017626997 2065.76846317378
1506.3865435986281 2023.191253084784
1507.1672955056893 2092.8323259057033
1507.9478575348967 2000.2075552933734
1508.7282297372512 2284.639583547293
1509.5084121637192 2139.297781385774
1510.2884048652577 2173.4575603936773
1511.0682078927948 1980.1116922373349
1511.8478212972423 2061.7034947612437
1512.6272451294917 2070.313138797008
1513.4064794404076 2143.103802473284
1514.1855242808433 2196.9461289740657
1514.9643797016215 2051.904948065986
1515.743045753552 2194.4093379357173
1516.5215224874191 2096.119513111976
1517.2998099539836 1997.8427308679431
1518.077908203999 2088.4217249420044
1518.8558172881785 2099.4276273443948
1519.633537257234 2153.894353540848
1520.4110681618404 2129.2242435430626
1521.1884100526604 2147.358309915247
1521.9655629803365 2032.9241648771554
1522.7425269954856 2273.7177215191027
1523.5193021487103 2370.996402551653
1524.2958884905856 2015.6239384773758
1525.0722860716687 2112.1546244492483
1525.848494942502 2058.4688984341924
1526.624515153595 2100.4522446888323
1527.4003467554485 2213.1328573530454
1528.175989798534 2201.75526162494
1528.9514443333064 2120.200990105183
1529.726710410203 2210.902561608985
1530.5017880796331 2038.6326199526502
1531.276677391992 2070.156773446418
1532.0513783976457 2207.1688431947123
1532.825891146953 2162.2020812783912
1533.6002156902414 2141.842065259506
1534.3743520778207 2059.022750138034
1535.1483003599806 2117.713323423679
1535.9220605869923 2053.4077977455768
1536.6956328091019 2159.9817653447562
1537.4690170765407 2089.6415339719297
1538.242213439511 2223.304937825062
1539.015221948208 2169.886096402005
1539.78804265279 2090.35035587019
1540.560675603405 2013.165104414662
1541.3331208501804 2266.712834866409
1542.1053784432224 2244.754479762084
1542.8774484326168 2151.0041948175067
1543.649330868422 2128.727600110239
1544.4210258006842 2140.0775225155558
1545.1925332794308 2237.6323944614337
1545.9638533546604 2086.848150656747
1546.7349860763552 2103.520503167151
1547.5059314944829 2376.283039207533
1548.27668965898 2105.4529039543067
1549.0472606197673 2229.094657457164
1549.817644426752 2098.233804375338
1550.5878411298072 2222.094417692077
1551.3578507787988 2136.791259739031
1552.1276734235635 2055.7107727211396
1552.8973091139233 2090.9916855394777
1553.6667578996767 2295.2928445221796
1554.436019830604 2136.5109285530198
1555.20509495646 2115.704628452376
1555.9739833269869 2011.9608062562718
1556.7426849919011 1973.0781497432083
1557.511200000903 2239.7585045546175
1558.2795284036674 2229.8285612768846
1559.0476702498509 2110.769053345042
1559.8156255890954 2326.4480818633806
1560.5833944710157 2437.122426913662
1561.3509769452048 2157.504038177849
1562.1183730612447 2217.081669361555
1562.8855828686865 2089.2761094153
1563.6526064170703 2336.4865441528627
1564.4194437559127 2382.890931232946
1565.1860949347047 2131.4433939393016
1565.9525600029283 2317.714384413847
1566.7188390100328 2433.9759850225155
1567.4849320054564 2183.5487109044298
1568.250839038612 2140.7474783931148
1569.0165601588997 2108.6339078463343
1569.7820954156887 2245.7782057969666
1570.5474448583373 2155.6275369737446
1571.31260853618 2171.9705458981134
1572.0775864985299 1939.3750975874682
1572.8423787946813 2265.868237567816
1573.6069854739108 2111.082949048104
1574.371406585471 2260.541236713238
1575.1356421785986 2310.455588141358
1575.899692302506 2146.226783095318
1576.6635570063845 2261.2957536004496
1577.4272363394157 2163.12051708888
1578.190730350747 2108.919243272411
1578.9540390895163 2180.582928415277
1579.7171626048384 1964.9596837287481
1580.480100945806 2091.070760473496
1581.2428541614918 2100.5739309455485
1582.0054223009538 2104.5921808629673
1582.767805413223 2150.7870034915245
1583.5300035473156 2144.5396656363
1584.292016752228 2289.144688004767
1585.0538450769309 2270.899199001677
1585.8154885703807 2049.6483962617076
1586.5769472815136 2050.8479512716626
1587.3382212592405 2163.507975513689
1588.099310552463 2284.2237210365047
1588.8602152100484 2136.7247828264262
1589.6209352808564 2223.484934803298
1590.3814708137234 2075.1310186389665
1591.14182185746 2358.5857190882502
1591.9019884608679 2045.6105750354977
1592.6619706727215 1891.5441506614338
1593.4217685417734 2195.1428455698233
1594.1813821167616 2195.8518208830424
1594.9408114464022 1961.0497776610493
1595.7000565793933 2145.077247466621
1596.459117564409 2188.0002193437836
1597.2179944501113 1987.1437219033007
1597.9766872851324 1965.3018260721328
1598.735196118092 2153.288333987599
1599.4935209975883 2157.5605497170573
1600.2516619721973 2171.9037481790647
1601.0096190904787 2029.1544108955768
1601.7673924009723 2046.21064587834
1602.524981952196 2016.1053379176033
1603.2823877926476 2050.394915231057
1604.0396099708087 2041.368084194323
1604.7966485351371 1880.343599576535
1605.5535035340745 1998.2810988649057
1606.3101750160404 2135.637325988679
1607.0666630294363 1958.7680937724883
1607.822967622642 2025.3770965609874
1608.5790888440224 2061.932932689651
1609.3350267419137 2085.7349628279267
1610.0907813646445 2027.8432836509612
1610.8463527605145 2027.3190772161427
1611.601740977805 2213.4412263825852
1612.356946064785 2110.373691413427
1613.1119680696902 1778.1735227857819
1613.8668070407512 2013.2487015082247
1614.6214630261748 1879.8990244379863
1615.375936074137 2141.3560451469866
1616.1302262328118 1913.3757909597011
1616.8843335503425 2078.996889114861
1617.638258074854 1936.625558335309
1618.391999854457 2007.5820819686462
1619.1455589372363 2250.4729438077875
1619.8989353712623 2140.351496972789
1620.65212920458 1847.610750121517
1621.4051404852235 1957.5047434752535
1622.1579692611976 2120.2869707513332
1622.9106155804966 1922.7451888162218
1623.663079491087 1992.5895863681483
1624.4153610409248 2115.3020717072527
1625.1674602779385 1921.0340046435929
1625.9193772500403 1972.3143093894882
1626.6711120051277 2112.8140635446784
1627.4226645910676 1972.2992415457077
1628.174035055721 1865.2125805842593
1628.9252234469168 2054.061991850249
1629.676229812474 1971.0190730252987
1630.4270542001905 2049.3927799821336
1631.1776966578382 2033.545305101831
1631.9281572331747 1991.987009538018
1632.678435973945 2164.6672416813153
1633.4285329278573 2041.0512616510987
1634.1784481426203 1809.0467052560793
1634.9281816659113 1913.9789001621916
1635.677733545388 2147.2487892808276
1636.4271038286934 2019.1901401915584
1637.176292563452 2097.223707252024
1637.9252997972635 1977.270347047845
1638.674125577716 2126.7632761554332
1639.4227699523672 2208.205491059713
1640.171232968767 1873.191131538013
1640.9195146744423 1925.8769147059218
1641.6676151168977 2111.1930672030467
1642.4155343436178 2184.013263680055
1643.1632724020765 2067.5575321850615
1643.9108293397167 2131.092659891148
1644.658205203974 1949.874446264354
1645.4054000422566 1980.9099628715096
1646.1524139019566 2011.8109295050428
1646.8992468304423 1897.3833900849645
1647.6458988750728 2087.9194521878553
1648.3923700831765 2147.4506553137126
1649.1386605020743 2083.4971169676382
1649.8847701790564 2265.712508893784
1650.6306991614038 2089.392695379732
1651.3764474963682 2120.6667303225504
1652.1220152311944 1892.3993750259986
1652.867402413096 2127.684794608743
1653.6126090892776 2069.254514563202
1654.3576353069184 2219.1466790315635
1655.1024811131829 2069.7266338245017
1655.8471465552066 1923.5658716136356
1656.5916316801213 2190.333597491851
1657.3359365350298 2065.1464797336644
1658.0800611670165 2034.0911165445868
1658.824005623148 2024.0775943357155
1659.5677699504722 1928.7293691395957
1660.3113541960192 2069.4392764088034
1661.054758406799 2074.3507700315636
1661.7979826297997 1882.4070384436068
1662.5410269119966 1876.408025421512
1663.283891300338 1947.1128330701376
1664.0265758417645 1976.2586803138838
1664.7690805831826 2055.507434389735
1665.5114055714948 2054.900903858908
1666.2535508535748 2224.032827258249
1666.9955164762814 1790.3799911462818
1667.7373024864555 1994.013827517625
1668.478908930916 2040.269599374554
1669.220335856462 1920.265673133122
1669.9615833098778 1900.9136153062543
1670.7026513379296 1875.0919741490973
1671.44353998736 1998.6753365565116
1672.1842493048916 1911.030661434805
1672.9247793372379 1925.2864185856374
1673.6651301310812 1987.5214135245628
1674.4053017330934 1892.2913314275836
1675.1452941899242 1979.2150082187195
1675.885107548207 1640.0799173588603
1676.6247418545518 1691.1828624635625
1677.3641971555535 1757.3852518333292
1678.1034734977893 1983.5832394574732
1678.8425709278108 1876.1580640029017
1679.5814894921605 1925.7883227007533
1680.320229237359 1812.8488886931493
1681.0587902098978 2067.37415735819
1681.7971724562685 1891.568832227321
1682.5353760229264 1740.7155538315142
1683.2734009563173 1867.2352289651328
1684.0112473028657 1588.4847462619373
1684.7489151089794 1865.2507916271854
1685.4864044210462 1906.2212941558014
1686.2237152854377 1627.1104459149374
1686.960847748498 1933.6367797793744
1687.6978018565642 1678.9250792714417
1688.434577655944 1728.9357801553106
1689.1711751929379 1607.2030340244823
1689.9075945138156 1831.5585428142429
1690.6438356648396 1804.9054186177625
1691.3798986922448 1427.6075871313585
1692.1157836422499 1712.7033858176503
1692.851490561059 1709.674868284736
1693.587019494853 1788.1522943941795
1694.3223704897991 1530.3276212488604
1695.0575435920364 1564.0350842154157
1695.792538847696 1851.8187605045173
1696.527356302886 1693.449811352223
1697.2619960036936 1557.5673930823018
1697.9964579961907 1543.7001785585467
1698.730742326432 1365.961834941844
1699.4648490404488 1553.3596730720205
1700.1987781842563 1648.7040426237404
1700.9325298038548 1662.110304428677
1701.6661039452174 1789.960926906638
1702.3995006543082 1649.4667261476775
1703.1327199770658 1710.0438752431844
1703.865761959416 1555.4960128508153
1704.598626647261 1714.057317151611
1705.3313140864866 1533.6882085884806
1706.0638243229587 1593.9358988762935
1706.7961574025303 1711.0844052913767
1707.528313371029 1534.7440864263203
1708.260292274268 1512.3882589561856
1708.9920941580403 1520.2017087778354
1709.7237190681226 1641.0703056729576
1710.4551670502697 1572.535665709081
1711.18643815022 1436.4582566915901
1711.9175324136959 1784.736124661776
1712.6484498863938 1575.2432664443097
1713.379190614005 1365.5793272116357
1714.109754642188 1636.0043474360568
1714.8401420165883 1553.346185446724
1715.570352782839 1576.6101743875242
1716.3003869865497 1599.9793215229581
1717.0302446733076 1456.1940678745893
1717.7599258886876 1592.4565155636315
1718.4894306782444 1795.3421377816735
1719.2187590875183 1425.705838926055
1719.9479111620203 1731.1494841858505
1720.6768869472544 1480.499420159989
1721.4056864887025 1691.423897861223
1722.1343098318284 1708.6253343848362
1722.8627570220742 1572.0995733213815
1723.591028104871 1434.5699870113208
1724.3191231256242 1389.9288080232775
1725.0470421297232 1535.37184418036
1725.7747851625427 1622.980537122174
1726.5023522694337 1576.5542772023716
1727.2297434957363 1537.4940448414163
1727.9569588867635 1330.9955419365026
1728.6839984878152 1333.9204804799406
1729.4108623441734 1336.9084526303814
1730.1375505011038 1624.6540046460125
1730.8640630038426 1483.108421733484
1731.5903998976264 1437.5798325994415
1732.316561227657 1595.7908665327038
1733.0425470391274 1411.1720394103802
1733.7683573772065 1540.3435739546806
1734.4939922870508 1491.3011247036768
1735.2194518137949 1619.3230940813057
1735.9447360025606 1522.15310728918
1736.669844898439 1468.1085696844943
1737.3947785465189 1402.3951062689644
1738.1195369918605 1389.8943743469256
1738.8441202795093 1487.3203305119464
1739.5685284544943 1583.2497892418096
1740.292761561821 1523.0750664265954
1741.0168196464838 1533.9749328731918
1741.7407027534518 1534.127706467527
1742.464410927687 1502.8508885191438
1743.187944214118 1403.2908030757676
1743.9113026576688 1509.4437871284777
1744.634486303241 1505.9700369974253
1745.3574951957125 1539.5086991317644
1746.0803293799509 1580.903333378446
1746.8029889008048 1542.3350968099821
1747.5254738031017 1570.0721514418397
1748.2477841316504 1423.4295304868322
1748.969919931249 1426.406663508613
1749.6918812466665 1487.3961879797514
1750.4136681226646 1496.637855982577
1751.1352806039777 1564.8231665976969
1751.856718735331 1277.064164450011
1752.5779825614281 1293.2152449586602
1753.2990721269507 1570.724356453082
1754.0199874765676 1388.0099152688167
1754.7407286549314 1307.734646435601
1755.4612957066693 1413.681362300859
1756.1816886763954 1372.8965018327679
1756.9019076087097 1464.7597999384782
1757.6219525481865 1520.6164891367
1758.3418235393856 1430.7834533148598
1759.061520626854 1452.7062640506083
1759.7810438551096 1538.019822294185
1760.5003932686614 1339.605754313995
1761.2195689119999 1467.259315767799
1761.938570829594 1570.7626250215276
1762.657399065898 1422.4647611418175
1763.376053665348 1328.2933131688178
1764.0945346723602 1315.0706412702295
1764.812842131334 1467.9206995886993
1765.5309760866512 1426.641210956634
1766.2489365826787 1297.8982005542284
1766.9667236637597 1389.8479964436178
1767.684337374223 1187.5157917922102
1768.401777758383 1263.83844446274
1769.1190448605284 1391.0124958761255
1769.836138724937 1342.6502747145732
1770.5530593958665 1488.5073408278383
1771.2698069175603 1535.4524502115642
1771.9863813342326 1500.6067805161958
1772.702782690094 1321.5920527784897
1773.4190110293293 1562.665678689284
1774.1350663961111 1482.787311624216
1774.8509488345844 1461.6810427340429
1775.5666583888924 1446.0190011221434
1776.2821951031437 1453.432101239706
1776.9975590214362 1404.051540008014
1777.7127501878585 1543.4574547537438
1778.4277686464684 1458.1086647961592
1779.1426144413108 1499.3336071122656
1779.8572876164162 1602.480558475929
1780.571788215797 1302.1001905663325
1781.2861162834415 1437.5593396763284
1782.0002718633277 1432.5553065015442
1782.7142549994132 1487.9234227773622
1783.4280657356376 1434.5423216500092
1784.141704115922 1393.8807522922239
1784.855170184177 1382.9217566946625
1785.5684639842839 1462.3448067720892
1786.2815855601148 1431.4599544268408
1786.9945349555237 1400.5205752296679
1787.707312214343 1351.3678974938935
1788.4199173803918 1363.0077623020288
1789.132350497468 1374.7862216471183
1789.8446116093583 1400.5131618921992
1790.556700759822 1307.727284169342
1791.2686179926077 1439.371312261843
1791.9803633514493 1357.0929097197582
1792.6919368800554 1254.2251241702363
1793.4033386221236 1430.3191040406118
1794.1145686213295 1465.3682059840883
1794.8256269213307 1383.4680880479375
1795.536513565774 1385.7387513718531
1796.247228598284 1192.8774569365155
1796.9577720624693 1395.1962774178794
1797.6681440019165 1381.839012187525
1798.3783444602013 1406.2427794773928
1799.0883734808776 1452.861060448076
1799.7982311074884 1340.4679734914184
1800.5079173835475 1446.3199880416162
1801.2174323525633 1327.7833513006467
1801.9267760580187 1358.4720487352192
1802.635948543386 1398.2291681821107
1803.3449498521113 1252.7573142156707
1804.0537800276325 1409.921877428038
1804.7624391133668 1449.7055556216987
1805.47092715271 1138.2789635622132
1806.1792441890484 1212.8035787166077
1806.8873902657433 1382.032067213241
1807.5953654261448 1383.0055334856506
1808.3031697135812 1406.430950536725
1809.0108031713662 1271.9275162480749
1809.71826584279 1337.7026239061274
1810.425557771141 1340.2482465828755
1811.1326789996747 1540.1430853890643
1811.839629571632 1329.2953614510539
1812.5464095302468 1284.9277177125778
1813.2530189187182 1384.7852218165183
1813.959457780249 1311.0954859324454
1814.6657261580076 1456.0817723256082
1815.371824095153 1346.4339973316596
1816.0777516348262 1189.9239257710474
1816.78350882015 1330.5213217163896
1817.4890956942272 1160.1366159152549
1818.1945123001533 1256.1710876352909
1818.8997586809928 1291.2050213880916
1819.6048348798067 1288.5783686784628
1820.3097409396287 1295.1461478836811
1821.0144769034796 1296.2223879375174
1821.7190428143622 1297.2318340251225
1822.423438715261 1434.5786913038164
1823.1276646491478 1318.3427102708488
1823.8317206589727 1387.6056982384887
1824.5356067876692 1382.9161248449404
1825.2393230781581 1263.0565637180591
1825.942869573335 1162.4591877748057
1826.646246316086 1170.275949678232
1827.3494533492758 1315.1786279415564
1828.052490715756 1428.2079377350751
1828.7553584583547 1448.7786110791933
1829.458056619891 1315.3875790780721
1830.1605852431585 1362.9685301399736
1830.8629443709433 1227.8831555522759
1831.5651340460063 1247.7816086614475
1832.2671543110919 1098.3313119865977
1832.9690052089318 1442.1964135608132
1833.6706867822395 1119.0115532183786
1834.3721990737104 1410.3297510671455
1835.0735421260233 1282.1947201766156
1835.774715981841 1268.2683359045338
1836.4757206838058 1425.717787441479
1837.1765562745459 1221.6984185096485
1837.8772227966747 1252.8052167945912
1838.5777202927839 1304.83557007762
1839.2780488054523 1183.2454764490635
1839.9782083772352 1287.192039339834
1840.6781990506806 1468.0628165144465
1841.378020868313 1174.8745429917324
1842.0776738726418 1345.524157531257
1842.777158106157 1263.3510811104345
1843.4764736113375 1199.3901501631292
1844.1756204306403 1273.211551506004
1844.8745986065078 1220.982942838299
1845.5734081813607 1182.9344590414498
1846.2720491976124 1219.7971129343355
1846.970521697649 1171.498583506071
1847.6688257238511 1504.3374545214679
1848.3669613185684 1355.3285507527612
1849.0649285241452 1153.0466820370643
1849.7627273829057 1347.871423655116
1850.460357937156 1255.5860425375408
1851.1578202291857 1037.8635273285688
1851.8551143012664 1338.0280208266038
1852.5522401956569 1256.074867921972
1853.2491979545957 1467.1380262788011
1853.9459876203055 1190.2205026145891
1854.6426092349902 1175.2434456045933
1855.3390628408451 1269.0409483757044
1856.0353484800362 1390.6872285636287
1856.7314661947203 1351.144489091837
1857.4274160270397 1065.3276933903192
1858.123198019115 1279.7628579077123
1858.8188122130487 1088.652552851752
1859.5142586509319 1204.7005649600849
1860.209537374838 1206.50615820115
1860.9046484268183 1208.3006672003373
1861.599591848917 1329.012831429438
1862.294367683151 1162.3340794151995
1862.988975971528 1242.2932310801662
1863.6834167560355 1298.8627019957748
1864.3776900786452 1480.8716184221348
1865.0717959813119 1258.0117779579018
1865.7657345059724 1197.0161985417483
1866.4595056945564 1320.933798310053
1867.1531095889586 1333.3167784963314
1867.846546231076 1351.4471049208435
1868.5398156627743 1369.649022791167
1869.2329179259123 1215.006742111524
1869.9258530623283 1355.3624137837169
1870.618621113843 1199.5381376979099
1871.3112221222636 1111.8730526125134
1872.0036561293764 1191.787185974419
1872.695923176956 1240.1542936648361
1873.3880233067594 1395.01544006529
1874.0799565605212 1099.4124798569494
1874.7717229799673 1236.8063761722397
1875.4633226068036 1324.1837655871227
1876.1547554827175 1357.019779659174
1876.8460216493859 1198.2873382279802
1877.5371211484617 1232.8485023873
1878.2280540215852 1347.946977335461
1878.9188203103804 1127.7115225955838
1879.6094200564548 1262.3672747972046
1880.299853301396 1196.8447031003723
1880.9901200867826 1253.2055942105112
1881.6802204541673 1309.6372316549646
1882.3701544450942 1290.1579514535713
1883.059922101087 1081.2279876027421
1883.7495234636517 1134.4853614252786
1884.4389585742792 1187.7975076813927
1885.1282274744517 1111.964949463935
1885.8173302056166 1180.469488733928
1886.506266809225 1249.0672905872982
1887.195037326701 1053.4923254197943
1887.8836417994517 1224.8786763511575
1888.5720802688702 1389.3840839996437
1889.260352776333 1348.3660626861933
1889.9484593632042 1310.8997044366527
1890.63640007082 1236.6604521542095
1891.3241749405151 1208.0662829267642
1892.0117840135954 1339.2225189823741
1892.6992273313572 1168.747405559501
1893.3865049350788 1072.608611625022
1894.0736168660223 1429.8193874916437
1894.7605631654333 1344.4710815099183
1895.4473438745408 1411.6858217698634
1896.133959034556 1478.9207040325439
1896.820408686679 1340.8804695199178
1897.506692872088 1328.131802284733
1898.192811631945 1223.192799763065
1898.8787650073991 1191.3662957923402
1899.5645530395832 1349.4900678018735
1900.2501757696118 1337.7261203656296
1900.9356332385796 1053.3927511554891
1901.620925487574 1150.3533466132121
1902.3060525576602 1247.5715777484286
1902.9910144898859 1302.3720931856633
1903.6758113252872 1151.8833931588024
1904.3604431048789 1305.1203493705634
1905.0449098696663 1268.2888480373272
1905.7292116606295 1219.526079859747
1906.4133485187394 1261.9686076853322
1907.0973204849488 1034.7979067023166
1907.7811276001976 1062.444185478675
1908.4647699053967 1187.219683552853
1909.1482474414588 1122.8353132297154
1909.8315602492694 1058.2710814269776
1910.5147083696957 1344.0159871194915
1911.1976918436012 1176.8777413413766
1911.880510711815 1141.9178644502006
1912.5631650151681 1279.9841075088036
1913.2456547944657 1103.0455328711557
1913.927980090495 1081.6921221905493
1914.6101409440362 1154.4413425041582
1915.2921373958416 1274.40521965646
1915.9739694866603 1242.9953220432492
1916.655637257214 1352.1431490231555
1917.3371407482136 1218.9575048289325
1918.0184800003572 1408.837872456957
1918.6996550543154 1343.1196363282
1919.3806659507554 1234.5812113250445
1920.0615127303208 1170.3882546910054
1920.7421954336423 1299.234050934412
1921.4227141013343 1327.8179133840824
1922.103068773993 1227.1784294688496
1922.783259492202 1256.6787965115404
1923.4632862965227 1195.0416859816114
1924.1431492275078 1186.4753044651748
1924.8228483256917 945.8974327937519
1925.5023836315922 1115.3954598274986
1926.1817551857057 1263.7244626599836
1926.8609630285227 1112.9514364727593
1927.5400072005123 1339.682445016251
1928.218887742125 1157.4848334705307
1928.8976046938005 1121.1393453672272
1929.5761580959588 1145.7434032124136
1930.2545479890086 1170.4770550893347
1930.9327744133352 947.2263886444091
1931.6108374093164 1237.196757130982
1932.2887370173066 1335.68816811482
1932.9664732776473 1288.200618983771
1933.6440462306673 1240.5571281188963
1934.3214559166754 1158.732779186794
1934.9987023759659 1391.7739412590504
1935.675785648813 1211.3671076055984
1936.3527057754836 882.6705326202549
1937.029462796223 958.1077535466089
1937.70605675126 1033.7282927605925
1938.3824876808085 1182.30865149799
1939.058755625072 1164.5950715473643
1939.7348606242267 1115.398224115224
1940.4108027184448 1230.2674342664354
1941.0865819478713 1314.821257626293
1941.7621983526478 1198.6594898293538
1942.4376519728921 1060.1908241687079
1943.1129428487038 1142.8835981180255
1943.7880710201734 1159.5012661662536
1944.4630365273733 1247.230862176605
1945.1378394103576 1064.8007442751168
1945.8124797091714 1001.3607196812245
1946.4869574638324 937.7597221968884
1947.161272714353 1065.995122458236
1947.8354255007234 1291.0082805649706
1948.5094158629272 1269.9471925071307
1949.1832438409183 1248.8377611567225
1949.8569094746435 1301.2743123753996
1950.530412804037 1336.3569346412955
1951.2037538690092 1358.8883757592725
1951.8769327094578 1119.315178047789
1952.5499493652678 1042.5374719895474
1953.222803876306 1110.9704630584274
1953.895496282421 1179.4604684618212
1954.5680266234522 1188.095074691835
1955.2403949392155 1337.025889975439
1955.9126012695142 1117.4940231320816
1956.5846456541403 1108.4448280555146
1957.2565281328643 1054.4823276739455
1957.9282487454457 1293.6089596980878
1958.5998075316202 1162.5394562826593
1959.27120453112 1129.1778500465948
1959.9424397836501 1190.7940202428688
1960.613513328908 1325.0534073389917
1961.2844252065697 1360.4478288857097
1961.9551754563017 974.7269509779026
1962.6257641177453 1055.0132663179024
1963.29619123054 1018.3789147544818
1963.966456834296 1130.1786586277053
1964.6365609686181 1037.3466137153882
1965.306503673086 1171.8619352446244
1965.976284987275 1148.8400028161318
1966.645904950734 1178.0110327819507
1967.315363603002 1171.169796570495
1967.9846609836077 1164.2677453378683
1968.6537971320486 1055.1392337827267
1969.3227720878222 1112.7613503099187
1969.9915858904042 1190.1549962321026
1970.660238579252 1077.914193634922
1971.3287301938108 1053.6301659875196
1971.997060773514 1120.4081001972684
1972.665230357772 994.4341798211159
1973.3332389859843 983.2763496292658
1974.0010866975335 1027.6897285075559
1974.6687735317864 1175.390752008734
1975.3362995280932 1195.276169601209
1976.003664725793 1157.51252908305
1976.6708691642052 912.7777768014755
1977.3379128826364 1100.4664607628722
1978.004795920373 1409.795803696135
1978.6715183166925 1379.7193955643384
1979.3380801108524 1239.4580722495175
1980.0044813420973 1099.0679195435237
1980.6707220496555 1006.9700264210351
1981.3368022727373 1142.543287569845
1982.0027220505417 1198.4537886482578
1982.66848142225 1121.9880374682812
1983.3340804270283 1045.4520992472353
1983.999519104027 1159.7739739204285
1984.6647974923835 1114.7895609811899
1985.329915631215 1207.3153524846268
1985.99487355963 1132.0763728134957
1986.6596713167146 1082.81056723767
1987.3243089415428 1033.4086117559225
1987.9887864731754 1291.377979895384
1988.6531039506553 999.8621245030436
1989.3172614130071 1045.655822918025
1989.9812588992481 1091.5450443311247
1990.645096448372 858.8251494507376
1991.3087740993633 1091.4812040652942
1991.9722918911848 1065.122051892803
1992.635649862792 1217.268386749585
1993.2988480531185 1101.6579832612388
1993.9618865010852 1094.6162181712493
1994.6247652455968 1087.6088231407882
1995.287484325545 1128.5156270483085
1995.9500437798033 1024.766774990634
1996.6124436472292 1097.439962587949
1997.2746839666706 1211.197319640719
1997.936764776954 948.6290311728642
1998.598686116895 990.7551339766084
1999.2604480252903 1251.4620474551648
1999.9220505409212 1171.7577114131686
2000.5834937025593 1162.7510706807475
2001.2447775489582 1153.6464312031917
2001.9059021188514 1190.7887376675624
2002.5668674509616 955.7013653288693
2003.2276735839987 1051.36693003217
2003.8883205566508 1194.6065879199286
2004.5488084075987 1184.0504003735255
2005.2091371755014 1250.00255795445
2005.8693068990033 910.491007523026
2006.5293176167397 1298.5229863075401
2007.1891693673224 947.2828001300146
2007.848862189354 925.3936315843584
2008.5083961214223 961.7026534469584
2009.1677712020955 1103.1835875854813
2009.8269874699254 998.3355894490105
2010.4860449634598 1017.8552325343429
2011.1449437212177 1037.4860452935293
2011.8036837817108 1247.9883224221292
2012.4622651834325 1180.7091793033912
2013.1206879648653 1240.1304342861133
2013.7789521644736 1244.1150539455493
2014.4370578207036 1165.0477498546284
2015.0950049719922 1085.724291961016
2015.7527936567585 1314.1113681109246
2016.4104239134067 946.3433557794448
2017.067895780323 923.8970078171731
2017.725209295886 901.3596835661268
2018.3823644984514 1252.6403633084053
2019.0393614263648 1048.2881373291436
2019.6962001179545 1139.047426023703
2020.3528806115355 1222.5937522595282
2021.0094029454067 1218.9216697813295
2021.6657671578487 1141.572018944621
2022.321973287133 1064.0453132110279
2022.9780213715148 1042.0365795243029
2023.6339114492293 974.9697400171824
2024.2896435585026 1144.1085429513694
2024.9452177375442 1088.9456275674756
2025.600634024544 1291.2674295679208
2026.2558924576842 1107.7540394902298
2026.9109930751292 1221.067698533648
2027.565935915025 1313.6419883394426
2028.2207210155066 1406.518397978288
2028.8753484146964 1197.987501590639
2029.529818150695 1194.524254280633
2030.1841302615903 1190.9729712545845
2030.8382847854573 1095.5523201787887
2031.4922817603601 1039.1161732285543
2032.1461212243357 1084.266200929011
2032.7998032154192 883.7594104060324
2033.4533277716218 1136.0512238723354
2034.1066949309443 909.6709252597899
2034.7599047313688 962.1183376127968
2035.4129572108704 1021.1953836261628
2036.0658524074006 1080.3360382378582
2036.7185903589016 1157.2126149111846
2037.3711711032956 1241.9848999998521
2038.023594678496 1111.7072725350881
2038.675861122394 975.7701118374819
2039.3279704728757 999.5166229145265
2039.9799227678031 1023.4092566416202
2040.6317180450278 1175.5225977470275
2041.2833563423865 1064.8757722881169
2041.9348376977014 1184.0973448883212
2042.5861621487784 1280.1909610763619
2043.2373297334088 1330.7284041854844
2043.8883404893695 1088.9296838408954
2044.5391944544208 1090.0044587724155
2045.1898916663158 1234.0581627183265
2045.8404321627804 1303.2789720955154
2046.4908159815368 1055.6560395280471
2047.1410431602853 898.3587401871331
2047.7911137367173 1061.3808194715284
2048.441027748504 995.7503971113644
2049.090785233302 930.019311260756
2049.7403862287592 962.9858692565191
2050.389830772503 974.6546035192035
2051.0391189021466 986.361809900133
2051.688250655294 1036.3491386702174
2052.337226069527 1060.5911294913453
2052.986045182417 1145.7283010665546
2053.634708031521 842.4750581272831
2054.283214654375 1164.4651938119405
2054.931565088511 770.5695901557897
2055.579759371436 980.1628460688977
2056.2277975406523 1177.631594633267
2056.8756796336384 976.0371810876765
2057.5234056878617 1194.4919806501275
2058.1709757407752 1062.0065938167193
2058.8183898298194 1253.7717531505555
2059.465647992416 1251.7757211783971
2060.1127502659747 1076.8930395019156
2060.759696687888 1245.2800315016045
2061.4064872955405 1084.49305937997
2062.053122126292 910.6712866447558
2062.699601217497 1171.0513796321386
2063.345924606485 996.7363033686628
2063.992092330587 1040.1788300754195
2064.638104427102 1072.3493118533208
2065.283960933324 1186.3135968615152
2065.92966188653 1031.2103069827488
2066.5752073239855 1189.5917273691757
2067.2205972829397 1024.1432735987348
2067.86583180062 1126.9488797566494
2068.5109109142522 1079.6741423928906
2069.15583466104 1026.1064876068033
2069.8006030781708 972.490025977517
2070.445216202821 877.2328847704696
2071.089674072153 1233.2704710438943
2071.7339767233116 1255.4977442469333
2072.3781241934303 961.7214864470282
2073.0221165196253 1211.0263572874476
2073.6659537390024 950.122411351018
2074.3096358886505 1128.912166520741
2074.953163005637 1115.8654941462432
2075.596535127028 851.1319590885614
2076.2397522898664 944.4077983739171
2076.882814531182 1010.3133616755418
2077.5257218879924 990.3291461205229
2078.1684743973 1046.0154450921746
2078.8110720960885 952.5498766217552
2079.453515021336 1014.5605864093534
2080.095803209997 1076.6155105219334
2080.7379366990135 1146.1764138446053
2081.37991552532 1152.514773036193
2082.0217397258275 1141.582008264696
2082.6634093374414 877.3336547132906
2083.3049243970418 986.1160434563387
2083.9462849415067 1115.843544056128
2084.587491007689 1315.0481940972145
2085.2285426324324 1085.1704679032607
2085.869439852564 1023.683166843926
2086.510182704902 906.6112524653897
2087.1507712262483 1060.192267322022
2087.791205453381 1125.3944141018032
2088.4314854230743 1190.6811832103965
2089.0716111720867 1130.1555451634938
2089.7115827371617 869.7865270541384
2090.351400155023 901.3397663266381
2090.991063462385 932.9949029950534
2091.6305726959527 864.0290018811804
2092.2699278924047 1109.7201716290876
2092.9091290884153 1035.0453224312919
2093.548176320641 943.8780586493382
2094.187069625721 981.1687117418148
2094.8258090402887 872.1882859590116
2095.464394600951 1157.9697874921644
2096.102826344313 1009.0517212929942
2096.741104306955 1212.2217091392024
2097.379228525453 1013.6499667789456
2098.017199036358 934.7197995835182
2098.6550158762147 961.6803870843103
2099.2926790815527 988.6900823014155
2099.9301886888825 1126.7730572421442
2100.5675447347076 962.4320328713587
2101.2047472555114 1079.4542089683341
2101.841796287761 984.620735874298
2102.47869186792 1054.473541591065
2103.1154340324265 895.3007428945655
2103.752022817709 952.743898684218
2104.388458260184 1010.3194395747776
2105.024740396251 919.7014477475292
2105.660869262292 1050.7462625447558
2106.296844894685 1250.1713553321147
2106.93266732978 1075.8909578446046
2107.5683366039284 834.1963772292511
2108.2038527534532 1031.7528116413264
2108.8392158146726 1289.8110272855788
2109.4744258238843 1126.8460734975113
2110.1094828173755 819.1293681831373
2110.744386831422 1312.8327025067488
2111.3791379022787 929.816614555135
2112.01373606619 1301.808256536583
2112.648181359389 1048.3717447451393
2113.28247381809 1123.6016894577954
2113.916613478492 1048.6461863234397
2114.550600376786 1040.21383320233
2115.1844345491445 987.9520901301245
2115.818116031729 1036.4932421832968
2116.451644860679 1077.769654491919
2117.085021072133 1005.6947281184817
2117.718244702204 1060.3366187785348
2118.3513157869984 893.9593359699218
2118.984234362604 917.9439436394466
2119.617000465092 861.1885447691675
2120.249614130529 1188.7686283438757
2120.8820753949585 1148.0468795706583
2121.5143842944162 1048.4338225936904
2122.14654086492 1003.9538676403776
2122.7785451424734 954.5736128541955
2123.4103971630702 905.1997575891095
2124.042096962681 1046.6921043004718
2124.6736445772767 1230.5625797209727
2125.305040042802 1017.3852472678942
2125.936283395191 938.3994571328603
2126.567374670365 1049.8190183722545
2127.198313904233 975.4854785690695
2127.8291011326855 919.4783844754369
2128.4597363916037 863.2448466726553
2129.0902197168507 960.9756523611089
2129.720551144279 971.6814499326459
2130.3507307097225 1218.9048836156262
2130.980758449008 1213.4576653730016
2131.6106343979427 1248.4551452751161
2132.2403585923203 1283.4274099824922
2132.8699310679276 1003.280009595546
2133.499351860526 1097.4074312521454
2134.1286210058715 966.7779433146231
2134.7577385397053 1112.2525357869079
2135.3867044977487 1257.9349218800005
2136.0155189157176 1470.1846178343653
2136.644181829308 1235.7917836171082
2137.2726932742025 1075.069368244313
2137.901053286074 1084.7115964777552
2138.5292619005777 872.2537877788247
2139.1573191533535 932.0634552754707
2139.7852250800315 1186.8958729107699
2140.4129797162295 1111.2182025974025
2141.0405830975433 843.9390788117696
2141.6680352595613 875.0042357966975
2142.2953362378576 906.1388698741081
2142.9224860679915 1096.5270480614336
2143.549484785508 923.0841032755403
2144.1763324259373 1029.046699986551
2144.803029024799 945.1280345086116
2145.429574617594 1018.8947941155268
2146.0559692398165 1092.7192808424693
2146.682212926942 1041.4587893940366
2147.308305714432 973.5199364764607
2147.9342476377333 1166.1539863809232
2148.5600387322847 1065.032465538476
2149.185679033506 1026.2043278496424
2149.8111685768017 987.38973038399
2150.4365073975678 977.9364117842655
2151.061695531187 955.8113316684403
2151.686733013021 1207.112052193096
2152.311619878423 1254.390441345935
2152.9363561627342 934.3943183957617
2153.560941901278 910.9884181244852
2154.1853771293663 1051.6262089934417
2154.809661882293 1011.3923685553194
2155.433796195348 967.1109325409965
2156.0577801037944 922.6542210020591
2156.681613642895 1110.7744046155353
2157.3052968478896 1142.065150128675
2157.928829754006 1173.364491813456
2158.552212396462 1208.5878922032393
2159.1754448104566 1001.8228580979519
2159.7985270311783 935.3901659388378
2160.4214590938027 731.0058824727428
2161.0442410334927 688.9873755039498
2161.6668728853874 1064.1082021388584
2162.289354684628 1045.6758109076677
2162.911686466332 976.7643331298046
2163.533868265602 893.4656418839091
2164.1559001175337 1224.7424984242568
2164.7777820572046 1155.6978618166243
2165.399514119681 1085.204911226527
2166.021096340013 1018.4874622392757
2166.6425287532384 1131.1174447357248
2167.263811394385 1105.4058663812243
2167.8849442984574 1079.739087122626
2168.505927500455 1028.7064929341966
2169.126761035366 1225.7034231697737
2169.7474449381552 1029.8728449907444
2170.367979243778 794.3486462140155
2170.9883639871823 1073.2790075473094
2171.608599203293 1208.6246425151912
2172.2286849270276 1344.3209655712494
2172.8486211932886 1185.5675489497755
2173.4684080369625 1185.7843842627467
2174.0880454929265 868.0110296246887
2174.7075335960417 711.9005276047958
2175.3268723811543 811.9820691165212
2175.9460618831 912.3269115328009
2176.565102136701 1115.0471688970333
2177.1839931767627 1328.9422598087517
2177.802735038078 1100.7110409378458
2178.421327755432 897.1639783361956
2179.0397713635866 919.6673980028718
2179.658065897298 985.5721629278567
2180.276211391305 1051.593348797449
2180.8942078803357 1202.674946608795
2181.5120553991 929.4635285213723
2182.129753982299 785.6817524945429
2182.7473036646206 990.6059012307526
2183.3647044807367 1080.4410524217253
2183.9819564653044 951.2055697982663
2184.599059652968 1161.1796284037869
2185.216014078367 976.4743928392796
2185.832819776113 1070.842704124031
2186.4494767808137 1165.373748085409
2187.065985127063 1086.7683315359766
2187.682344849436 1034.9929349442248
2188.298555982501 1151.17617640156
2188.9146185608097 1119.5575066341535
2189.530532618901 1246.7735909655999
2190.1462981912937 1109.1294332833188
2190.761915312507 1110.06199821398
2191.377384017036 943.5570838231815
2191.9927043393654 952.6134805498789
2192.6078763139667 1115.20602118894
2193.2228999753006 815.8820152127195
2193.837775357808 1022.4511429722932
2194.452502495922 1000.2320564189091
2195.0670814240602 1035.4956438547504
2195.6815121766285 795.2102775332407
2196.2957947880186 743.8526854328753
2196.9099292926057 692.3940063188039
2197.523915724758 1141.4805370000952
2198.137754118825 1095.8798674590564
2198.7514445091456 1221.140237344312
2199.3649869300443 1310.8550291075035
2199.9783814158327 1400.8344125345131
2200.5916280008096 1255.9205818191112
2201.2047267192593 1143.9167901076344
2201.8176776054515 1046.9009714463602
2202.430480693649 1114.1893102260722
2203.0431360180955 1181.6660359223256
2203.6556436130195 1115.0070128228904
2204.268003512645 731.7672433242104
2204.8802157511727 1049.672917359613
2205.492280362796 1358.7431293561128
2206.1041973816937 1149.3370250853884
2206.715966842032 984.1768673383813
2207.3275887779655 1116.1536915503182
2207.93906322363 913.7698012603767
2208.550390213153 1065.4623152590536
2209.1615697806465 1028.4970153283718
2209.7726019602105 1058.9960718354191
2210.3834867859277 953.8896619610472
2210.9942242918787 991.1330197965796
2211.6048145121167 1110.2515788340304
2212.2152574806914 1410.3182917174315
2212.825553231638 1017.8749509857004
2213.435701798975 1414.4467288874528
2214.045703216707 1028.8981351834846
2214.655557518832 696.796913890721
2215.2652647393297 890.226242828601
2215.874824912169 779.0365083262225
2216.4842380713 937.648989830342
2217.09350425067 1027.0073780348855
2217.7026234842033 1116.6233216713197
2218.311595805819 1160.8129919436305
2218.9204212494133 995.1512121326244
2219.52909984888 1127.801293512033
2220.137631638092 789.8461549484508
2220.7460166509154 847.2216411903415
2221.354254921198 904.6696711575921
2221.9623464827764 1116.4859173056434
2222.5702913694713 975.3055321947173
2223.178089615096 1119.9983620485834
2223.7857412534486 1031.8117574294981
2224.39324631831 812.3665581549451
2225.000604843457 973.1418493551907
2225.607816862641 1098.08167051648
2226.214882409611 1129.2908226799314
2226.8218015180973 1180.7055403652225
2227.4285742218217 1038.3048089834756
2228.0352005544864 849.3541357667764
2228.6416805497847 937.4182125452473
2229.248014241399 756.829418359405
2229.8542016629945 857.9631859163965
2230.460242848223 1045.5084727028145
2231.0661378307304 868.3591648841832
2231.671886644139 1041.664164885537
2232.277489322065 826.5708366722235
2232.8829458981127 553.7924992967731
2233.48825640587 875.6389069552388
2234.0934208789095 1162.97387738555
2234.6984393507955 1195.7990251661333
2235.3033118550793 855.5438597131413
2235.9080384252975 904.3065568108334
2236.5126190949723 820.3316690528027
2237.1170538976166 991.9233476325613
2237.721342866729 874.2963500052183
2238.32548603579 901.3532536646557
2238.9294834382763 998.7428639144528
2239.533335107646 1159.300917674851
2240.1370410773434 1038.4593413813823
2240.740601380803 1056.1533104984376
2241.3440160514474 1073.8856576463563
2241.9472851226783 1292.3726936203768
2242.550408627896 1059.4595114431336
2243.1533866004793 1307.7938721959295
2243.756219073799 997.884924555948
2244.3589060812064 820.2356865944178
2244.961447656049 927.2941284631594
2245.5638438316564 1047.8706757815753
2246.166094641343 1068.0952535106658
2246.7682001184166 851.4380928232835
2247.3701602961664 870.068472679363
2247.971975207871 1074.2180523231807
2248.5736448867974 1026.9891985453107
2249.175169366197 979.6278273776228
2249.7765486793123 1022.1474300748569
2250.3777828593684 1222.521713157931
2250.9788719395783 1131.0293481308286
2251.579815953146 906.6169737927041
2252.1806149332606 963.9022901170741
2252.781268913097 1172.0434883004275
2253.381777925817 941.1699621856831
2253.9821420045737 1155.5223137999387
2254.5823611825035 1135.3015680451808
2255.1824354927303 1007.303522712863
2255.782364968365 934.5879587119873
2256.38214964251 861.8008731162612
2256.9817895482483 871.4409731799703
2257.5812847186553 885.629031068125
2258.180635186791 910.3869799441303
2258.779840985704 905.1421886688449
2259.37890214843 892.3867938900397
2259.97781870799 1168.8451266212048
2260.5765906973957 1248.2963482993343
2261.175218149645 1241.8677885206205
2261.773701097718 1029.9935652256697
2262.3720395745895 1042.2098137960434
2262.970233613216 1054.4099573440258
2263.568283246548 1056.747052672772
2264.1661885075137 901.461572013259
2264.763949429038 947.5898932260031
2265.3615660440246 1124.2589960720384
2265.959038385374 836.5468440500881
2266.5563664859637 865.2635415475582
2267.153550378669 894.0646087480557
2267.7505900963424 908.5123342398847
2268.3474856718312 958.0865443728084
2268.9442371379664 995.6196738177727
2269.5408445275643 923.3785056235181
2270.1373078734377 994.6484348014776
2270.7336272083758 848.8619598697984
2271.32980256516 996.7626459037426
2271.925833976562 1152.6117617553198
2272.5217214753357 1115.4176240921674
2273.117465094223 982.1310790724256
2273.7130648659586 848.5694297673426
2274.308520823257 994.0588228414521
2274.903832998827 1010.4324169537585
2275.4990014253563 807.8752242540518
2276.094026135528 824.076427101011
2276.6889071620117 840.2795139121481
2277.2836445374614 1037.373621142898
2277.878238294519 973.2299816570878
2278.472688465812 1173.7523793348532
2279.066995083962 1130.4515258076237
2279.6611581815705 1087.07721685921
2280.255177791232 935.7911903116556
2280.8490539455233 1073.2221262574353
2281.442786677013 1210.9446534822505
2282.0363760182554 1168.493292785642
2282.6298220017943 1143.9533941139184
2283.223124660155 1119.4345399441816
2283.816284025859 986.4354908858137
2284.4093001314086 979.7600874291286
2285.002173009292 973.0899027178659
2285.5949026919952 1068.2221183401775
2286.1874892119777 1193.3490933326602
2286.7799326016993 1105.187676057203
2287.3722328936 773.1580798079597
2287.964390120109 843.1388323565013
2288.556404313642 1168.2821053609655
2289.1482755066027 1136.177795082746
2289.7400037313873 1103.9710938822948
2290.3315890203703 986.4521555419603
2290.9230314059205 1042.5266009244585
2291.5143309203904 904.2563930979613
2292.1054875961236 1183.5538817251042
2292.6965014654506 1186.2441194345624
2293.287372560684 1259.5657783041017
2293.878100914131 1333.104196053682
2294.468686558086 1078.7415123615178
2295.059129524827 885.8757395700775
2295.649429846617 914.7123595329656
2296.239587555716 943.5853206955846
2296.8296026843636 1072.1988310495422
2297.419475264791 1121.1461554947878
2298.0092053292137 947.9021159123829
2298.598792909839 991.0953922366741
2299.1882380388597 1034.293048487648
2299.777540748455 1177.6322067975611
2300.3667010707904 992.3951411664555
2300.9557190380256 1050.7319984817113
2301.544594682302 1207.0092581910842
2302.1333280357503 1109.6799810985017
2302.721919130485 1012.2655918178547
2303.3103679986198 1303.9130837930602
2303.898674672242 1151.9722332164777
2304.486839183437 879.1587814384686
2305.0748615642697 846.1385079273635
2305.6627418468015 1013.2170251502328
2306.2504800630704 931.9599211901465
2306.8380762451143 989.6269421701102
2307.425530424949 1071.718351751258
2308.012842634582 1153.9898332810108
2308.6000129060103 1251.0439183017327
2309.187041271214 1262.2184091517468
2309.773927762164 1255.5493936304506
2310.3606724108213 1248.897321255085
2310.9472752491274 1084.1115676818713
2311.5337363090184 1083.8184647201467
2312.120055622414 1083.5328833325743
2312.706233221221 960.5129161764675
2313.2922691373424 740.5038000642987
2313.8781634026564 787.3476639808003
2314.463916049037 834.2938955419007
2315.049527108342 994.8098621683196
2315.6349966124235 1264.3523634318422
2316.2203245931123 1130.6584556919056
2316.8055110822315 1030.457263960103
2317.3905561115935 930.0097012925644
2317.9754597129977 838.42680481568
2318.560221918229 877.4508373944745
2319.1448427590603 916.5825901215255
2319.729322267256 927.6273637462339
2320.313660474563 1179.6902235942011
2320.8978574127195 1432.4587658410012
2321.481913113452 1346.0875670207133
2322.0658276084705 1197.8032316840781
2322.6496009294806 1049.1312658013235
2323.233233108165 1226.3038529829644
2323.8167241762058 1092.31438975425
2324.4000741652617 1001.5298033562792
2324.983283106987 1224.5851831908624
2325.5663510330232 1088.1390420193784
2326.1492779749933 1035.4429417160345
2326.7320639645204 1076.8918807540515
2327.3147090332004 1311.4201084619147
2327.897213212629 977.2900965264138
2328.4795765343843 1153.6003333601611
2329.0617990300307 1005.5718645959532
2329.643880731124 1298.794601710068
2330.22582166921 908.7266015185809
2330.807621875816 1243.0675654608726
2331.3892813824623 688.1100783974782
2331.9708002206517 731.1552205154187
2332.5521784218818 804.9015544232893
2333.133416017634 878.8329288544492
2333.7145130393765 912.0968016394643
2334.295469518571 1221.4514118971076
2334.876285486658 1251.7794259441787
2335.456960975076 1177.1842609116459
2336.037496015242 1102.4427451372708
2336.6178906385667 941.1298717028151
2337.198144876451 1077.5829580293846
2337.778258760278 994.7971573898852
2338.3582323214214 733.2075367268608
2338.938065591243 1048.689503257282
2339.517758601087 1330.4295664879007
2340.0973113822965 1157.8317668240468
2340.676723966193 958.9516214164457
2341.255996384094 1161.9564621569052
2341.835128667295 1185.6085864023219
2342.4141208470883 1202.3852597641585
2342.992972954751 987.11620372303
2343.5716850215467 797.4052618716075
2344.1502570787306 607.2918256555682
2344.7286891575386 593.9626880890122
2345.3069812892045 860.4785998434467
2345.885133504944 1127.3747890305206
2346.4631458359618 1102.0724803263272
2347.04101831345 1019.1696505491852
2347.6187509685915 936.1198494758022
2348.196343832553 1126.836190859184
2348.7737969364935 1080.3906855231285
2349.351110311558 794.6183311573534
2349.9282839888765 919.2356401775648
2350.5053179995757 657.5281467979573
2351.0822123747585 931.0807915161389
2351.658967145526 841.6191912977176
2352.2355823429643 752.0563676214426
2352.812057998144 982.6472417024481
2353.3883941421263 967.799275723519
2353.9645908059647 952.9646005825538
2354.540648020693 837.7988912805464
2355.116565817336 962.9499466542093
2355.6923442269126 841.402373241305
2356.2679832804224 965.9545825982347
2356.8434830088518 947.5427363529683
2357.41884344318 1035.2435339065114
2357.994064614377 1252.4010618084615
