#exp_cfg={"servo_angle": 0.0, "laser_lim": 100.0, "servo_angle_to": 18.0, "laser_wup": 0.0, "bt_dev": "EnSpectr-25AE3", "laser_wdn_max": 0.0, "frames": 10.0, "servo_used": 0, "servo_calib_use": 0, "laser_wdn_min": 0.0, "servo_pix_from": 90.0, "cooler_tout": 300.0, "servo_angle_from": 0.0, "servo_calib": "[-1.9174921013161362e-09, 3.9322238269163779e-05, -0.27385609119055809, 653.59552119713567]", "laser_autoctl": 0, "servo_pix_to": 3682.0, "laser_pw": 100.0, "cooler_on": 0, "laser_volt": 4.0, "cooler_autoctl": 0, "cooler_curr": 70.0, "cooler_startup": 10.0, "laser_fixed_pw": 0, "gain": 1.3, "offset": 2.53059635486, "servo_calib_degree": 3.0, "laser_curr": 55.0, "shutter": 8200.0, "servo_calib_step": 1.0, "laser_fixed_curr": 0, "exp": 2000.0, "ccd_volt": 4.7, "bt_addr": "00:06:66:62:5A:E3", "servo_delay": 500.0, "laser_autooff": 1}
#proc_cfg={"flat_auto_wnd": 200.0, "flat_auto_fr": 200.0, "flat_auto_shift": 5.0, "yconv": 1, "flatten": 1, "flatten_strength": 100.0, "xfrom": 300.0, "auto_max_frame": 2000.0, "auto_signal": 48000.0, "flat_auto_tol": 0.1, "autoclip": 1, "xrel_range": 0.0, "flat_auto_to": 4000.0, "intensity_adj": 1.0, "xrel": 7852.0, "rmhot": 1, "flat_auto_slit": 4.999999999999997, "auto_ini_exp": 300.0, "auto_off": 0, "xto": 2860.0, "flat_auto_ref": "", "flat_auto_rank": 1, "autobackg": 0, "xrel_adj": 0.0, "auto_black_lvl": 1, "base_wnd": 100.0, "sub_baseline": 0, "xconv": 2, "auto_max_exp": 1000.0, "auto_total_exp": 10000.0, "auto_exp": 0, "rmripple": 0, "black_lvl": 8239.0, "shutter_clip_adj": 0.0, "auto_bckg": 0, "flat_auto_thr": 0.9, "subbackg": 1}
316.8218498245369 8736.648231151794
317.89969571804795 8522.632761111545
318.977263876126 8550.079908378404
320.05455438786703 8434.047247866216
321.1315673423287 8396.384135584065
322.2083028285215 8432.257403616526
323.2847609354267 8341.480719928248
324.3609417519747 8305.168774204429
325.43684536705587 8299.44975622246
326.5124718695279 8290.132940106636
327.58782134820103 8186.017812087854
328.66289389184385 8208.908720696014
329.7376895891921 8137.412011996396
330.8122085289342 8083.471519483377
331.88645079971866 8197.115425347572
332.9604164901575 8084.860306265202
334.03410568881554 8038.81604178773
335.1075184842266 8125.5717979927595
336.18065496487543 8042.599560329725
337.2535152192122 8041.446591044385
338.32609933564163 8024.911318773794
339.39840740253203 7910.327073829246
340.4704395082099 8013.746622796108
341.5421957409617 7901.459174590833
342.6136761890357 7946.257729097601
343.6848809406365 7899.382558132575
344.75581008392874 7786.353720729319
345.82646370703696 7788.501083239203
346.8968418980512 7812.906250489311
347.96694474501055 7870.497300414255
349.0367723359268 7827.717091160188
350.106324758759 7751.979695482683
351.1756021014353 7739.494554193045
352.2446044518383 7723.671605289595
353.31333189781435 7800.060901985557
354.38178452716966 7724.852023880507
355.449962427665 7732.439519567335
356.51786568702846 7686.403909262309
357.58549439294256 7747.122793111781
358.6528486330535 7752.9305268721655
359.71992849496564 7688.9314582537645
360.7867340662433 7701.620421241777
361.8532654344144 7773.8480143719225
362.9195226869597 7714.154605268074
363.9855059113288 7694.31993086249
365.05121519492604 7664.074907515756
366.11665062511565 7702.638501659729
367.1818122892273 7666.840857893172
368.2467002745434 7713.534508646924
369.31131466831175 7695.906766098368
370.375655557742 7715.857476829879
371.4397230299983 7699.777912338714
372.5035171722102 7719.344628957112
373.5670380714637 7656.833893509969
374.6302858148101 7740.955442131759
375.6932604892554 7686.112239574968
376.7559621817709 7682.683554466652
377.81839097928605 7584.7957454376465
378.8805469686886 7593.239920117752
379.94243023683157 7734.096191408875
381.0040408705263 7579.332508168976
382.0653789565458 7508.540080575842
383.1264445816196 7579.849254081366
384.1872378324406 7493.145782318919
385.2477587956637 7556.000024072915
386.3080075579037 7522.971485295847
387.3679842057336 7413.083501918688
388.4276888256918 7507.308850635336
389.48712150426945 7469.299915329444
390.54628232792857 7461.732398465696
391.6051713830857 7384.200559972615
392.66378875611736 7381.590403367789
393.7221345333637 7384.462372146123
394.7802088011249 7382.450510553291
395.838011645661 7363.969129676693
396.89554315319765 7318.063716785831
397.9528034099112 7299.502465092625
399.00979250194723 7248.43285188871
400.06651051541485 7278.591061374784
401.1229575363741 7287.5602126741815
402.17913365085224 7255.637911370095
403.23503894483656 7241.274717200662
404.2906735042761 7203.715626609414
405.3460374150818 7121.796824986261
406.401130763119 7159.794749856415
407.455953634224 7153.228219387296
408.5105061141876 7097.390357869718
409.56478828876243 7075.513620322691
410.6188002436629 7056.043053212746
411.6725420645689 7046.24626856636
412.72601383711117 7101.257352814714
413.77921564689314 7102.795925427905
414.8321475794728 7062.511907668112
415.88480972036814 6976.359657674538
416.93720215506437 6992.377707930816
417.9893249690049 7013.647122904438
419.04117824759123 6959.115055658023
420.09276207619223 6918.4324022396295
421.144076540133 6930.425665158019
422.1951217247042 6990.182032646806
423.24589771515275 6929.1019856083485
424.2964045966928 6893.018171797457
425.34664245449494 6931.350074717879
426.3966113736933 6887.9780796334935
427.4463114393875 6861.468292846931
428.49574273662984 6873.337210801849
429.5449053504417 6812.67272519524
430.5937993658026 6870.26534970519
431.6424248676558 6763.13894765071
432.6907819409007 6776.106271556663
433.73887067040596 6829.3096645163605
434.7866911409965 6784.51972440931
435.8342434374608 6793.436221750728
436.88152764455117 6820.380607095361
437.9285438469724 6775.832298828983
438.9752921294057 6775.044921469681
440.02177257648145 6792.726738331192
441.06798527279716 6685.570066215931
442.1139303029122 6791.037793535208
443.1596077513459 6784.8023052887775
444.2050177025794 6762.533583731683
445.25016024105753 6742.797433855021
446.2950354511886 6758.728893115866
447.33964341733736 6743.46759523552
448.383984223834 6726.7429133052265
449.4280579549686 6635.782187300128
450.471864694995 6710.307962734082
451.5154045281306 6681.640510805456
452.5586775385509 6738.430399696585
453.60168381039693 6710.464462446097
454.64442342776783 6766.1012692193835
455.6868964747264 6725.917125743026
456.7291030353008 6634.698507845211
457.77104319347563 6760.715794066144
458.8127170332027 6741.296663621635
459.854124638392 6751.394587136887
460.895266092919 6757.658241454847
461.93614148061897 6810.470591682393
462.97675088529104 6814.823966378271
464.01709439069236 6819.439100135739
465.0571720805492 6832.821490829985
466.0969840385442 6880.13071433985
467.1365303483253 6972.831264724415
468.17581109350067 6862.585798685798
469.2148263576437 6855.362110386272
470.2535762242878 6917.151108731445
471.29206077693016 6973.414592901977
472.33028009902773 6954.226125223744
473.3682342740012 6970.086556401016
474.40592338523857 6925.293478816585
475.4433475160804 6961.170217480598
476.4805067498364 7012.600708081966
477.51740116978 6916.766719152596
478.5540308591426 6975.84208997942
479.59039590112116 7041.002471250324
480.6264963788726 7018.959644283301
481.6623323755193 7101.834642399093
482.6979039741436 7074.979498437952
483.7332112577915 7198.718642480754
484.76825430947247 7279.214979534763
485.80303321215797 7305.4241857958605
486.837548048783 7320.719868723774
487.8717989022425 7409.349761711777
488.90578585539697 7395.760887718221
489.9395089910686 7438.603070722396
490.97296839203955 7351.486562517393
492.00616414106116 7295.743574448745
493.0390963208429 7233.831146586059
494.0717650140559 7268.078391608999
495.10417030333883 7214.027647015782
496.1363122712901 7153.509709749174
497.16819100046814 7042.671934817712
498.1998065734024 6893.599586745258
499.2311590725767 6865.181898951974
500.26224858044407 6765.807983311861
501.2930751794156 6758.284959287068
502.3236389518679 6755.022562749265
503.35393998014115 6738.486821646608
504.38397834653733 6642.28014715425
505.4137541333221 6677.4691949586895
506.4432674227228 6607.081586667756
507.4725182969323 6594.717274274573
508.5015068381035 6591.304464744807
509.53023312835467 6584.526934159684
510.55869724976765 6540.199633832852
511.58689928438434 6513.318698562407
512.6148393142121 6466.443858448152
513.6425174212218 6525.677846369874
514.6699336873462 6534.884445926326
515.6970881944835 6484.222895391005
516.7239810244901 6481.328070637648
517.7506122591931 6415.674616096115
518.7769819803761 6426.507915775097
519.8030902697901 6435.670039785817
520.8289372091476 6436.214555697918
521.8545228801249 6464.892234092115
522.8798473643619 6440.257786998582
523.9049107434621 6454.573478921182
524.9297130989908 6448.778217494897
525.9542545124805 6446.319283726104
526.9785350654201 6442.87828247194
528.0025548392696 6433.057923514296
529.0263139154504 6390.337153788395
530.0498123753423 6357.327479411929
531.073050300296 6360.717906517238
532.0960277716204 6292.640316763771
533.1187448705896 6360.441406356821
534.1412016784416 6343.269516367402
535.1633982763833 6368.223088563804
536.1853347455726 6314.183101679077
537.2070111671401 6296.78416737157
538.2284276221817 6230.6431776150985
539.2495841917516 6246.4478371938
540.2704809568677 6198.212758520932
541.2911179985167 6197.606994302454
542.3114953976419 6119.217348034128
543.3316132351592 6123.156270914169
544.3514715919409 6136.1095150889905
545.3710705488247 6093.776005220932
546.3904101866156 6109.5092315112
547.4094905860784 6111.251394433825
548.4283118279418 6078.345726791469
549.4468739929034 6105.607585788099
550.4651771616191 6066.380304000189
551.4832214147063 5997.679610165863
552.501006832761 6050.642795399319
553.5185334963226 5989.788214106067
554.5358014859103 6099.407934745519
555.5528108820035 6017.022253246273
556.5695617650363 5973.346166679652
557.5860542154242 6067.413084360696
558.6022883135283 6037.875601884171
559.6182641396881 5992.306870405823
560.6339817741991 6025.767315488082
561.6494412973225 6026.147324037928
562.6646427892883 6049.721011061692
563.6795863302796 5990.78443328558
564.694272000459 5952.154565747686
565.7086998799423 6080.344799681777
566.7228700488104 5977.375848551689
567.7367825871115 5981.162279027988
568.7504375748576 6002.0914984191095
569.7638350920224 6000.377206951685
570.7769752185486 6041.779414960694
571.7898580343353 6041.382156691895
572.802483619258 6014.096244330798
573.8148520531431 6083.67988127249
574.8269634157932 6060.7847299446275
575.8388177869692 6057.515514424622
576.8504152463938 6118.224221297512
577.8617558737587 6113.20351984503
578.8728397487175 6089.647417207562
579.883666950891 6119.1785750936715
580.8942375598654 6191.7958452364255
581.9045516551851 6207.970548193409
582.9146093163617 6342.473829923745
583.924410622878 6254.077805799199
584.9339556541727 6231.700491408232
585.9432444896538 6359.33223713863
586.9522772086875 6232.341270286123
587.9610538906127 6337.541730730762
588.9695746147318 6216.73621461871
589.9778394603054 6331.215989703183
590.985848506567 6220.014179727842
591.9936018327098 6201.392736213002
593.0010995178891 6091.070864602074
594.0083416412344 6157.6728648341
595.0153282818283 6034.484114305127
596.0220595187293 6008.107476696814
597.0285354309508 6004.920761161501
598.0347560974806 6006.413640524956
599.0407215972609 5999.253547064809
600.0464320092051 5892.218592098316
601.0518874121954 5982.513455236227
602.0570878850685 5950.025961717694
603.062033506636 5938.674470209164
604.0667243556636 5958.6429633080115
605.0711605108936 5857.017346249604
606.0753420510264 6054.724221101691
607.0792690547278 5984.758889384297
608.082941600629 5908.677315639024
609.0863597673306 5992.161507340946
610.0895236333909 5984.610577204181
611.0924332773357 6046.850892929819
612.0950887776617 5957.198985554162
613.0974902128219 6052.810295084819
614.0996376612384 6090.437683727321
615.1015312013005 6164.4061593443985
616.1031709113595 6174.8491885216745
617.1045568697336 6132.965716625786
618.1056891547069 6209.547627442966
619.1065678445229 6316.270964761671
620.1071930173985 6441.41522738886
621.1075647515099 6399.512001069441
622.1076831250048 6487.423140822748
623.1075482159849 6552.235937287231
624.1071601025305 6607.083133151691
625.1065188626781 6621.887006101667
626.105624574433 6854.314942168906
627.1044773157682 6891.306846145836
628.1030771646128 6874.738000293661
629.1014241988742 6989.927333471693
630.0995184964158 6991.127744922627
631.0973601350688 7134.894966685575
632.0949491926294 7194.404321930693
633.0922857468631 7026.7868094674
634.089369875499 7076.048685280041
635.0862016562278 7101.347622496998
636.0827811667077 6915.034251866967
637.0791084845641 7004.642439717098
638.0751836873878 6941.212236220116
639.0710068527369 6992.031300882058
640.0665780581294 6752.494497651132
641.0618973810506 6628.328171738632
642.0569648989604 6723.342684182707
643.0517806892676 6548.852095580112
644.0463448293649 6532.79311820943
645.040657396592 6470.1265309804185
646.0347184682723 6372.5260785424625
647.0285281216875 6322.955474984926
648.0220864340772 6253.561978015589
649.0153934826558 6179.703965079623
650.0084493446047 6203.156697574021
651.0012540970674 6199.034693583827
651.9938078171526 6097.645646696005
652.9861105819346 6091.815661216273
653.9781624684565 6153.6864899299335
654.9699635537254 5981.09981521397
655.9615139147136 6027.457186961712
656.9528136283589 5890.294185642249
657.9438627715699 6035.682818776493
658.9346614212154 5943.491159596162
659.925209654135 5840.619977324721
660.9155075471263 5873.944324941727
661.9055551769616 5835.314473596912
662.895352620375 5889.637494216799
663.8848999540678 5835.178124740526
664.8741972547068 5709.296270694261
665.863244598926 5705.512292141022
666.8520420633213 5778.947733491581
667.8405897244611 5603.129197183279
668.8288876588758 5621.979741867958
669.8169359430613 5642.952813685677
670.8047346534822 5641.596234202538
671.7922838665672 5580.022362029925
672.7795836587156 5639.325373532765
673.766634106285 5683.476191015082
674.7534352856092 5591.77306544877
675.7399872729766 5573.8583221907265
676.7262901446538 5554.363390169235
677.712343976862 5574.234797840056
678.6981488457986 5636.635443827241
679.6837048276229 5488.870381510275
680.6690119984596 5580.108966999851
681.6540704344043 5566.475089345489
682.6388802115107 5560.126963166831
683.6234414058108 5530.547624627884
684.6077540932874 5459.501352204288
685.591818349907 5528.69528998792
686.575634251587 5452.382162841027
687.5592018742263 5477.309363929239
688.5425212936734 5428.689818289715
689.5255925857564 5458.292467834464
690.5084158262707 5485.999535664937
691.4909910909646 5439.249188252136
692.4733184555644 5445.765880710403
693.4553979957618 5470.248230263993
694.4372297872123 5437.840155091895
695.4188139055404 5375.527377994133
696.4001504263324 5341.912770512833
697.3812394251509 5456.058485867152
698.3620809775111 5377.792188953531
699.3426751589104 5372.285706574532
700.3230220448004 5358.969076130439
701.3031217106054 5447.169217089058
702.2829742317172 5465.007714776754
703.2625796834873 5311.31112370882
704.2419381412474 5303.134285871378
705.22104968028 5369.2725236953975
706.1999143758458 5399.699129377692
707.178532303169 5288.556227335313
708.1569035374378 5348.866903872529
709.1350281538107 5429.5987666502915
710.1129062274158 5404.442876781019
711.0905378333373 5453.724741437467
712.0679230466376 5490.190257085978
713.0450619423427 5561.0509704817405
714.0219545954424 5667.793769746879
714.9986010808989 5560.215086677292
715.9750014736292 5624.146518639027
716.9511558485392 5673.724339961558
717.9270642804786 5805.8789533642575
718.9027268442787 5811.0380405185515
719.8781436147328 5835.123126453515
720.8533146666014 5729.01282896898
721.828240074612 5765.276387794734
722.8029199134635 5778.242818923993
723.7773542578125 5734.622421436197
724.751543182294 5629.2239709775595
725.7254867615029 5716.679577274195
726.6991850700015 5553.191814967528
727.6726381823228 5543.8120826622935
728.6458461729599 5589.746592241447
729.6188091163858 5505.988859673122
730.5915270870246 5512.006104789605
731.5640001592856 5481.7400967612175
732.536228407529 5490.131507187848
733.5082119060917 5500.11809207512
734.4799507292755 5446.473681308828
735.4514449513481 5453.918736674453
736.4226946465496 5475.211795933997
737.3936998890786 5476.889071219352
738.3644607531078 5379.401118915544
739.3349773127793 5440.2602820401235
740.3052496421951 5392.31895845096
741.27527781543 5397.4045646374125
742.2450619065221 5296.361527399116
743.2146019894826 5307.086094570333
744.183898138288 5304.54437887814
745.1529504268801 5295.522142472604
746.1217589291682 5225.1127736851495
747.0903237190341 5214.082101127891
748.058644870318 5272.815687588084
749.0267224568397 5184.941736339279
749.994556552374 5093.394399196945
750.9621472306771 5150.963471285044
751.9294945654583 5144.509567568446
752.8965986304011 5145.973355341484
753.8634594991636 5064.072414364633
754.8300772453586 5202.502730188459
755.7964519425768 5125.966504700582
756.762583664371 5196.420754402396
757.7284724842611 5157.569176835168
758.6941184757416 5128.2066067815485
759.6595217122667 5133.728576376695
760.6246822672638 5124.591044173996
761.5896002141235 4972.056368408305
762.5542756262093 5073.074988056375
763.5187085768503 5149.543818143784
764.4828991393406 5037.116668191358
765.4468473869474 4986.972339403633
766.4105533929032 5139.7831432989715
767.3740172304078 5031.977836633563
768.3372389726283 5028.588664933057
769.3002186926988 5028.723604015619
770.2629564637282 5068.130359204941
771.2254523587872 4927.726294649022
772.1877064509154 4965.656460614722
773.1497188131179 4897.825133870848
774.1114895183728 4895.2945163343375
775.0730186396268 4885.520272177878
776.0343062497905 4888.652874427049
776.9953524217381 4866.680079767668
777.9561572283274 4945.482704511792
778.9167207423689 4888.689642563306
779.8770430366476 4804.175584971459
780.8371241839159 4836.400270502978
781.7969642568951 4807.419977453841
782.7565633282757 4959.2869120879
783.7159214707099 4845.199986864608
784.6750387568281 4910.590268804198
785.6339152592227 4824.773196962112
786.5925510504512 4724.761666278236
787.5509462030477 4811.835371455579
788.5091007895098 4820.598856276566
789.4670148823006 4799.493437909567
790.4246885538596 4788.197797362661
791.3821218765861 4827.074416664172
792.3393149228505 4764.657630713486
793.2962677649975 4857.776037253274
794.2529804753303 4807.584567214424
795.20945312613 4881.61828119182
796.1656857896378 4773.365179768527
797.1216785380675 4765.007847367322
798.0774314435985 4869.301747469463
799.0329445783846 4916.171514372963
799.9882180145414 4925.462965215911
800.9432518241574 4831.02905012801
801.89804607929 4927.697241192489
802.852600851962 4952.825652460897
803.8069162141637 4932.26529602181
804.760992237856 5015.109521862966
805.714828994971 5005.174942864342
806.6684265574077 5051.990128740019
807.6217849970271 4952.828510316585
808.574904385674 4995.758221025633
809.527784795142 5032.680565628526
810.4804262972102 5026.386464442758
811.4328289636178 4919.757461514452
812.3849928660748 4889.56887130842
813.3369180762638 4873.366890090229
814.2886046658241 4978.99639148347
815.2400527063783 4837.457336356091
816.1912622695108 4778.462212457012
817.1422334267718 4834.098865286613
818.0929662496856 4711.596286788112
819.0434608097457 4597.5986699740815
819.9937171784059 4672.291233705384
820.9437354271013 4610.48990834836
821.8935156272255 4702.858218773089
822.8430578501484 4711.0678640383885
823.7923621672016 4502.052376163534
824.7414286496896 4568.467626149655
825.6902573688876 4690.936529601606
826.6388483960363 4627.091072018479
827.5872018023492 4619.5784170828065
828.5353176590033 4663.328267911011
829.4831960371503 4505.648938515196
830.4308370079016 4524.398113768658
831.3782406423525 4489.95737876358
832.3254070115545 4560.413506959328
833.2723361865319 4505.636841738128
834.2190282382799 4503.102633853838
835.1654832377644 4531.274685070496
836.1117012559116 4463.300337178275
837.0576823636256 4546.391382046392
838.003426631778 4430.847879860659
838.9489341312074 4450.537648213598
839.8942049327197 4533.322491030105
840.8392391070975 4615.360435560841
841.7840367250865 4489.0802800308065
842.7285978573982 4456.169299187557
843.672922574724 4520.957975566292
844.6170109477152 4477.136732438518
845.560863046996 4468.176271886105
846.5044789431595 4497.304602127067
847.4478587067697 4445.674436326553
848.3910024083561 4512.444750041203
849.333910118421 4478.764977528913
850.2765819074339 4407.06823584512
851.2190178458332 4551.1081906819645
852.161218004032 4472.079384508618
853.1031824524016 4492.936127494637
854.0449112612987 4471.380138957569
854.9864045010327 4474.491156621201
855.9276622418947 4415.110755812219
856.8686845541379 4512.2453769906815
857.8094715079915 4476.165647405598
858.7500231736467 4600.801708602984
859.690339621271 4458.151293849898
860.6304209209939 4539.216000461973
861.5702671429244 4480.370959891938
862.5098783571284 4512.8123616996745
863.4492546336569 4503.6097709004425
864.3883960425155 4467.760929632824
865.3273026536863 4501.662150865316
866.2659745371238 4397.15609984873
867.2044117627465 4553.683352367299
868.1426144004472 4458.494471145795
869.0805825200823 4589.722118080729
870.0183161914847 4548.162919991826
870.9558154844526 4640.923556609569
871.8930804687552 4548.52019451909
872.8301112141307 4473.971410531652
873.7669077902865 4557.904908688694
874.7034702669062 4705.132440420972
875.6397987136315 4529.014973879838
876.5758932000863 4589.556228212146
877.5117537958522 4631.769626909549
878.4473805704911 4570.551686398592
879.3827735935283 4590.1158905426155
880.3179329344603 4680.70191956133
881.2528586627541 4756.232735589503
882.1875508478479 4764.784482003406
883.1220095591489 4776.786330007817
884.0562348660296 4628.986017178336
884.9902268378391 4707.133058711048
885.9239855438955 4659.236341648323
886.8575110534839 4585.886797271536
887.7908034358588 4664.266453021275
888.7238627602474 4603.048493123576
889.6566890958475 4657.468018624412
890.5892825118208 4500.558336366035
891.5216430773125 4558.201888727548
892.4537708614189 4514.324005282322
893.3856659332196 4544.629072490925
894.3173283617652 4477.645140992846
895.2487582160684 4549.915415044232
896.179955565116 4432.7386896402295
897.110920477864 4444.590314400061
898.0416530232451 4438.437352843314
898.9721532701478 4444.171091690157
899.9024212874428 4456.906943701086
900.8324571439662 4352.562152103803
901.7622609085302 4329.271327558689
902.6918326499072 4347.676716658175
903.6211724368477 4401.271366884149
904.5502803380696 4522.0663949311665
905.4791564222614 4418.81578451061
906.4078007580792 4349.951830866636
907.3362134141571 4339.737031678723
908.2643944590909 4435.383231339018
909.1923439614493 4361.1904145111075
910.1200619897754 4373.292178475724
911.0475486125779 4441.0843146985935
911.9748038983344 4402.141749154353
912.9018279155007 4305.2374361541315
913.8286207324982 4245.8093839198555
914.7551824177117 4338.844631066603
915.6815130395116 4308.799581708681
916.6076126662283 4285.25993519174
917.533481366163 4302.087876580251
918.4591192075914 4309.620596924024
919.3845262587565 4342.685932432874
920.3097025878706 4229.793489663696
921.2346482631237 4209.136087742164
922.1593633526682 4217.840924153365
923.0838479246304 4217.951525947999
924.0081020471061 4297.515525588115
924.9321257881656 4186.152469977898
925.8559192158464 4282.233917925254
926.7794823981512 4091.5629538298663
927.7028154030686 4132.535842159841
928.6259182985414 4195.3544494123025
929.5487911524906 4275.737301792501
930.4714340328119 4267.425587792664
931.3938470073608 4133.4070517840655
932.3160301439748 4140.797182724517
933.2379835104548 4162.328979831354
934.1597071745709 4179.970389073023
935.0812012040769 4198.0751401712305
936.002465666681 4269.969567362225
936.9235006300696 4193.8965605024105
937.8443061619055 4243.463767164989
938.7648823298077 4088.994567974012
939.6852292013809 4150.281380032932
940.6053468441951 4166.421909000915
941.5252353257874 4032.445400197539
942.4448947136698 4184.140346414652
943.364325075323 4149.470470479387
944.2835264782043 4144.24958078199
945.2024989897309 4111.87333216641
946.1212426773054 4152.210098081131
947.0397576082851 4170.168246247921
947.9580438500125 4231.79055343271
948.8761014697939 4143.672576700341
949.7939305349064 4208.740374621704
950.7115311125999 4096.339302073322
951.6289032700952 4079.8802401249113
952.5460470745875 4275.6000285759455
953.4629625932339 4091.623941653638
954.3796498931715 4216.092709379739
955.2961090415029 4194.746127179389
956.2123401053068 4157.936851431665
957.1283431516276 4099.03952062022
958.0441182474842 4109.4239211476115
958.9596654598663 4218.312639926731
959.8749848557309 4102.200690198841
960.7900765020167 4159.043698326283
961.7049404656209 4070.2357940863185
962.6195768134185 4155.841698712921
963.5339856122537 4152.88087901139
964.4481669289453 4208.195792444978
965.3621208302793 4173.69340399867
966.2758473830145 4101.241391843172
967.1893466538822 4179.065935378281
968.1026187095813 4137.9650012751135
969.0156636167867 4101.575063507642
969.9284814421426 4169.828381140993
970.8410722522622 4047.192730806124
971.753436113735 4161.112611905932
972.6655730931161 4104.633491597817
973.5774832569368 4136.7418004623005
974.4891666716958 4054.717103360822
975.4006234038698 4047.4220375625455
976.3118535198955 4033.161186107457
977.2228570861935 4138.977763521098
978.1336341691494 4139.182332034337
979.0441848351202 4011.8147802996477
979.9545091504333 4139.998989581232
980.864607181391 4070.758572706927
981.7744789942699 4091.3687372754075
982.6841246553086 4193.958125575577
983.5935442307236 4124.311695298423
984.5027377867027 4068.3083209599004
985.4117053894024 4104.914658799831
986.3204471049557 4032.2741927333286
987.2289629994648 4067.907468563151
988.1372531390007 4203.982436243207
989.0453175896091 4142.038127619691
989.9531564173067 4163.249352160106
990.860769688079 4086.877443950159
991.7681574678918 4106.900605731537
992.6753198226706 4156.508048552051
993.582256818323 4134.904559436249
994.4889685207218 4103.709319239501
995.3954549957143 4233.658894714602
996.301716309119 4222.442486728205
997.2077525267232 4170.178895008818
998.1135637142943 4122.769627004382
999.0191499375615 4265.257384570071
999.924511262232 4210.662486997223
1000.8296477539861 4252.612869640298
1001.7345594784656 4207.668529200897
1002.6392465012996 4153.056694815812
1003.5437088880753 4270.737499716533
1004.4479467043584 4191.191046824743
1005.3519600156869 4107.285252275944
1006.2557488875718 4178.549756935549
1007.1593133854858 4187.029909248277
1008.0626535748888 4121.318123091152
1008.9657695212009 4114.861889523769
1009.8686612898182 4214.901975041852
1010.7713289461135 4211.687190956879
1011.6737725554212 4200.945402203399
1012.5759921830577 4166.262642332642
1013.4779878943027 4150.46016302385
1014.379759754418 4196.5799537103685
1015.2813078286254 4176.4634344941915
1016.18263218213 4127.449447051748
1017.0837328801026 4065.5320482690067
1017.9846099876886 4097.253800754856
1018.8852635700023 4126.533001453749
1019.7856936921362 4002.3499079234853
1020.6859004191447 4107.021796640805
1021.5858838160675 3952.237565779245
1022.4856439479063 4009.1016993166822
1023.3851808796389 3920.1092488918475
1024.2844946762143 4066.4373374495576
1025.183585402554 3983.361043486748
1026.082453123554 3885.850771612513
1026.9810979040776 3996.363370589086
1027.8795198089647 3916.30687738854
1028.777718903024 4030.7463780237886
1029.6756952510368 3962.756611152421
1030.5734489177648 3983.780919299359
1031.4709799679313 3913.997612988919
1032.3682884662358 4108.970712045216
1033.2653744773506 3789.9497942437383
1034.1622380659192 3844.577404853614
1035.058879296559 3968.5190845034076
1035.9552982338591 4010.8830536401365
1036.8514949423825 3934.462710293004
1037.7474694866614 3965.7785173308876
1038.6432219312028 3857.469674391939
1039.5387523404825 4033.5309258313864
1040.4340607789582 3967.151997710686
1041.3291473110476 3940.871356194847
1042.2240120011465 3920.649806867664
1043.1186549136273 3972.9871371334025
1044.0130761128294 3895.4788595095138
1044.9072756630649 3924.959467186726
1045.8012536286205 3949.063019551692
1046.6950100737577 4050.2103536214745
1047.588545062701 4079.811931066245
1048.481858659663 3986.1096691371517
1049.3749509288118 4060.8825137268955
1050.2678219343034 3928.7322259813727
1051.1604717402515 3992.799058602196
1052.0529004107575 3905.0878770528616
1052.9451080098825 4054.285456488513
1053.8370946016694 3984.74724416938
1054.7288602501267 4038.0090971114587
1055.6204050192446 3973.149831929565
1056.511728972977 4008.9176062366982
1057.402832175254 3944.008434393105
1058.2937146899785 3962.469944752994
1059.1843765810263 4013.925899459303
1060.0748179122456 3967.2357319827524
1060.9650387474576 4024.6343778909404
1061.855039150456 3935.9710354818017
1062.7448191850071 4001.793812122106
1063.6343789148505 3950.824305228798
1064.5237184037014 4034.3715567668282
1065.412837715241 3932.786225396498
1066.3017369131267 3898.6615879324045
1067.190416060992 3934.390179860322
1068.0788752224398 3942.7779496510266
1068.9671144610438 3882.7795120993314
1069.8551338403558 3971.558572661994
1070.7429334239023 4027.845473760942
1071.6305132751695 3866.7119478558984
1072.517873457633 3925.6731027140327
1073.4050140347335 3932.8799594993025
1074.2919350698776 3921.6683360218667
1075.1786366264623 3839.9208443167918
1076.0651187678395 3895.4111418957154
1076.95138155735 3827.411677028652
1077.8374250582929 3821.2868614229533
1078.7232493339507 3836.659222792578
1079.608854447577 3817.5065204330554
1080.4942404623907 3789.109321866176
1081.3794074415982 3804.123579666829
1082.2643554483657 3914.515988107532
1083.149084545841 3858.430587900361
1084.033594797138 3772.6377963182204
1084.9178862653516 3754.028841606077
1085.8019590135427 3814.841631923778
1086.6858131047484 3635.9694597840485
1087.5694486019802 3846.452267638352
1088.4528655682225 3779.8053394757844
1089.3360640664287 3884.5449475126034
1090.2190441595321 3789.0046914498694
1091.1018059104317 3825.363434112261
1091.98434938201 3822.793176195257
1092.866674637111 3872.5821327104904
1093.748781738559 3779.0931910175277
1094.6306707491512 3756.1506458329713
1095.5123417316554 3827.6164594784705
1096.3937947488157 3772.283680520298
1097.2750298633455 3720.678977858885
1098.156047137938 3796.2225000456783
1099.0368466352556 3792.9972045427858
1099.9174284179317 3862.5303007389566
1100.7977925485757 3716.912424888141
1101.6779390897755 3726.775329569241
1102.5578681040806 3774.4665063088155
1103.4375796540226 3780.0240015418226
1104.3170738021054 3713.3782384764154
1105.1963506108077 3584.261197613266
1106.0754101425773 3575.072870537298
1106.9542524598382 3770.2279771362687
1107.8328776249855 3669.4621444211757
1108.7112857003904 3611.3573436271035
1109.5894767483987 3672.7249375121733
1110.4674508313292 3757.953468370202
1111.3452080114657 3746.494645900659
1112.2227483510815 3818.0538292710603
1113.1000719124077 3798.7852957105147
1113.9771787576592 3731.147766243488
1114.854068949022 3705.8893812799215
1115.7307425486542 3878.11700189478
1116.6071996186893 3765.1845844291165
1117.483440221229 3942.866811873931
1118.3594644183577 3795.6231657445765
1119.235272272128 3829.8167897567996
1120.1108638445658 3845.7777504217747
1120.9862391976712 3996.78177535677
1121.8613983934229 4006.487854886413
1122.7363414937627 3967.5414912709116
1123.6110685606182 3983.293872547106
1124.485579655884 4112.511841878939
1125.359874841426 4051.867129221863
1126.2339541790916 4088.2532309394455
1127.1078177306936 4215.831277103908
1127.9814655580267 4060.9608901338042
1128.854897722851 4159.479278228756
1129.7281142869106 4086.3639362675276
1130.6011153119125 4183.514428378012
1131.473900859548 4202.982167899321
1132.3464709914697 4178.099249121542
1133.2188257693178 4148.123958392851
1134.0909652546961 4024.42319455093
1134.96288950919 4008.8273584902163
1135.8345985943506 4118.322335934263
1136.7060925717087 3929.04185839367
1137.57737150277 3987.18977872298
1138.4484354490069 4001.189015404493
1139.3192844718778 3920.0154922694105
1140.1899186327992 3792.5103883725496
1141.060337993178 3923.9698506638465
1141.930542614382 3865.372734514509
1142.8005325577597 3768.0416966704456
1143.670307884635 3640.581848811287
1144.5398686563003 3721.4665457836804
1145.409214934025 3804.07232738908
1146.2783467790541 3637.8512385419017
1147.1472642526023 3702.0793525054323
1148.0159674158622 3780.6054814763493
1148.8844563300026 3699.0068693239373
1149.7527310561618 3560.801028212986
1150.6207916554504 3605.3337395519243
1151.4886381889592 3510.377700667853
1152.3562707177498 3624.3851768198
1153.2236893028585 3567.8565288853038
1154.090894005296 3461.8408243074673
1154.9578848860474 3515.197925738251
1155.8246620060709 3502.6752454447874
1156.6912254262988 3497.7505438611834
1157.5575752076438 3470.2815871190105
1158.42371141098 3569.634910027503
1159.2896340971656 3541.9050195184573
1160.1553433270346 3507.9109383600307
1161.0208391613887 3592.979372293246
1161.8861216610057 3468.5065415308954
1162.75119088664 3516.9705638583646
1163.6160468990201 3531.1223735230174
1164.4806897588442 3486.463618510421
1165.3451195267917 3575.001655062178
1166.2093362635114 3482.9537728349546
1167.0733400296285 3528.428136028089
1167.9371308857444 3413.34266293937
1168.8007088924278 3449.196226772033
1169.6640741102328 3525.810166584739
1170.5272265996773 3435.3350686481863
1171.390166421259 3345.857325494565
1172.252893635452 3491.5947522351807
1173.1154083026995 3568.9809422989756
1173.977710483421 3590.4764849496037
1174.8398002380145 3447.099288291207
1175.7016776268483 3552.9001427483963
1176.563342710264 3399.682545633067
1177.4247955485826 3486.886029836109
1178.2860362020947 3556.054842098878
1179.147064731069 3376.346102077151
1180.0078811957483 3514.891338896169
1180.8684856563486 3528.1771376078455
1181.7288781730604 3470.334047636622
1182.589058806052 3482.944668683244
1183.4490276154593 3670.5591033658834
1184.3087846614017 3430.4631579056995
1185.1683300039676 3549.7773476023967
1186.027663703222 3643.496752576345
1186.8867858192025 3565.215265525637
1187.7456964119228 3580.0508603891294
1188.6043955413716 3600.4343880839906
1189.4628832675116 3625.436097121902
1190.3211596502842 3657.2657779057836
1191.179224749596 3633.1026809208443
1192.0370786253388 3522.128282419456
1192.8947213373758 3777.5333350556457
1193.7521529455407 3784.07349350021
1194.6093735096438 3572.6843476605427
1195.466383089477 3646.4055680303077
1196.3231817447977 3604.8155062387495
1197.1797695353398 3751.363497429377
1198.0361465208189 3630.4781662814503
1198.8923127609214 3707.036522754507
1199.7482683153048 3711.9599248929308
1200.6040132436028 3846.042177277912
1201.459547605431 3681.9553570426506
1202.3148714603722 3744.443767319534
1203.1699848679855 3712.3546305652912
1204.0248878878065 3847.844858810159
1204.8795805793507 3546.963582386745
1205.7340630020935 3748.695947940131
1206.5883352155033 3754.3274177444355
1207.4423972790064 3737.527236501147
1208.2962492520237 3631.991734992931
1209.1498911939307 3652.2034213270076
1210.0033231640937 3649.988664713761
1210.8565452218427 3724.268794706832
1211.7095574264913 3421.858507494989
1212.5623598373222 3501.583296914476
1213.4149525135963 3457.912777048126
1214.2673355145507 3617.8802384457535
1215.1195088993936 3414.029686555812
1215.9714727273113 3447.532802897739
1216.8232270574663 3637.7459850701007
1217.6747719489904 3321.2349908388146
1218.5261074609934 3473.301898155788
1219.3772336525653 3595.3920808756607
1220.2281505827668 3563.0850819637576
1221.0788583106296 3513.0660354055117
1221.9293568951707 3486.8046055295804
1222.7796463953746 3337.132291618657
1223.629726870202 3424.8170238162324
1224.4795983785934 3421.1758033019805
1225.3292609794553 3422.407171144025
1226.1787147316809 3353.3868378446655
1227.0279596941327 3373.4814540669418
1227.8769959256424 3374.134444284608
1228.7258234850306 3440.6635837709655
1229.5744424310833 3291.064213432931
1230.422852822563 3374.6168055605945
1231.2710547182105 3471.5933886234816
1232.119048176739 3414.7240800315385
1232.9668332568417 3289.2158013897606
1233.8144100171812 3421.1913041508064
1234.6617785163999 3370.4975285551213
1235.508938813111 3222.9870010034747
1236.3558909659114 3262.1051294710664
1237.2026350333617 3394.780970479399
1238.049171074008 3404.403360777497
1238.8954991463652 3253.874482879446
1239.741619308932 3409.7497113789495
1240.587531620169 3447.6028084051054
1241.4332361385277 3484.6442742196327
1242.2787329224248 3299.8203268698358
1243.1240220302534 3278.2671934097125
1243.9691035203869 3246.6688412425983
1244.813977451171 3426.497815670027
1245.6586438809263 3381.1990107432493
1246.5031028679496 3181.6530332202638
1247.3473544705157 3387.425611305337
1248.1913987468706 3369.573500446733
1249.0352357552383 3185.224504227022
1249.8788655538228 3237.5715176226727
1250.7222882007918 3382.8983739058262
1251.565503754302 3309.810979674472
1252.4085122724755 3089.987970256646
1253.2513138134182 3438.453615184343
1254.0939084352049 3290.4362030273805
1254.9362961958905 3233.358564441199
1255.7784771535007 3301.5659086133905
1256.6204513660432 3330.2180109891865
1257.4622188915 3401.2549627685103
1258.3037797878242 3262.2446080726477
1259.1451341129468 3231.145347725996
1259.9862819247755 3281.954610714648
1260.8272232811978 3296.093580336441
1261.6679582400666 3424.1812063835664
1262.5084868592203 3255.6667597094265
1263.34880919647 3224.1709231165796
1264.1889253095997 3275.6452134161073
1265.0288352563712 3427.907254472102
1265.8685390945266 3258.7036981605916
1266.7080368817751 3360.73561646546
1267.5473286758115 3393.8240678209195
1268.386414534294 3390.1852493194465
1269.2252945148703 3090.404740293189
1270.0639686751547 3313.566632165731
1270.9024370727402 3216.120163558263
1271.7406997651997 3250.8501101921584
1272.5787568100714 3132.6436196315417
1273.4166082648808 3194.378700601969
1274.2542541871244 3231.6799340294897
1275.091694634275 3498.290284139527
1275.9289296637817 3139.204296788967
1276.7659593330663 3323.8126205172694
1277.6027836995308 3194.374131452724
1278.4394028205552 3379.5306658444197
1279.2758167534867 3295.11476560307
1280.112025555658 3214.8208918194373
1280.9480292843746 3236.241720938019
1281.7838279969128 3191.1253510722277
1282.6194217505326 3263.5768629451945
1283.4548106024686 3121.070394219323
1284.289994609926 3227.2171353278236
1285.1249738300921 3289.720697834922
1285.959748320127 3164.024735997198
1286.7943181371702 3275.540884785775
1287.6286833383328 3170.2246767215156
1288.4628439807038 3258.050535714468
1289.2968001213521 3256.389149259553
1290.1305518173194 3171.811955700811
1290.9640991256183 3249.0151133253257
1291.7974421032523 3168.0990411563207
1292.630580807183 3117.9660403105795
1293.463515294361 3250.8281783382713
1294.29624562171 3241.5115434065824
1295.12877184613 3157.7007663621403
1295.961094024493 3132.964638480282
1296.79321221365 3111.140166474527
1297.6251264704333 3247.532132840567
1298.4568368516466 3417.3340154216335
1299.2883434140658 3295.140852769518
1300.1196462144526 3175.7064826046676
1300.9507453095375 3274.485058026446
1301.7816407560313 3271.618177536123
1302.6123326106172 3382.6523746817898
1303.4428209299622 3180.7887333739436
1304.2731057707024 3400.57896116478
1305.1031871894502 3244.206873139349
1305.933065242798 3388.0361917847454
1306.7627399873181 3350.194019296722
1307.5922114795467 3552.7894674663635
1308.4214797760123 3468.841665789584
1309.2505449332057 3269.420827011155
1310.0794070076026 3330.3237102027792
1310.9080660556538 3366.141886775747
1311.736522133786 3498.849772720316
1312.5647752983987 3352.721818976655
1313.3928256058734 3167.0757238056294
1314.2206731125661 3331.95161042954
1315.048317874809 3345.4285108759927
1315.8757599489109 3314.578707087933
1316.7029993911547 3363.393118531419
1317.5300362578055 3422.4018031639316
1318.356870605101 3307.2501625559207
1319.183502489257 3291.0690129434356
1320.0099319664623 3319.451829295968
1320.836159092889 3378.3582840202753
1321.66218392468 3393.368343641011
1322.4880065179532 3274.093605721361
1323.3136269288134 3415.1486781298277
1324.1390452133292 3425.9393030775936
1324.9642614275563 3494.78123744162
1325.7892756275214 3273.0349402384604
1326.6140878692295 3259.259344939209
1327.4386982086617 3578.950858460583
1328.2631067017755 3415.619881422522
1329.0873134045069 3393.378945137297
1329.911318372764 3341.7734069582743
1330.735121662441 3220.3309096257435
1331.558723329399 3328.9833728401345
1332.3821234294774 3186.5988667124793
1333.2053220185007 3344.381345817795
1334.0283191522612 3264.3020453576437
1334.851114886529 3332.4720411902044
1335.6737092770582 3236.9349546298604
1336.4961023795695 3257.4891914666814
1337.3182942497697 3150.6311548696594
1338.1402849433325 3208.389761889754
1338.962074515921 3107.196071505693
1339.7836630231632 3116.212542916045
1340.6050505206676 3371.3159068927125
1341.426237064028 3373.9252363625624
1342.2472227088037 3204.0202018454183
1343.0680075105338 3106.2267428135115
1343.888591524741 3230.2223989950753
1344.7089748069138 3259.650570769509
1345.5291574125276 3297.4087031908116
1346.3491393970307 3101.343924574881
1347.168920815846 3236.583086966316
1347.9885017243778 3210.4818272702773
1348.8078821780036 3150.5206498709126
1349.6270622320844 3302.1165117136857
1350.4460419419447 3058.3070525194084
1351.2648213629054 3205.818209545832
1352.0834005502438 3082.4818690967986
1352.90177955923 3105.575466497778
1353.7199584451064 3204.965573736572
1354.5379372630887 3235.0984014451838
1355.355716068374 3092.3202530798453
1356.1732949161305 3048.8352720268886
1356.9906738615155 3145.732991616353
1357.8078529596478 3080.4141676971203
1358.6248322656375 3193.9911168847534
1359.441611834567 3095.1765891447876
1360.2581917214866 3207.036493800225
1361.0745719814367 3140.7579342496824
1361.890752669433 3127.015976690554
1362.7067338404577 3068.3803573210334
1363.5225155494845 3165.7708508941496
1364.3380978514506 3078.891414089972
1365.1534808012839 2922.498401031687
1365.9686644538815 2846.181891436555
1366.783648864117 3202.3535792651337
1367.5984340868417 3148.241634116134
1368.413020176893 3073.787776437456
1369.2274071890715 2937.527216745447
1370.0415951781652 3167.4955258159857
1370.8555841989346 3101.0184228503063
1371.6693743061223 2997.6268812823682
1372.48296555444 2897.2003017147954
1373.2963579985844 3102.261886204951
1374.1095516932255 3054.969872866614
1374.9225466930166 2901.5305606044044
1375.7353430525782 3071.725854200661
1376.5479408265164 2884.0208995782023
1377.36034006941 3058.1990430716437
1378.1725408358216 3009.2493447453785
1378.9845431802805 2851.7144915675553
1379.796347157304 3219.885030431228
1380.6079528213813 3102.96924704412
1381.4193602269788 2895.3867642806363
1382.230569428546 2857.4427707633995
1383.0415804805016 3016.2599822314505
1383.852393437246 3026.619941477044
1384.6630083531563 3001.0244715653275
1385.4734252825892 2923.265641405939
1386.2836442798798 3014.703315754767
1387.0936653993322 2984.1080039573126
1387.9034886952395 3051.8956445879044
1388.713114221864 3154.6779020316694
1389.5225420334482 2886.9224269748056
1390.331772184214 2924.4071548411184
1391.1408047283585 2806.0697722543837
1391.9496397200564 2917.8947750432135
1392.758277213461 3108.5619330241034
1393.5667172627054 3055.3270425773794
1394.3749599218918 2992.2693884665687
1395.1830052451114 2799.443798535797
1395.9908532864265 2916.1197156573144
1396.7985040998774 2997.7066462358225
1397.6059577394808 2873.2888258339544
1398.4132142592352 2949.5267018038476
1399.2202737131156 2871.6325504922725
1400.027136155073 3057.500155392977
1400.8338016390353 2905.695752826933
1401.6402702189134 2915.52138497547
1402.446541948586 2969.0622208851396
1403.2526168819204 2819.4313592146777
1404.058495072757 2847.498158437675
1404.8641765749107 2905.181120905798
1405.6696614421799 2954.372127086762
1406.4749497283356 3172.603472591938
1407.280041487129 2848.4326833689506
1408.084936772295 2748.503648202188
1408.8896356375335 3021.5942355936263
1409.6941381365323 3007.397199384075
1410.498444322955 2811.394981474332
1411.3025542504402 2962.535559824475
1412.106467972606 2898.4425552340317
1412.9101855430508 2934.236258561318
1413.7137070153458 2735.4485869272226
1414.5170324430437 2869.145553035248
1415.320161879672 3030.05471631343
1416.1230953787435 3073.765418183291
1416.925832993742 2816.162294814941
1417.7283747781275 2686.652612063375
1418.5307207853439 2874.672958623536
1419.3328710688093 2877.098189637953
1420.134825681922 2699.6216628039465
1420.9365846780584 2762.4602005165484
1421.7381481105713 2957.5885027778077
1422.539516032788 2836.215275354162
1423.3406884980232 2781.990567755039
1424.1416655595604 2738.872288357353
1424.942447270665 2854.4710925329537
1425.7430336845828 2966.9628581192765
1426.5434248545298 2687.1254238483966
1427.3436208337116 2914.1468125081938
1428.143621675301 2864.0676909787794
1428.9434274324558 2954.4452278878643
1429.7430381583108 2685.033356393798
1430.5424539059713 2773.746821774258
1431.3416747285337 3074.521308951704
1432.1407006790632 2869.708011126644
1432.9395318106053 2863.7955624451906
1433.7381681761835 2755.2449891156202
1434.5366098288014 2882.8375705102535
1435.3348568214424 2853.5612747966134
1436.1329092070573 2799.255071557219
1436.9307670385879 2879.4868897367983
1437.7284303689503 3019.9025340501994
1438.5258992510335 2888.4283720988005
1439.3231737377118 2918.5643503861183
1440.1202538818306 2854.5448403132827
1440.9171397362225 2708.5974493107324
1441.7138313536925 2749.205426647475
1442.5103287870243 2727.2490442545554
1443.3066320889775 2675.566606863979
1444.1027413122956 2933.429362209896
1444.8986565096966 2743.2945856088354
1445.694377733882 2790.850595594503
1446.4899050375207 2691.04688844425
1447.2852384732687 2845.651999263354
1448.0803780937622 2791.3567058414383
1448.8753239516063 2680.5080894462585
1449.6700760993954 2524.496717702794
1450.464634589689 2710.6904770144106
1451.2589994750397 2940.8938974613484
1452.0531708079689 2551.598942516427
1452.8471486409799 2610.579862999825
1453.6409330265524 2835.323905611739
1454.4345240171442 2629.3239543890572
1455.2279216651987 2599.3735124283803
1456.0211260231263 2646.3496548364537
1456.8141371433194 3013.6272175530717
1457.6069550781594 2762.619204988828
1458.3995798799897 2577.3839284967457
1459.1920116011424 2577.014830456626
1459.98425029393 2571.9965888331903
1460.7762960106338 2574.4954339522506
1461.5681488035225 2643.2599630444956
1462.3598087248392 2645.125594779976
1463.1512758268036 2758.7710943329807
1463.942550161617 2472.1295289112145
1464.7336317814625 2664.4917649933873
1465.524520738496 2742.725227047629
1466.3152170848552 2565.2771134374093
1467.1057208726506 2564.649136068268
1467.8960321539817 2549.943052409068
1468.6861509809169 2569.6500286159007
1469.4760774055085 2539.4938288049125
1470.265811479785 2516.7817773246343
1471.055353255755 2421.8477956080874
1471.844702785409 2495.6136172380875
1472.6338601207044 2478.5275982849917
1473.4228253135934 2550.1108005511032
1474.2115984159936 2480.4105473740315
1475.0001794798063 2396.1156986645537
1475.7885685569145 2491.7659280643957
1476.576765699172 2493.5435401812133
1477.3647709584238 2540.703890570751
1478.1525843864802 2588.4860335738945
1478.9402060351367 2557.2326045676896
1479.7276359561693 2616.638420567725
1480.514874201328 2458.1671206647143
1481.3019208223468 2436.41021971216
1482.0887758709323 2325.9406444569463
1482.8754393987747 2551.688005303439
1483.6619114575406 2349.4956383185545
1484.4481920988783 2452.4823502544614
1485.2342813744108 2442.5714130947426
1486.0201793357446 2551.794137914019
1486.8058860344572 2433.6084656458524
1487.591401522117 2527.681571147363
1488.3767258502594 2453.963848415479
1489.1618590704056 2431.2522679567337
1489.9468012340494 2286.0991374744185
1490.7315523926754 2522.535592919937
1491.5161125977356 2583.6972328442107
1492.3004819006637 2517.452540451136
1493.084660352877 2375.9936752155268
1493.8686480057622 2544.943665371789
1494.6524449106964 2654.4066312235277
1495.4360511190262 2569.389521286829
1496.219466682087 2569.082980236698
1497.0026916511779 2518.572787356286
1497.7857260775945 2595.958427318578
1498.5685700125996 2568.729729882487
1499.3512235074395 2342.740350825551
1500.133686613337 2360.2827189046825
1500.9159593814966 2394.0728019943854
1501.698041863101 2663.0582499675393
1502.4799341093094 2357.0147306505996
1503.2616361712662 2329.313728698118
1504.043148100087 2460.9944429129596
1504.8244699468742 2518.4466656131294
1505.6056017626997 2346.7611421886013
1506.3865435986281 2296.0212924825437
1507.1672955056893 2410.5862853386593
1507.9478575348967 2326.7497145438683
1508.7282297372512 2566.785751788161
1509.5084121637192 2460.4628914787145
1510.2884048652577 2336.219837679242
1511.0682078927948 2405.5391914000666
1511.8478212972423 2349.720822234006
1512.6272451294917 2367.622536741885
1513.4064794404076 2449.077079071371
1514.1855242808433 2510.350622657653
1514.9643797016215 2389.753554396745
1515.743045753552 2514.7496897777373
1516.5215224874191 2399.552768343756
1517.2998099539836 2327.588935442841
1518.077908203999 2430.5219754214495
1518.8558172881785 2368.6025950042367
1519.633537257234 2454.351772255125
1520.4110681618404 2379.858077344927
1521.1884100526604 2450.099377481469
1521.9655629803365 2391.5271740982744
1522.7425269954856 2477.840384921273
1523.5193021487103 2600.9907443099755
1524.2958884905856 2284.391666287036
1525.0722860716687 2418.5222331226955
1525.848494942502 2342.970859303122
1526.624515153595 2394.3658966861244
1527.4003467554485 2408.3290939952267
1528.175989798534 2520.057710914396
1528.9514443333064 2401.8049050510476
1529.726710410203 2520.4019838180366
1530.5017880796331 2356.963199427719
1531.276677391992 2379.445369877531
1532.0513783976457 2516.034453669197
1532.825891146953 2404.589999930097
1533.6002156902414 2564.096113088254
1534.3743520778207 2370.9022629471096
1535.1483003599806 2471.2001346676143
1535.9220605869923 2457.2218502822893
1536.6956328091019 2448.90539613904
1537.4690170765407 2373.1934259295417
1538.242213439511 2395.473022160692
1539.015221948208 2445.1988057076087
1539.78804265279 2416.8184060646786
1540.560675603405 2262.834404263629
1541.3331208501804 2478.6376356975297
1542.1053784432224 2596.281591724133
1542.8774484326168 2463.529954981862
1543.649330868422 2539.3255279193463
1544.4210258006842 2476.7123600585346
1545.1925332794308 2415.9517109607314
1545.9638533546604 2490.163616832687
1546.7349860763552 2394.6353319919517
1547.5059314944829 2615.7218966312616
1548.27668965898 2476.630422278909
1549.0472606197673 2517.2569073138725
1549.817644426752 2395.460389863267
1550.5878411298072 2540.332788286344
1551.3578507787988 2498.0768753413404
1552.1276734235635 2398.4537733192674
1552.8973091139233 2423.974209080554
1553.6667578996767 2557.9778912036554
1554.436019830604 2453.0734246027673
1555.20509495646 2404.764219007363
1555.9739833269869 2355.6301182837487
1556.7426849919011 2339.162966056303
1557.511200000903 2511.1472653569936
1558.2795284036674 2529.2691303377183
1559.0476702498509 2442.722241242302
1559.8156255890954 2583.7618736635272
1560.5833944710157 2709.200792873408
1561.3509769452048 2366.264019351651
1562.1183730612447 2462.8767181608087
1562.8855828686865 2321.294191718143
1563.6526064170703 2651.5179905349883
1564.4194437559127 2544.613711005791
1565.1860949347047 2351.4121492972845
1565.9525600029283 2621.608197699181
1566.7188390100328 2717.7233455229643
1567.4849320054564 2413.8065731353963
1568.250839038612 2330.853703815098
1569.0165601588997 2392.5401174624612
1569.7820954156887 2597.3091065596773
1570.5474448583373 2404.009463992211
1571.31260853618 2393.5346019184617
1572.0775864985299 2323.8408630102376
1572.8423787946813 2525.731568707405
1573.6069854739108 2344.7350699942267
1574.371406585471 2529.2109653016532
1575.1356421785986 2529.6864776741413
1575.899692302506 2395.4105327610096
1576.6635570063845 2507.5378638208904
1577.4272363394157 2512.6507415515853
1578.190730350747 2392.116159586615
1578.9540390895163 2538.1892749871495
1579.7171626048384 2272.966331843166
1580.480100945806 2519.896717248616
1581.2428541614918 2284.165892990491
1582.0054223009538 2371.8711064767767
1582.767805413223 2365.4045556491233
1583.5300035473156 2414.204981707152
1584.292016752228 2564.87188982514
1585.0538450769309 2500.3403695355455
1585.8154885703807 2344.6881125096997
1586.5769472815136 2292.34814219993
1587.3382212592405 2507.3998519585894
1588.099310552463 2584.390073238316
1588.8602152100484 2292.7083580080925
1589.6209352808564 2497.772887166758
1590.3814708137234 2306.8875911285204
1591.14182185746 2551.6995225416786
1591.9019884608679 2350.7064650338566
1592.6619706727215 2244.241192350453
1593.4217685417734 2475.593745406181
1594.1813821167616 2555.5850462912395
1594.9408114464022 2265.594413807583
1595.7000565793933 2351.4623985094395
1596.459117564409 2376.6799975357285
1597.2179944501113 2277.051680250441
1597.9766872851324 2344.673562976007
1598.735196118092 2434.986408297368
1599.4935209975883 2432.848504446241
1600.2516619721973 2494.472733837747
1601.0096190904787 2357.3066933923283
1601.7673924009723 2370.00415381346
1602.524981952196 2313.6016305963376
1603.2823877926476 2344.1516988574253
1604.0396099708087 2234.8510570212025
1604.7966485351371 2151.9020670425552
1605.5535035340745 2323.3501549752077
1606.3101750160404 2448.2438397711367
1607.0666630294363 2230.1900573189346
1607.822967622642 2187.442323464491
1608.5790888440224 2232.77582135058
1609.3350267419137 2342.9055531082986
1610.0907813646445 2267.743360022771
1610.8463527605145 2303.446634856733
1611.601740977805 2360.485242007593
1612.356946064785 2379.3227845250863
1613.1119680696902 2136.956103915209
1613.8668070407512 2336.6397812259397
1614.6214630261748 2172.5716437866395
1615.375936074137 2424.073874562221
1616.1302262328118 2322.274094042311
1616.8843335503425 2381.351457563871
1617.638258074854 2128.337857786326
1618.391999854457 2328.216286387962
1619.1455589372363 2434.2252702781925
1619.8989353712623 2396.021732270415
1620.65212920458 2093.978446454682
1621.4051404852235 2257.111240990268
1622.1579692611976 2341.3928218980736
1622.9106155804966 2253.771261699846
1623.663079491087 2228.9071482271593
1624.4153610409248 2419.981455309212
1625.1674602779385 2169.313691133152
1625.9193772500403 2255.9926478466696
1626.6711120051277 2374.426339870072
1627.4226645910676 2292.347714174501
1628.174035055721 2154.3084619756987
1628.9252234469168 2390.777490297699
1629.676229812474 2223.1246849681193
1630.4270542001905 2389.1697944161424
1631.1776966578382 2236.3523965077798
1631.9281572331747 2273.0503425757306
1632.678435973945 2420.7662045538054
1633.4285329278573 2383.74240350085
1634.1784481426203 2145.867873238528
1634.9281816659113 2208.807370131327
1635.677733545388 2427.2950706528045
1636.4271038286934 2254.4061937402653
1637.176292563452 2372.229555340449
1637.9252997972635 2419.2695321517413
1638.674125577716 2410.4428760446904
1639.4227699523672 2621.567316640553
1640.171232968767 2174.5586987246465
1640.9195146744423 2300.966433374682
1641.6676151168977 2491.4679463757648
1642.4155343436178 2418.221843096552
1643.1632724020765 2381.0948762887506
1643.9108293397167 2431.7842008079565
1644.658205203974 2350.6668990875687
1645.4054000422566 2320.9069289839417
1646.1524139019566 2290.923778352189
1646.8992468304423 2315.2915796645775
1647.6458988750728 2240.2458140068047
1648.3923700831765 2426.201912024484
1649.1386605020743 2374.811075068989
1649.8847701790564 2498.4311255050457
1650.6306991614038 2452.2860785950593
1651.3764474963682 2440.9102038875676
1652.1220152311944 2198.354086272795
1652.867402413096 2557.312205124306
1653.6126090892776 2303.585845748568
1654.3576353069184 2648.875996423012
1655.1024811131829 2437.298542781304
1655.8471465552066 2346.486771817136
1656.5916316801213 2560.0555340821793
1657.3359365350298 2478.5245075397715
1658.0800611670165 2308.3030264561803
1658.824005623148 2388.830194346947
1659.5677699504722 2235.1540106261223
1660.3113541960192 2383.288094704335
1661.054758406799 2394.241027107647
1661.7979826297997 2285.670142181882
1662.5410269119966 2259.783853379512
1663.283891300338 2364.090171289763
1664.0265758417645 2270.261059464897
1664.7690805831826 2394.3467470670093
1665.5114055714948 2333.9997146529504
1666.2535508535748 2606.0527485523344
1666.9955164762814 2125.9959777134623
1667.7373024864555 2375.3012173985817
1668.478908930916 2426.110709941289
1669.220335856462 2270.869619971726
1669.9615833098778 2312.8618800312597
1670.7026513379296 2125.172383206407
1671.44353998736 2302.281159992226
1672.1842493048916 2107.3270600932346
1672.9247793372379 2155.219887141943
1673.6651301310812 2302.513538154602
1674.4053017330934 2200.4383602185853
1675.1452941899242 2281.2396725970493
1675.885107548207 1897.3552444338522
1676.6247418545518 1979.51318404417
1677.3641971555535 2140.6135873188928
1678.1034734977893 2275.343363762945
1678.8425709278108 2211.9700283374323
1679.5814894921605 2241.026743303766
1680.320229237359 2124.7209213853957
1681.0587902098978 2280.1517399383365
1681.7971724562685 2162.0886925808322
1682.5353760229264 1999.8752488852035
1683.2734009563173 2208.7438512853323
1684.0112473028657 1998.737725349598
1684.7489151089794 2049.822327039391
1685.4864044210462 2240.4409431773156
1686.2237152854377 1887.1137949706215
1686.960847748498 2167.7964094582712
1687.6978018565642 1960.3372310648033
1688.434577655944 2044.650549597686
1689.1711751929379 1930.4568722878746
1689.9075945138156 2216.8178780889907
1690.6438356648396 2020.4876852352431
1691.3798986922448 1749.565893867163
1692.1157836422499 2057.500553217761
1692.851490561059 1938.9154467463918
1693.587019494853 1954.86183258024
1694.3223704897991 1746.01505164563
1695.0575435920364 1855.7492722037957
1695.792538847696 2168.510575147545
1696.527356302886 1954.7708475743161
1697.2619960036936 1810.2409596210382
1697.9964579961907 1842.567845992872
1698.730742326432 1675.2249961922776
1699.4648490404488 1737.6069530773525
1700.1987781842563 1781.0489929840132
1700.9325298038548 1889.0719314147627
1701.6661039452174 1976.7255096014155
1702.3995006543082 1990.4399824356074
1703.1327199770658 2019.6718178743672
1703.865761959416 1850.6503594774927
1704.598626647261 1971.2003843044
1705.3313140864866 1808.7061073723494
1706.0638243229587 1741.760413542607
1706.7961574025303 1904.0104967133507
1707.528313371029 1815.645743039281
1708.260292274268 1684.9649275629295
1708.9920941580403 1724.690571612738
1709.7237190681226 1841.2639651910147
1710.4551670502697 1855.7391681984693
1711.18643815022 1625.786222416172
1711.9175324136959 2017.8821275072228
1712.6484498863938 1843.3668225169356
1713.379190614005 1607.1693416098647
1714.109754642188 1863.661476235896
1714.8401420165883 1769.2963605629313
1715.570352782839 1818.3970325635576
1716.3003869865497 1867.6580620492707
1717.0302446733076 1705.49613103097
1717.7599258886876 1775.6297873319018
1718.4894306782444 2107.772245094297
1719.2187590875183 2045.7382738032702
1719.9479111620203 1983.568878682036
1720.6768869472544 1729.3923997737852
1721.4056864887025 1891.111410579421
1722.1343098318284 2002.9122659328482
1722.8627570220742 1949.900392209022
1723.591028104871 1697.8364529841915
1724.3191231256242 1696.2400217377894
1725.0470421297232 1690.0322077810324
1725.7747851625427 1856.7563260020768
1726.5023522694337 1906.0952019926353
1727.2297434957363 1788.1166386460668
1727.9569588867635 1498.836176016126
1728.6839984878152 1482.9926805915206
1729.4108623441734 1467.1993790392467
1730.1375505011038 1796.5518449331205
1730.8640630038426 1704.250101581222
1731.5903998976264 1584.0555814478937
1732.316561227657 1771.1873364896146
1733.0425470391274 1642.0962679399902
1733.7683573772065 1729.0509565947148
1734.4939922870508 1655.9249665016087
1735.2194518137949 1829.0178998233907
1735.9447360025606 1750.3594715905783
1736.669844898439 1738.480665513133
1737.3947785465189 1567.7334214127907
1738.1195369918605 1581.3455346033052
1738.8441202795093 1743.1289179502467
1739.5685284544943 1804.8254036364408
1740.292761561821 1789.1910435154218
1741.0168196464838 1742.8160921743972
1741.7407027534518 1903.2551840281787
1742.464410927687 1731.1132304948665
1743.187944214118 1722.2357892787174
1743.9113026576688 1685.0296977024122
1744.634486303241 1722.4121096638814
1745.3574951957125 1706.1434173700284
1746.0803293799509 1873.9162111926478
1746.8029889008048 1737.01090450886
1747.5254738031017 1747.9734963680662
1748.2477841316504 1596.8772870573557
1748.969919931249 1732.1652748738754
1749.6918812466665 1634.8933690349802
1750.4136681226646 1794.494292221875
1751.1352806039777 1686.267356879108
1751.856718735331 1560.0210431120886
1752.5779825614281 1494.1468827410056
1753.2990721269507 1815.4286212738148
1754.0199874765676 1693.7156080382622
1754.7407286549314 1669.1189106701793
1755.4612957066693 1641.2571933469808
1756.1816886763954 1627.248678426452
1756.9019076087097 1772.4849101613534
1757.6219525481865 1742.526859332227
1758.3418235393856 1717.8011481416208
1759.061520626854 1730.4820667557938
1759.7810438551096 1793.9891797982987
1760.5003932686614 1569.0382872274442
1761.2195689119999 1791.688559498117
1761.938570829594 1727.4416730357566
1762.657399065898 1715.8287984936483
1763.376053665348 1529.9307420057917
1764.0945346723602 1519.9931071699616
1764.812842131334 1499.535940246396
1765.5309760866512 1479.148063845142
1766.2489365826787 1564.8068700090257
1766.9667236637597 1600.215894028837
1767.684337374223 1467.5786317714642
1768.401777758383 1431.1613077467684
1769.1190448605284 1629.7303583425833
1769.836138724937 1557.8684149182773
1770.5530593958665 1657.9724468279842
1771.2698069175603 1725.7526844022163
1771.9863813342326 1717.3495018520505
1772.702782690094 1576.7600235332004
1773.4190110293293 1789.416727283776
1774.1350663961111 1769.5389154549011
1774.8509488345844 1591.487455147018
1775.5666583888924 1650.1834095290699
1776.2821951031437 1850.3130038460336
1776.9975590214362 1665.2715933848388
1777.7127501878585 1733.645339937572
1778.4277686464684 1746.9277862836702
1779.1426144413108 1773.9568296877308
1779.8572876164162 1737.7793049121453
1780.571788215797 1533.8600757432387
1781.2861162834415 1745.080418418534
1782.0002718633277 1606.0505991050477
1782.7142549994132 1812.1595851527993
1783.4280657356376 1693.000717393757
1784.141704115922 1627.5638747602839
1784.855170184177 1629.7152879820562
1785.5684639842839 1650.3454185201638
1786.2815855601148 1417.8664666681366
1786.9945349555237 1711.7754638571678
1787.707312214343 1591.6009578018554
1788.4199173803918 1538.2016922861512
1789.132350497468 1484.844147352192
1789.8446116093583 1642.2119259812073
1790.556700759822 1621.209981236856
1791.2686179926077 1539.2012202564017
1791.9803633514493 1650.0987133377362
1792.6919368800554 1541.850286753755
1793.4033386221236 1678.256049798285
1794.1145686213295 1800.205888217354
1794.8256269213307 1787.386566240163
1795.536513565774 1726.1971177186522
1796.247228598284 1423.0081609659796
1796.9577720624693 1525.436482879992
1797.6681440019165 1670.7769231376642
1798.3783444602013 1620.6306822954857
1799.0883734808776 1644.4047315429511
1799.7982311074884 1589.0346404670659
1800.5079173835475 1693.4462519000615
1801.2174323525633 1740.9781004468023
1801.9267760580187 1519.2547696520553
1802.635948543386 1765.7220768894254
1803.3449498521113 1487.3489000576992
1804.0537800276325 1697.615653026181
1804.7624391133668 1657.2646840742643
1805.47092715271 1458.6416050378723
1806.1792441890484 1520.93972955301
1806.8873902657433 1724.390264167247
1807.5953654261448 1654.2105578161513
1808.3031697135812 1647.092797760032
1809.0108031713662 1529.3890482963293
1809.71826584279 1648.5870639238026
1810.425557771141 1582.2411265416065
1811.1326789996747 1743.9648809912069
1811.839629571632 1529.0621121530717
1812.5464095302468 1579.8539377302407
1813.2530189187182 1601.426759398793
1813.959457780249 1522.8216278620177
1814.6657261580076 1560.1882531982594
1815.371824095153 1553.324692978411
1816.0777516348262 1681.029340950135
1816.78350882015 1326.497831091869
1817.4890956942272 1481.9175573310717
1818.1945123001533 1579.7992583285886
1818.8997586809928 1590.729415916244
1819.6048348798067 1518.7284044545363
1820.3097409396287 1558.1154636419317
1821.0144769034796 1693.10432667149
1821.7190428143622 1477.3810699206672
1822.423438715261 1697.0662454344165
1823.1276646491478 1533.894026449135
1823.8317206589727 1568.7803516614022
1824.5356067876692 1670.0018455408695
1825.2393230781581 1473.7323185761759
1825.942869573335 1386.6293578943473
1826.646246316086 1540.785388912268
1827.3494533492758 1534.4013453273308
1828.052490715756 1660.9416418744051
1828.7553584583547 1577.2445886069224
1829.458056619891 1638.303736472413
1830.1605852431585 1549.6051890754827
1830.8629443709433 1485.3348858993493
1831.5651340460063 1523.8786322618685
1832.2671543110919 1361.0731095055291
1832.9690052089318 1651.9445596757469
1833.6706867822395 1335.6403747629406
1834.3721990737104 1649.9153171472299
1835.0735421260233 1575.2330833598253
1835.774715981841 1542.144069201018
1836.4757206838058 1665.1994063592126
1837.1765562745459 1548.9305440629728
1837.8772227966747 1449.7330435620738
1838.5777202927839 1495.3625377781545
1839.2780488054523 1452.7639838467735
1839.9782083772352 1518.8684189425778
1840.6781990506806 1625.6751130527464
1841.378020868313 1439.5237022298152
1842.0776738726418 1644.3679013481094
1842.777158106157 1497.972653699278
1843.4764736113375 1453.364027663762
1844.1756204306403 1629.5593097286533
1844.8745986065078 1550.652126083482
1845.5734081813607 1351.5384782550905
1846.2720491976124 1455.8781493417569
1846.970521697649 1354.6618435501582
1847.6688257238511 1625.9748556539737
1848.3669613185684 1492.4109389279297
1849.0649285241452 1298.6407402741656
1849.7627273829057 1543.3658713536445
1850.460357937156 1548.3281017023787
1851.1578202291857 1266.7113853437017
1851.8551143012664 1470.3616452167666
1852.5522401956569 1469.3218670898073
1853.2491979545957 1656.295131599932
1853.9459876203055 1372.5404719672017
1854.6426092349902 1370.5698433137927
1855.3390628408451 1462.7568079744754
1856.0353484800362 1596.613114565897
1856.7314661947203 1546.8632103640962
1857.4274160270397 1357.1087816139666
1858.123198019115 1541.5091952043488
1858.8188122130487 1396.473970761988
1859.5142586509319 1396.705638153229
1860.209537374838 1481.8719164579163
1860.9046484268183 1512.503792056132
1861.599591848917 1554.448565848271
1862.294367683151 1396.6252716736471
1862.988975971528 1348.9555944012686
1863.6834167560355 1476.0717925389251
1864.3776900786452 1571.1441157567783
1865.0717959813119 1511.2694838524699
1865.7657345059724 1388.554047946503
1866.4595056945564 1492.546672986259
1867.1531095889586 1437.8275079310854
1867.846546231076 1371.7108916858128
1868.5398156627743 1656.2612689094706
1869.2329179259123 1657.2501561921047
1869.9258530623283 1658.2394494848093
1870.618621113843 1396.5655788741328
1871.3112221222636 1372.2480405633596
1872.0036561293764 1409.32910564724
1872.695923176956 1411.276358992232
1873.3880233067594 1563.6267643876643
1874.0799565605212 1363.2208590249459
1874.7717229799673 1423.2936305948624
1875.4633226068036 1518.752983525957
1876.1547554827175 1600.2763427540908
1876.8460216493859 1418.7819223660108
1877.5371211484617 1490.6424878096545
1878.2280540215852 1645.7524305982315
1878.9188203103804 1429.2939937562828
1879.6094200564548 1473.8230677026183
1880.299853301396 1313.5978763691571
1880.9901200867826 1421.9522034933375
1881.6802204541673 1530.453645263808
1882.3701544450942 1474.7042418706956
1883.059922101087 1313.0348206169306
1883.7495234636517 1295.26761447104
1884.4389585742792 1277.4541531799039
1885.1282274744517 1362.9603933079754
1885.8173302056166 1434.3069301342512
1886.506266809225 1505.7509255073096
1887.195037326701 1288.0295489877478
1887.8836417994517 1343.4297331049074
1888.5720802688702 1660.0186461526532
1889.260352776333 1535.9886474115126
1889.9484593632042 1523.7397153649108
1890.63640007082 1307.1779352495557
1891.3241749405151 1265.1875089627888
1892.0117840135954 1517.5723320545105
1892.6992273313572 1592.5060733355065
1893.3865049350788 1305.2028927334184
1894.0736168660223 1632.9062697727406
1894.7605631654333 1508.0905160956486
1895.4473438745408 1310.0183075738532
1896.133959034556 1569.7222305463754
1896.820408686679 1439.860289667445
1897.506692872088 1531.9084726926435
1898.192811631945 1364.749571632428
1898.8787650073991 1399.899183247622
1899.5645530395832 1648.604137121957
1900.2501757696118 1451.4896940982503
1900.9356332385796 1313.075265776343
1901.620925487574 1664.9895800411691
1902.3060525576602 1562.1440374861681
1902.9910144898859 1473.7472991015209
1903.6758113252872 1412.5360064694148
1904.3604431048789 1540.5687705031426
1905.0449098696663 1581.445885231762
1905.7292116606295 1407.1498622363738
1906.4133485187394 1496.372527533537
1907.0973204849488 1141.4716238804526
1907.7811276001976 1330.3002350397323
1908.4647699053967 1461.766024649353
1909.1482474414588 1344.0093969290401
1909.8315602492694 1225.9583135520415
1910.5147083696957 1505.4219314862573
1911.1976918436012 1502.086547350012
1911.880510711815 1410.330388922076
1912.5631650151681 1481.3719573299873
1913.2456547944657 1356.1855838851357
1913.927980090495 1355.2996515792922
1914.6101409440362 1484.5371607980028
1915.2921373958416 1470.8272026489387
1915.9739694866603 1478.3782830231385
1916.655637257214 1617.299859919193
1917.3371407482136 1535.223495000247
1918.0184800003572 1657.7219494527435
1918.6996550543154 1612.5778353776093
1919.3806659507554 1404.0426285921542
1920.0615127303208 1365.9460641860924
1920.7421954336423 1493.048217760575
1921.4227141013343 1519.879053197806
1922.103068773993 1549.5023438712224
1922.783259492202 1634.0603402615477
1923.4632862965227 1384.6265009849737
1924.1431492275078 1393.8741912732705
1924.8228483256917 1319.3285825961257
1925.5023836315922 1386.5062141341457
1926.1817551857057 1491.1750318291329
1926.8609630285227 1596.0691585947802
1927.5400072005123 1500.1965845224945
1928.218887742125 1291.9428008369473
1928.8976046938005 1363.445008281694
1929.5761580959588 1522.3836186717856
1930.2545479890086 1423.6276988019545
1930.9327744133352 1285.248827203879
1931.6108374093164 1392.1477269983777
1932.2887370173066 1298.6560414456164
1932.9664732776473 1204.9140724441202
1933.6440462306673 1376.220013413352
1934.3214559166754 1349.3639634047795
1934.9987023759659 1600.5843847086237
1935.675785648813 1441.232644371104
1936.3527057754836 1522.851114285016
1937.029462796223 1604.6569706789528
1937.70605675126 1382.1446708628728
1938.3824876808085 1230.5236822399252
1939.058755625072 1307.1414606901014
1939.7348606242267 1412.555708150836
1940.4108027184448 1441.8641267623402
1941.0865819478713 1489.3941641010447
1941.7621983526478 1451.8805672687367
1942.4376519728921 1277.3051666259323
1943.1129428487038 1436.949447625925
1943.7880710201734 1432.7732828986632
1944.4630365273733 1554.429102655891
1945.1378394103576 1291.5165483890273
1945.8124797091714 1236.490014217828
1946.4869574638324 1181.3109881339362
1947.161272714353 1285.6580123906617
1947.8354255007234 1488.6639356933088
1948.5094158629272 1304.4398836987575
1949.1832438409183 1447.817430581403
1949.8569094746435 1517.8608707157034
1950.530412804037 1609.3461339536427
1951.2037538690092 1567.1320327181438
1951.8769327094578 1378.2254542298194
1952.5499493652678 1366.7704517153115
1953.222803876306 1468.0442346251575
1953.895496282421 1419.5373324202972
1954.5680266234522 1356.275139827013
1955.2403949392155 1489.7261727037169
1955.9126012695142 1184.4766209734867
1956.5846456541403 1382.3389531062608
1957.2565281328643 1343.2001870538538
1957.9282487454457 1464.2947474692323
1958.5998075316202 1435.039242623635
1959.27120453112 1320.6665489847896
1959.9424397836501 1316.8204858136767
1960.613513328908 1479.6051962861638
1961.2844252065697 1436.65154441475
1961.9551754563017 1250.2666209496883
1962.6257641177453 1284.5828759764393
1963.29619123054 1252.0377390568224
1963.966456834296 1402.348648386986
1964.6365609686181 1238.8119615134015
1965.306503673086 1531.0097051985285
1965.976284987275 1328.8485435950947
1966.645904950734 1333.4648659169925
1967.315363603002 1151.6287246449806
1967.9846609836077 1416.5596753223601
1968.6537971320486 1288.7714783208303
1969.3227720878222 1424.4777043898587
1969.9915858904042 1389.3681386586284
1970.660238579252 1441.212343228405
1971.3287301938108 1365.6727322966935
1971.997060773514 1405.9029429628215
1972.665230357772 1188.0764098739746
1973.3332389859843 1279.057659812325
1974.0010866975335 1242.4447335546113
1974.6687735317864 1358.5902705585418
1975.3362995280932 1481.8868028041359
1976.003664725793 1365.8635422851335
1976.6708691642052 1144.1573412483942
1977.3379128826364 1270.309574882307
1978.004795920373 1555.8470396826647
1978.6715183166925 1473.0539040688263
1979.3380801108524 1359.7593307322427
1980.0044813420973 1246.3708231724354
1980.6707220496555 1064.5450331971372
1981.3368022727373 1381.9386603409948
1982.0027220505417 1388.064759223635
1982.66848142225 1071.150592533671
1983.3340804270283 1201.3654788332296
1983.999519104027 1245.6715547234596
1984.6647974923835 1265.999554315966
1985.329915631215 1370.7307683505455
1985.99487355963 1375.0816092092653
1986.6596713167146 1547.4473177566751
1987.3243089415428 1213.397355040125
1987.9887864731754 1533.0190900636592
1988.6531039506553 1251.7983709483074
1989.3172614130071 1252.3633028514184
1989.9812588992481 1252.9489211912453
1990.645096448372 1089.1645457143788
1991.3087740993633 1277.4766385610267
1991.9722918911848 1182.3709914142767
1992.635649862792 1409.6955732585172
1993.2988480531185 1329.808248243332
1993.9618865010852 1338.238364110936
1994.6247652455968 1346.7449954087363
1995.287484325545 1291.1690611944375
1995.9500437798033 1295.6967806181722
1996.6124436472292 1212.486433461027
1997.2746839666706 1443.9306829748155
1997.936764776954 1335.1549050436497
1998.598686116895 1309.0954979477622
1999.2604480252903 1516.8343213635067
1999.9220505409212 1479.5406873773504
2000.5834937025593 1170.654822086867
2001.2447775489582 1297.4100093319419
2001.9059021188514 1365.5922749894023
2002.5668674509616 1206.9507499568285
2003.2276735839987 1285.26914773607
2003.8883205566508 1220.0978959113052
2004.5488084075987 1154.7962508578883
2005.2091371755014 1258.9851540127486
2005.8693068990033 1162.6399128666073
2006.5293176167397 1151.6681462571084
2007.1891693673224 1140.7816528954086
2007.848862189354 1130.496291292951
2008.5083961214223 1224.1504312320444
2009.1677712020955 1160.0487209661762
2009.8269874699254 1280.1443255438855
2010.4860449634598 1591.3801388903453
2011.1449437212177 1535.059211831525
2011.8036837817108 1478.6665806262092
2012.4622651834325 1458.8271336015414
2013.1206879648653 1410.6835869488043
2013.7789521644736 1438.0261243822338
2014.4370578207036 1135.2758408635896
2015.0950049719922 1266.5357275485826
2015.7527936567585 1471.989307746022
2016.4104239134067 1296.691747068005
2017.067895780323 1200.7025013220393
2017.725209295886 1428.537587366132
2018.3823644984514 1327.6197891301467
2019.0393614263648 1335.8022860703582
2019.6962001179545 1199.3401610924805
2020.3528806115355 1427.8127068093256
2021.0094029454067 1378.560615432682
2021.6657671578487 1225.6063504567112
2022.321973287133 1366.3681319592833
2022.9780213715148 1273.0424403798543
2023.6339114492293 1339.334763533196
2024.2896435585026 1274.8427018296084
2024.9452177375442 1281.2311904860978
2025.600634024544 1487.109993232237
2026.2558924576842 1381.6726289688072
2026.9109930751292 1481.3971956854543
2027.565935915025 1536.4986192804759
2028.2207210155066 1591.7704715195807
2028.8753484146964 1649.908258954336
2029.529818150695 1547.0079368582296
2030.1841302615903 1443.6738357981562
2030.8382847854573 1254.6931227173786
2031.4922817603601 1306.7745598454233
2032.1461212243357 1334.7447683385221
2032.7998032154192 1093.9563946414185
2033.4533277716218 1222.42651772192
2034.1066949309443 1308.1626878688758
2034.7599047313688 1174.005674912622
2035.4129572108704 1463.2525487480964
2036.0658524074006 1305.7645521103645
2036.7185903589016 1416.9809803394885
2037.3711711032956 1409.3064294086582
2038.023594678496 1473.489981858002
2038.675861122394 1222.976258242688
2039.3279704728757 1343.7984122947705
2039.9799227678031 1161.5206999887102
2040.6317180450278 1338.2062192407636
2041.2833563423865 1219.9951981542413
2041.9348376977014 1521.765576522358
2042.5861621487784 1421.2283586578492
2043.2373297334088 1517.628069600846
2043.8883404893695 1307.2735096561912
2044.5391944544208 1268.3561329423496
2045.1898916663158 1482.9937474867916
2045.8404321627804 1528.9177533043908
2046.4908159815368 1229.9543887336124
2047.1410431602853 1059.3225577921692
2047.7911137367173 1223.5547087908203
2048.441027748504 1273.5119811018153
2049.090785233302 1110.3012722990884
2049.7403862287592 1281.4088939928301
2050.389830772503 1221.915219073186
2051.0391189021466 1162.4000427911158
2051.688250655294 1218.1019162269831
2052.337226069527 1101.8562579470633
2052.986045182417 1046.3291428786108
2053.634708031521 990.8075514400755
2054.283214654375 1361.3962893951907
2054.931565088511 875.1504176657224
2055.579759371436 1043.0508057324237
2056.2277975406523 1390.8923338929294
2056.8756796336384 1508.4146715469574
2057.5234056878617 1385.4041530771242
2058.1709757407752 1262.0660754399528
2058.8183898298194 1421.0498657751818
2059.465647992416 1413.425360380291
2060.1127502659747 1453.278027004558
2060.759696687888 1120.2775145477099
2061.4064872955405 1268.8660875013245
2062.053122126292 1105.8404344243204
2062.699601217497 1338.4861475918858
2063.345924606485 1175.5577279152842
2063.992092330587 1283.7214843804475
2064.638104427102 1382.9398030634334
2065.283960933324 1371.0121011159877
2065.92966188653 1300.0334248008578
2066.5752073239855 1356.2666592619257
2067.2205972829397 1171.56590923643
2067.86583180062 1359.7308148687923
2068.5109109142522 1171.4780887690497
2069.15583466104 1166.3308436404309
2069.8006030781708 1161.1799958864972
2070.445216202821 1068.2886384711896
2071.089674072153 1394.7761124196961
2071.7339767233116 1433.0421598540358
2072.3781241934303 1218.071211647374
2073.0221165196253 1280.2992051770566
2073.6659537390024 1245.5590172094705
2074.3096358886505 1342.2392141197447
2074.953163005637 1308.7390752349854
2075.596535127028 1286.1009338962335
2076.2397522898664 1263.4557848084423
2076.882814531182 1209.283018829275
2077.5257218879924 1219.2303703016028
2078.1684743973 1217.7108046285846
2078.8110720960885 1126.647214565953
2079.453515021336 1261.6870171845499
2080.095803209997 1396.8495550431328
2080.7379366990135 1313.672948273279
2081.37991552532 1450.079406907867
2082.0217397258275 1288.532549685197
2082.6634093374414 1126.8386814453863
2083.3049243970418 1142.4400982459488
2083.9462849415067 1434.8103787908394
2084.587491007689 1434.6635761909301
2085.2285426324324 1373.4380401669437
2085.869439852564 1220.9091794471542
2086.510182704902 1190.7449392581384
2087.1507712262483 1204.5173149717957
2087.791205453381 1100.124990533539
2088.4314854230743 1255.247973682094
2089.0716111720867 1334.0230441979918
2089.7115827371617 996.0119105597001
2090.351400155023 1044.5283436966554
2090.991063462385 1093.1841143813913
2091.6305726959527 1039.5132848847627
2092.2699278924047 1263.23474070679
2092.9091290884153 1223.7326770313732
2093.548176320641 1223.8944858884665
2094.187069625721 1427.5664859061048
2094.8258090402887 1406.8874893739371
2095.464394600951 1386.1646307918477
2096.102826344313 1212.8568476447083
2096.741104306955 1119.6403043045748
2097.379228525453 1026.2186089600202
2098.017199036358 1061.5026236945473
2098.6550158762147 1423.3311711407923
2099.2926790815527 1431.9671826753852
2099.9301886888825 1303.58112066971
2100.5675447347076 1177.266550229651
2101.2047472555114 1396.3140799169582
2101.841796287761 1118.1499714351373
2102.47869186792 1330.4916105880088
2103.1154340324265 1170.4296373578131
2103.752022817709 1238.2772998105888
2104.388458260184 1176.5613557530614
2105.024740396251 1217.1840227415682
2105.660869262292 1237.6367116543481
2106.296844894685 1335.7749935964534
2106.93266732978 1287.1239419286867
2107.5683366039284 1107.922907969259
2108.2038527534532 1203.9487981359478
2108.8392158146726 1188.0450197254572
2109.4744258238843 1172.1241558803326
2110.1094828173755 1163.998244902371
2110.744386831422 1410.021017142692
2111.3791379022787 1362.4244419513182
2112.01373606619 1311.0923300307559
2112.648181359389 1484.544575754021
2113.28247381809 1327.8585063128226
2113.916613478492 1281.047216271701
2114.550600376786 1268.0427400002732
2115.1844345491445 1099.3786847500132
2115.818116031729 1161.4259981738446
2116.451644860679 1079.8248688906253
2117.085021072133 1018.7240332558604
2117.718244702204 1058.73501703831
2118.3513157869984 1198.9177124706337
2118.984234362604 1111.9231090910118
2119.617000465092 1036.9740783236662
2120.249614130529 1348.7760439774158
2120.8820753949585 1277.5477316388315
2121.5143842944162 1158.4201180408681
2122.14654086492 1256.419075740361
2122.7785451424734 1373.1546412242558
2123.4103971630702 1373.4436406867967
2124.042096962681 1373.884407806708
2124.6736445772767 1265.9373040957412
2125.305040042802 1145.4169642683823
2125.936283395191 1214.9811632251362
2126.567374670365 1274.7636550943112
2127.198313904233 1225.4967278218999
2127.8291011326855 1196.4465254253978
2128.4597363916037 1167.1933649497887
2129.0902197168507 1081.1850268417943
2129.720551144279 1255.6037367436977
2130.3507307097225 1430.1879557612192
2130.980758449008 1564.4204901073995
2131.6106343979427 1479.321562016686
2132.2403585923203 1394.05023053556
2132.8699310679276 1378.5252965553664
2133.499351860526 1321.7583069436705
2134.1286210058715 1155.0119432606423
2134.7577385397053 1298.708523069958
2135.3867044977487 1442.6196202585306
2136.0155189157176 1432.254965211903
2136.644181829308 1359.363136054029
2137.2726932742025 1189.9616799813575
2137.901053286074 1356.4577562427944
2138.5292619005777 1127.9130282115243
2139.1573191533535 1038.4526374756447
2139.7852250800315 1111.688341269665
2140.4129797162295 1185.0791704064889
2141.0405830975433 1089.1923888685533
2141.6680352595613 1103.4683697762189
2142.2953362378576 1117.7842592596946
2142.9224860679915 1019.0666149838598
2143.549484785508 1190.7856066400625
2144.1763324259373 1124.8547690019823
2144.803029024799 1177.8663079414403
2145.429574617594 1101.5635821561718
2146.0559692398165 1324.5899492927442
2146.682212926942 1165.538375324586
2147.308305714432 1222.242165861022
2147.9342476377333 1331.0895409948157
2148.5600387322847 1478.2087524828698
2149.185679033506 1407.797949566512
2149.8111685768017 1237.9998990684335
2150.4365073975678 1099.9493403509439
2151.061695531187 1223.4193611892294
2151.686733013021 1434.0992579861359
2152.311619878423 1363.9647831799762
2152.9363561627342 1122.169253345231
2153.560941901278 1087.4198453885065
2154.1853771293663 1221.8070491255462
2154.809661882293 1091.8577088948916
2155.433796195348 1100.9346168230454
2156.0577801037944 1109.8838709677418
2156.681613642895 1250.5151764904117
2157.3052968478896 1148.0942122994113
2157.928829754006 1283.6162030242194
2158.552212396462 1264.8218625586985
2159.1754448104566 1146.941088446679
2159.7985270311783 1092.187811490531
2160.4214590938027 904.6711538572384
2161.0442410334927 950.5332093748744
2161.6668728853874 1004.9417520009699
2162.289354684628 1059.4910441352972
2162.911686466332 1055.2839264296672
2163.533868265602 1424.0089232091218
2164.1559001175337 1396.720031604672
2164.7777820572046 1386.1888489190208
2165.399514119681 1170.479704624589
2166.021096340013 1114.221873303623
2166.6425287532384 1260.7339634765453
2167.263811394385 1031.473563199668
2167.8849442984574 1073.470527241118
2168.505927500455 1115.6612444164741
2169.126761035366 1274.901264091785
2169.7474449381552 1259.5049991328067
2170.367979243778 1254.6307831974636
2170.9883639871823 1249.7970767882812
2171.608599203293 1013.9815290650013
2172.2286849270276 1201.3220775001585
2172.8486211932886 1389.1249324843361
2173.4684080369625 1230.17203501055
2174.0880454929265 962.5877039839095
2174.7075335960417 979.6372098525464
2175.3268723811543 1019.2139786426454
2175.9460618831 1058.905062700776
2176.565102136701 1106.6770638016337
2177.1839931767627 1102.8187719549367
2177.802735038078 1098.9661227027968
2178.421327755432 1048.5078786045383
2179.0397713635866 1065.8777688240548
2179.658065897298 1262.099604324881
2180.276211391305 1283.6938901609715
2180.8942078803357 1297.246688569064
2181.5120553991 1258.5386551193649
2182.129753982299 1200.2702996508633
2182.7473036646206 1141.8773876302653
2183.3647044807367 1340.7447779488127
2183.9819564653044 1043.6266573420994
2184.599059652968 1151.3284198965544
2185.216014078367 1267.4018839631985
2185.832819776113 1343.2167410285986
2186.4494767808137 1419.1347056302197
2187.065985127063 1155.373384612623
2187.682344849436 1138.8902049414894
2188.298555982501 1174.4827690917189
2188.9146185608097 1210.0619281493168
2189.530532618901 1368.590170460094
2190.1462981912937 1248.7157725314607
2190.761915312507 1291.9404060408433
2191.377384017036 1185.5100728472012
2191.9927043393654 1110.2891983803202
2192.6078763139667 1283.2671166674477
2193.2228999753006 1031.9085222221759
2193.837775357808 1186.0672488293953
2194.452502495922 1058.646634831403
2195.0670814240602 1195.3361041339417
2195.6815121766285 979.8937723154517
2196.2957947880186 993.919641728208
2196.9099292926057 1007.9772846546099
2197.523915724758 1174.059882095587
2198.137754118825 1212.4811411462981
2198.7514445091456 1401.27457500124
2199.3649869300443 1435.3082041191574
2199.9783814158327 1469.4816022013404
2200.5916280008096 1451.9123185151893
2201.2047267192593 1308.2980223750878
2201.8176776054515 1158.7934421920552
2202.430480693649 1242.8864632025707
2203.0431360180955 1327.2128121683654
2203.6556436130195 1383.2525548075157
2204.268003512645 1296.6019901358377
2204.8802157511727 1209.7718121609503
2205.492280362796 1538.6448786548228
2206.1041973816937 1266.5020252063885
2206.715966842032 1147.78279836151
2207.3275887779655 1376.8732935312912
2207.93906322363 1236.6954690776556
2208.550390213153 1183.260518556211
2209.1615697806465 1314.08788960784
2209.7726019602105 1134.7079008580265
2210.3834867859277 926.6356716193029
2210.9942242918787 976.5718099073056
2211.6048145121167 1310.4058793681654
2212.2152574806914 1630.3410176313869
2212.825553231638 1124.8848099703068
2213.435701798975 1626.1849572570666
2214.045703216707 1195.471532875042
2214.655557518832 815.334719468116
2215.2652647393297 1017.3761043254699
2215.874824912169 1081.5861530832242
2216.4842380713 1146.064765863282
2217.09350425067 999.5339748825369
2217.7026234842033 1401.053801838733
2218.311595805819 1324.376828249901
2218.9204212494133 1121.7873497002142
2219.52909984888 1426.1240788274633
2220.137631638092 972.5724254228802
2220.7460166509154 1406.156937180123
2221.354254921198 1021.7972848478323
2221.9623464827764 1131.8244801608907
2222.5702913694713 1152.9847780948687
2223.178089615096 1510.6453073928176
2223.7857412534486 1229.9707062236037
2224.39324631831 905.5505754097792
2225.000604843457 1079.3863386958492
2225.607816862641 1198.6452074878043
2226.214882409611 1196.717906409602
2226.8218015180973 1410.0538202969265
2227.4285742218217 1211.4008052578167
2228.0352005544864 1223.699441691458
2228.6416805497847 934.7939121143357
2229.248014241399 1062.7663252425764
2229.8542016629945 1124.202633008392
2230.460242848223 1165.4224483756211
2231.0661378307304 1000.676242854525
2231.671886644139 1238.6719967495062
2232.277489322065 981.5698939280168
2232.8829458981127 944.4002030665563
2233.48825640587 1116.6646303835782
2234.0934208789095 1226.5676144028776
2234.6984393507955 1336.6365654731
2235.3033118550793 1226.7866696727888
2235.9080384252975 1024.923309977557
2236.5126190949723 951.2599245405985
2237.1170538976166 1054.2895122678406
2237.721342866729 955.721880250295
2238.32548603579 1130.6472777069987
2238.9294834382763 1119.844211999763
2239.533335107646 1161.774337254244
2240.1370410773434 1118.679339943112
2240.740601380803 1090.1931748190805
2241.3440160514474 1254.1368372923416
2241.9472851226783 1431.599361531553
2242.550408627896 1187.0287746058757
2243.1533866004793 1335.317653978613
2243.756219073799 1194.955910949187
2244.3589060812064 968.7910200518215
2244.961447656049 1101.086787355976
2245.5638438316564 1143.4843714030096
2246.166094641343 1146.0455867034188
2246.7682001184166 1024.2432802676872
2247.3701602961664 1140.882033071417
2247.971975207871 1369.041430406181
2248.5736448867974 1291.6503397414313
2249.175169366197 1179.8647588012004
2249.7765486793123 1177.9200572584966
2250.3777828593684 1062.7143449438338
2250.9788719395783 1205.077633708034
2251.579815953146 1083.6155996004911
2252.1806149332606 981.3429991883747
2252.781268913097 1074.520959016731
2253.381777925817 1154.3549035161636
2253.9821420045737 1195.4194616929258
2254.5823611825035 1185.6950083133477
2255.1824354927303 1234.3607948986269
2255.782364968365 1320.574751636912
2256.38214964251 1033.7113636226572
2256.9817895482483 1001.4774045732593
2257.5812847186553 1054.7983438147962
2258.180635186791 1126.2693592006085
2258.779840985704 1185.866902359411
2259.37890214843 1146.2659924469299
2259.97781870799 1196.9953233879983
2260.5765906973957 1388.0429690080166
2261.175218149645 1152.3612546627887
2261.773701097718 1280.2467905407877
2262.3720395745895 1211.0457250691402
2262.970233613216 1141.6864698208024
2263.568283246548 1188.0005820053714
2264.1661885075137 1041.9035839153144
2264.763949429038 1077.517460344
2265.3615660440246 1349.8694685861997
2265.959038385374 1333.350329994752
2266.5563664859637 1316.8416493357965
2267.153550378669 1071.5089187866035
2267.7505900963424 1325.0525406723477
2268.3474856718312 1073.3844481028561
2268.9442371379664 1092.7323805872097
2269.5408445275643 1057.988183424405
2270.1373078734377 1023.2033922672138
2270.7336272083758 1080.8912398116838
2271.32980256516 1106.5357380642413
2271.925833976562 1287.0240551426286
2272.5217214753357 1098.826853825815
2273.117465094223 1206.6648092992268
2273.7130648659586 1044.8809850855037
2274.308520823257 1265.9702202456888
2274.903832998827 1393.5206100989712
2275.4990014253563 1325.4820272444504
2276.094026135528 1257.2880897617438
2276.6889071620117 1005.0913179162887
2277.2836445374614 1046.1673798316733
2277.878238294519 1053.2122130821513
2278.472688465812 897.615202931593
2279.066995083962 1246.9739476692098
2279.6611581815705 1043.1676333338223
2280.255177791232 964.7951880211182
2280.8490539455233 1159.7206259856466
2281.442786677013 1355.0376424186366
2282.0363760182554 1544.5701603014204
2282.6298220017943 1438.6301811093088
2283.223124660155 1332.5627143028414
2283.816284025859 1084.2887989026735
2284.4093001314086 1296.5143455821208
2285.002173009292 1298.8222377548684
2285.5949026919952 1301.133897235905
2286.1874892119777 1192.8590115694847
2286.7799326016993 1238.1477489558542
2287.3722328936 1055.5655857726256
2287.964390120109 741.9621724737211
2288.556404313642 1208.730588665098
2289.1482755066027 653.4376673237049
2289.7400037313873 1161.8361739884565
2290.3315890203703 1049.0981320165224
2290.9230314059205 1154.194143840034
2291.5143309203904 1245.267081829364
2292.1054875961236 1039.0588352472587
2292.6965014654506 1396.4082073557488
2293.287372560684 979.2328708363726
2293.878100914131 1354.828269194225
2294.468686558086 1022.6346399980587
2295.059129524827 1133.5153386351726
2295.649429846617 1258.9610867252763
2296.239587555716 981.3446741475566
2296.8296026843636 1071.7001803049372
2297.419475264791 1056.758365423188
2298.0092053292137 1041.7231433016236
2298.598792909839 1332.193806414789
2299.1882380388597 1102.6454579813167
2299.777540748455 1223.599821638966
2300.3667010707904 1195.5239860765237
2300.9557190380256 1302.109526890305
2301.544594682302 1322.081955318935
2302.1333280357503 1307.52523145989
2302.721919130485 1292.9762108406649
2303.3103679986198 1324.3134195163734
2303.898674672242 1285.0197464897556
2304.486839183437 1126.6517915766703
2305.0748615642697 1063.2391728378848
2305.6627418468015 1080.482453215845
2306.2504800630704 912.0708404324323
2306.8380762451143 1163.779451756373
2307.425530424949 1267.92851925628
2308.012842634582 1372.306758109435
2308.6000129060103 1385.2256048775894
2309.187041271214 1292.5782598746468
2309.773927762164 1076.1271055762247
2310.3606724108213 971.5568273735669
2310.9472752491274 1337.9438747685845
2311.5337363090184 1230.2252704128334
2312.120055622414 1056.8710484546823
2312.706233221221 1197.2914702120893
2313.2922691373424 1278.2420733512067
2313.8781634026564 1359.376914840142
2314.463916049037 1186.92088350627
2315.049527108342 1361.0158275475656
2315.6349966124235 1075.3220637961056
2316.2203245931123 1342.7792538941503
2316.8055110822315 963.1077900970315
2317.3905561115935 1051.7462881498902
2317.9754597129977 1165.3832816535541
2318.560221918229 1271.00497521865
2319.1448427590603 859.7041180997421
2319.729322267256 1172.7334199390496
2320.313660474563 1368.6026733448703
2320.8978574127195 1565.0456933507853
2321.481913113452 1323.9078925583158
2322.0658276084705 890.2972048505841
2322.6496009294806 1036.91385183708
2323.233233108165 914.5777690960183
2323.8167241762058 1125.300587891781
2324.4000741652617 1103.3500775745756
2324.983283106987 1193.8209322541459
2325.5663510330232 1080.8854825662495
2326.1492779749933 967.5640213575791
2326.7320639645204 1005.5766305075001
2327.3147090332004 913.6398954844402
2327.897213212629 1078.8911289084645
2328.4795765343843 1244.287867574161
2329.0617990300307 885.0384579876979
2329.643880731124 949.8631310300864
2330.22582166921 1014.8205115783105
2330.807621875816 875.0060884015645
2331.3892813824623 1231.711743102245
2331.9708002206517 1042.8107960186553
2332.5521784218818 1104.9749678948228
2333.133416017634 931.004004669651
2333.7145130393765 1040.9072070954867
2334.295469518571 1306.1043516981886
2334.876285486658 1128.445627441461
2335.456960975076 1167.2596723643896
2336.037496015242 1206.1806950867126
2336.6178906385667 1015.8940244838434
2337.198144876451 1145.5810876476555
2337.778258760278 1325.3241146302148
2338.3582323214214 1249.5977371649997
2338.938065591243 1173.6639773107936
2339.517758601087 1212.8457129930132
2340.0973113822965 1186.5864019037622
2340.676723966193 1219.7390269483608
2341.255996384094 1252.9315989265042
2341.835128667295 1134.9433994298672
2342.4141208470883 1143.0175551494879
2342.992972954751 1272.3504615155714
2343.5716850215467 1268.4367435071395
2344.1502570787306 1179.4412059615374
2344.7286891575386 1090.2162883914934
2345.3069812892045 1310.2223711216416
2345.885133504944 1321.7047541117918
2346.4631458359618 1044.06866557231
2347.04101831345 982.0356778130732
2347.6187509685915 940.805352156219
2348.196343832553 1114.07955473625
2348.7737969364935 976.8573359763801
2349.351110311558 839.4855016623229
2349.9282839888765 999.0884331626867
2350.5053179995757 767.1708286330947
2351.0822123747585 804.5080649523775
2351.658967145526 907.6392735603067
2352.2355823429643 1010.9969470603861
2352.812057998144 1154.081290009282
2353.3883941421263 1230.7464413908847
2353.9645908059647 1228.4901747562894
2354.540648020693 1198.1129252849835
2355.116565817336 1297.223432653926
2355.6923442269126 1076.3687547610562
2356.2679832804224 1194.9976358368745
2356.8434830088518 1228.1037868019696
2357.41884344318 1070.0871831404627
2357.994064614377 1058.7444923536827
