#exp_cfg={"servo_angle": 0.0, "laser_lim": 100.0, "servo_angle_to": 18.0, "laser_wup": 0.0, "bt_dev": "EnSpectr-25AE3", "laser_wdn_max": 0.0, "frames": 10.0, "servo_used": 0, "servo_calib_use": 0, "laser_wdn_min": 0.0, "servo_pix_from": 90.0, "cooler_tout": 300.0, "servo_angle_from": 0.0, "servo_calib": "[-1.9174921013161362e-09, 3.9322238269163779e-05, -0.27385609119055809, 653.59552119713567]", "laser_autoctl": 0, "servo_pix_to": 3682.0, "laser_pw": 100.0, "cooler_on": 0, "laser_volt": 4.0, "cooler_autoctl": 0, "cooler_curr": 70.0, "cooler_startup": 10.0, "laser_fixed_pw": 0, "gain": 1.3, "offset": 2.53059635486, "servo_calib_degree": 3.0, "laser_curr": 55.0, "shutter": 8200.0, "servo_calib_step": 1.0, "laser_fixed_curr": 0, "exp": 2000.0, "ccd_volt": 4.7, "bt_addr": "00:06:66:62:5A:E3", "servo_delay": 500.0, "laser_autooff": 1}
#proc_cfg={"flat_auto_wnd": 200.0, "flat_auto_fr": 200.0, "flat_auto_shift": 5.0, "yconv": 1, "flatten": 1, "flatten_strength": 100.0, "xfrom": 300.0, "auto_max_frame": 2000.0, "auto_signal": 48000.0, "flat_auto_tol": 0.1, "autoclip": 1, "xrel_range": 0.0, "flat_auto_to": 4000.0, "intensity_adj": 1.0, "xrel": 7852.0, "rmhot": 1, "flat_auto_slit": 4.999999999999997, "auto_ini_exp": 300.0, "auto_off": 0, "xto": 2860.0, "flat_auto_ref": "", "flat_auto_rank": 1, "autobackg": 0, "xrel_adj": 0.0, "auto_black_lvl": 1, "base_wnd": 100.0, "sub_baseline": 0, "xconv": 2, "auto_max_exp": 1000.0, "auto_total_exp": 10000.0, "auto_exp": 0, "rmripple": 0, "black_lvl": 8265.3875, "shutter_clip_adj": 0.0, "auto_bckg": 0, "flat_auto_thr": 0.9, "subbackg": 1}
316.8218498245369 16874.879893325287
317.89969571804795 16693.162752629258
318.977263876126 16630.8098103068
320.05455438786703 16413.89173219897
321.1315673423287 16292.55762591527
322.2083028285215 16418.16232515554
323.2847609354267 16251.530197150623
324.3609417519747 16166.759126958184
325.43684536705587 16124.453076738835
326.5124718695279 16071.83949980095
327.58782134820103 15951.109064240827
328.66289389184385 15983.982436399328
329.7376895891921 15815.912619511557
330.8122085289342 15761.357304366393
331.88645079971866 15725.02258349684
332.9604164901575 15623.851201040137
334.03410568881554 15507.005135267207
335.1075184842266 15656.775292916403
336.18065496487543 15464.127329440427
337.2535152192122 15452.533351100812
338.32609933564163 15372.195930565314
339.39840740253203 15317.023911586928
340.4704395082099 15241.131313801667
341.5421957409617 15187.432897762084
342.6136761890357 15245.472396637033
343.6848809406365 15067.82232333938
344.75581008392874 15122.3605507001
345.82646370703696 14987.466959063118
346.8968418980512 14882.788874516467
347.96694474501055 14959.876313732972
349.0367723359268 15009.668665230527
350.106324758759 14851.478428221206
351.1756021014353 14831.54051830927
352.2446044518383 14724.214093411138
353.31333189781435 14824.458288755366
354.38178452716966 14762.08732623071
355.449962427665 14752.121119403173
356.51786568702846 14689.024678757876
357.58549439294256 14648.528385945761
358.6528486330535 14717.406036693073
359.71992849496564 14598.134968260754
360.7867340662433 14579.234201507812
361.8532654344144 14552.453655356769
362.9195226869597 14560.368853365484
363.9855059113288 14465.480657535483
365.05121519492604 14451.359267552703
366.11665062511565 14538.406104656175
367.1818122892273 14496.259537369246
368.2467002745434 14467.576388402324
369.31131466831175 14472.434654706736
370.375655557742 14393.869407045719
371.4397230299983 14390.071714261076
372.5035171722102 14398.670856313029
373.5670380714637 14360.75871590121
374.6302858148101 14425.29477706947
375.6932604892554 14348.607465950801
376.7559621817709 14314.54391199612
377.81839097928605 14252.971852760364
378.8805469686886 14217.343888466503
379.94243023683157 14391.266151275995
381.0040408705263 14183.340838624388
382.0653789565458 14083.553547989499
383.1264445816196 14120.106476857381
384.1872378324406 14093.810094211256
385.2477587956637 14082.959296796089
386.3080075579037 14017.685444803492
387.3679842057336 13892.124307476368
388.4276888256918 14000.169130054517
389.48712150426945 13892.863214994757
390.54628232792857 13836.95229325799
391.6051713830857 13717.774602843265
392.66378875611736 13843.432094639571
393.7221345333637 13794.951803186297
394.7802088011249 13739.177610786224
395.838011645661 13680.704653325349
396.89554315319765 13649.523816125817
397.9528034099112 13556.584875486402
399.00979250194723 13570.74351671844
400.06651051541485 13479.964322598531
401.1229575363741 13588.11142200683
402.17913365085224 13448.4413534682
403.23503894483656 13527.896305127011
404.2906735042761 13413.129188808907
405.3460374150818 13305.77845765543
406.401130763119 13357.42299243611
407.455953634224 13395.24577669062
408.5105061141876 13321.073454834052
409.56478828876243 13176.380846713602
410.6188002436629 13173.76687291719
411.6725420645689 13166.755647678063
412.72601383711117 13168.373217874663
413.77921564689314 13269.034221381988
414.8321475794728 13095.693413332901
415.88480972036814 13093.14220342143
416.93720215506437 13114.947622564807
417.9893249690049 13030.726093521036
419.04117824759123 12918.020263794064
420.09276207619223 12968.638071022893
421.144076540133 13001.498244123008
422.1951217247042 12920.82022670756
423.24589771515275 12922.051088354212
424.2964045966928 12832.481547932388
425.34664245449494 12842.603960194767
426.3966113736933 12832.848305793332
427.4463114393875 12689.502056786318
428.49574273662984 12762.347302989747
429.5449053504417 12632.200946335308
430.5937993658026 12780.333224881046
431.6424248676558 12661.85723676037
432.6907819409007 12658.969413850211
433.73887067040596 12723.754012742666
434.7866911409965 12651.371685135451
435.8342434374608 12592.014611280762
436.88152764455117 12625.908346929777
437.9285438469724 12584.299765779659
438.9752921294057 12499.918625527655
440.02177257648145 12545.81937045471
441.06798527279716 12461.415582018419
442.1139303029122 12604.39988359172
443.1596077513459 12615.349344448017
444.2050177025794 12487.988071782056
445.25016024105753 12444.052692806972
446.2950354511886 12412.384354787639
447.33964341733736 12446.108636082157
448.383984223834 12435.4899259033
449.4280579549686 12318.145337309521
450.471864694995 12360.918496215438
451.5154045281306 12341.420832103864
452.5586775385509 12351.318116001468
453.60168381039693 12279.821785975288
454.64442342776783 12386.513823792433
455.6868964747264 12301.799129563413
456.7291030353008 12169.732592452328
457.77104319347563 12315.918043961008
458.8127170332027 12156.441777665597
459.854124638392 12169.631888522634
460.895266092919 12329.47025666249
461.93614148061897 12296.03154261265
462.97675088529104 12338.068499611447
464.01709439069236 12267.800281770014
465.0571720805492 12165.70934965668
466.0969840385442 12171.362741566536
467.1365303483253 12243.715276512878
468.17581109350067 12178.702131972494
469.2148263576437 12068.945157757795
470.2535762242878 12181.126325873885
471.29206077693016 12246.13123297023
472.33028009902773 12209.18628865053
473.3682342740012 12179.012566307953
474.40592338523857 12220.371129774208
475.4433475160804 12240.257411951181
476.4805067498364 12309.500441721253
477.51740116978 12197.177068053243
478.5540308591426 12265.057490528985
479.59039590112116 12389.711878737138
480.6264963788726 12328.318777478054
481.6623323755193 12482.38966000737
482.6979039741436 12407.73161361006
483.7332112577915 12692.060219380111
484.76825430947247 12805.445446299305
485.80303321215797 12691.495854480367
486.837548048783 12856.08789035071
487.8717989022425 12968.49335769664
488.90578585539697 12972.287425143415
489.9395089910686 13092.903536670312
490.97296839203955 13050.076533558455
492.00616414106116 12871.493462900751
493.0390963208429 12951.65783886595
494.0717650140559 12865.652367748988
495.10417030333883 12884.097447316544
496.1363122712901 12756.6418460356
497.16819100046814 12603.86130643453
498.1998065734024 12477.64168669114
499.2311590725767 12357.078364366946
500.26224858044407 12297.596126173165
501.2930751794156 12302.324109953657
502.3236389518679 12184.725753826173
503.35393998014115 12007.897356597749
504.38397834653733 12010.510029849323
505.4137541333221 11988.168182285328
506.4432674227228 11843.801734524199
507.4725182969323 11794.70321433863
508.5015068381035 11763.711789722405
509.53023312835467 11849.767819588651
510.55869724976765 11698.006573755029
511.58689928438434 11698.574625471825
512.6148393142121 11612.543356760512
513.6425174212218 11723.068588561293
514.6699336873462 11619.914712166534
515.6970881944835 11675.677696584313
516.7239810244901 11533.198997237425
517.7506122591931 11581.895783196002
518.7769819803761 11497.346154454928
519.8030902697901 11610.155624516547
520.8289372091476 11595.47277991867
521.8545228801249 11671.247494233783
522.8798473643619 11565.34151268291
523.9049107434621 11476.600553413326
524.9297130989908 11528.345948885313
525.9542545124805 11505.33069912637
526.9785350654201 11504.920069148944
528.0025548392696 11635.802198382353
529.0263139154504 11402.830284006372
530.0498123753423 11472.091699322384
531.073050300296 11410.07893959045
532.0960277716204 11306.72604794897
533.1187448705896 11333.663756599472
534.1412016784416 11380.204121734549
535.1633982763833 11250.07470050791
536.1853347455726 11251.732867090706
537.2070111671401 11272.866719841104
538.2284276221817 11248.179846795176
539.2495841917516 11214.604662777494
540.2704809568677 11124.30400953094
541.2911179985167 11235.128902904054
542.3114953976419 11049.007911612805
543.3316132351592 11061.626185813671
544.3514715919409 11032.769920549032
545.3710705488247 11074.308589442804
546.3904101866156 11004.764781034146
547.4094905860784 11003.669040621131
548.4283118279418 11045.454426896376
549.4468739929034 11026.622493874127
550.4651771616191 11007.452412840412
551.4832214147063 10900.291543388097
552.501006832761 11001.748559956453
553.5185334963226 10957.228797844553
554.5358014859103 11029.551284651076
555.5528108820035 10987.605158150183
556.5695617650363 10970.637282826003
557.5860542154242 11032.450378578627
558.6022883135283 10899.432483609413
559.6182641396881 10775.998195377519
560.6339817741991 10946.962898266353
561.6494412973225 10933.279469169585
562.6646427892883 10959.533235527486
563.6795863302796 10847.73072002282
564.694272000459 10864.737324577556
565.7086998799423 10922.659133770592
566.7228700488104 10829.136530868805
567.7367825871115 10818.531689790507
568.7504375748576 10819.82428911325
569.7638350920224 10826.272144219123
570.7769752185486 10766.438745606893
571.7898580343353 10782.379361771822
572.802483619258 10756.634910313926
573.8148520531431 10846.464325514846
574.8269634157932 10857.848182576294
575.8388177869692 10765.497268967827
576.8504152463938 10732.327810287385
577.8617558737587 10944.635478667624
578.8728397487175 10814.25685313152
579.883666950891 10837.095419657102
580.8942375598654 10951.545056943232
581.9045516551851 10989.856526049944
582.9146093163617 11176.28274774832
583.924410622878 10993.515113042147
584.9339556541727 11045.639163907965
585.9432444896538 11186.362985006099
586.9522772086875 11070.839465487716
587.9610538906127 11112.21652546028
588.9695746147318 11094.805637872987
589.9778394603054 11110.566673552557
590.985848506567 10982.68862586752
591.9936018327098 10947.278395059817
593.0010995178891 10771.008304048526
594.0083416412344 10895.537582363517
595.0153282818283 10715.31195642319
596.0220595187293 10628.321541768188
597.0285354309508 10633.474576153383
598.0347560974806 10585.499597947986
599.0407215972609 10579.324808414667
600.0464320092051 10457.613527808844
601.0518874121954 10528.00637278719
602.0570878850685 10482.663831168473
603.062033506636 10451.412439832966
604.0667243556636 10403.651982377483
605.0711605108936 10298.182960790129
606.0753420510264 10600.661324673129
607.0792690547278 10453.049521237952
608.082941600629 10348.746066934902
609.0863597673306 10402.979563227247
610.0895236333909 10517.304238754088
611.0924332773357 10602.406222768928
612.0950887776617 10424.30425456661
613.0974902128219 10608.064128682625
614.0996376612384 10631.002346301842
615.1015312013005 10716.331702444973
616.1031709113595 10752.677758163883
617.1045568697336 10612.992748016584
618.1056891547069 10789.414171287739
619.1065678445229 10889.052403000238
620.1071930173985 11057.948304227159
621.1075647515099 11031.619036771592
622.1076831250048 11015.93402072712
623.1075482159849 11192.37140682906
624.1071601025305 11163.305894895126
625.1065188626781 11229.857718601215
626.105624574433 11409.874679452869
627.1044773157682 11437.236892871668
628.1030771646128 11471.074625494195
629.1014241988742 11440.708245817545
630.0995184964158 11576.716992671469
631.0973601350688 11704.382616274139
632.0949491926294 11809.84833315398
633.0922857468631 11533.332977642285
634.089369875499 11730.991458467406
635.0862016562278 11772.39634350778
636.0827811667077 11542.305742240309
637.0791084845641 11578.60201408961
638.0751836873878 11469.08953273125
639.0710068527369 11554.869395366062
640.0665780581294 11357.239990882255
641.0618973810506 11208.93312774225
642.0569648989604 11293.151400941784
643.0517806892676 11029.096728112509
644.0463448293649 11001.613698350899
645.040657396592 10868.909510308744
646.0347184682723 10719.592037034896
647.0285281216875 10600.808021881106
648.0220864340772 10518.422987006308
649.0153934826558 10491.217707797652
650.0084493446047 10427.406543290517
651.0012540970674 10435.742874858417
651.9938078171526 10267.482512953919
652.9861105819346 10207.455053887372
653.9781624684565 10329.569462265918
654.9699635537254 10123.236473699528
655.9615139147136 10163.763208457782
656.9528136283589 10023.858546737782
657.9438627715699 10074.683377278223
658.9346614212154 9989.313566871122
659.925209654135 9837.33153721449
660.9155075471263 9935.129161132272
661.9055551769616 9819.962098903283
662.895352620375 9994.596483408954
663.8848999540678 9889.294472771733
664.8741972547068 9728.616795680033
665.863244598926 9680.592409237206
666.8520420633213 9845.399816779964
667.8405897244611 9653.877974248415
668.8288876588758 9628.670746944623
669.8169359430613 9678.571467658496
670.8047346534822 9630.102544838022
671.7922838665672 9487.745854450057
672.7795836587156 9604.748919568947
673.766634106285 9779.944666279986
674.7534352856092 9518.864850734892
675.7399872729766 9584.74646110683
676.7262901446538 9513.379170140335
677.712343976862 9494.161885018571
678.6981488457986 9595.041180741962
679.6837048276229 9407.442606041392
680.6690119984596 9490.753341020401
681.6540704344043 9496.75571735871
682.6388802115107 9461.017406493007
683.6234414058108 9394.141506544041
684.6077540932874 9400.996939041022
685.591818349907 9441.75869838343
686.575634251587 9483.387143345602
687.5592018742263 9367.830079679117
688.5425212936734 9330.359388824476
689.5255925857564 9440.302204746025
690.5084158262707 9379.659274849602
691.4909910909646 9297.728760767037
692.4733184555644 9323.715072409084
693.4553979957618 9385.369273163456
694.4372297872123 9396.54149527742
695.4188139055404 9247.886312342107
696.4001504263324 9240.712618465446
697.3812394251509 9351.134822243916
698.3620809775111 9281.57569114513
699.3426751589104 9330.204008894854
700.3230220448004 9296.466137683872
701.3031217106054 9317.068219958906
702.2829742317172 9449.05991884389
703.2625796834873 9229.181048992637
704.2419381412474 9246.231850559856
705.22104968028 9302.94775621266
706.1999143758458 9285.623642726183
707.178532303169 9236.385777926573
708.1569035374378 9327.784014600213
709.1350281538107 9371.64791835694
710.1129062274158 9470.7325497934
711.0905378333373 9545.613892067828
712.0679230466376 9628.902089374262
713.0450619423427 9655.84923737011
714.0219545954424 9926.596390077424
714.9986010808989 9842.309619666139
715.9750014736292 10023.104133696272
716.9511558485392 10208.275727104909
717.9270642804786 10288.272229985738
718.9027268442787 10472.37169868938
719.8781436147328 10397.367964181629
720.8533146666014 10458.866584028712
721.828240074612 10459.836508159588
722.8029199134635 10378.109401003629
723.7773542578125 10384.291079700213
724.751543182294 10255.793141047918
725.7254867615029 10240.583038116183
726.6991850700015 9926.300842064615
727.6726381823228 9964.011968633966
728.6458461729599 9914.443413316625
729.6188091163858 9847.804393865677
730.5915270870246 9820.862707272432
731.5640001592856 9697.542067090802
732.536228407529 9808.089758417671
733.5082119060917 9718.502399656234
734.4799507292755 9677.068838289575
735.4514449513481 9738.345160896726
736.4226946465496 9829.941456822891
737.3936998890786 9839.195195726601
738.3644607531078 9712.362512441501
739.3349773127793 9673.368948229081
740.3052496421951 9640.212873878016
741.27527781543 9460.041191351544
742.2450619065221 9416.63427611076
743.2146019894826 9382.544894168948
744.183898138288 9280.162036392798
745.1529504268801 9170.081615441579
746.1217589291682 9071.651644882551
747.0903237190341 9039.428094497105
748.058644870318 9038.854573507024
749.0267224568397 8946.790362966614
749.994556552374 8786.494851389185
750.9621472306771 8877.766202969016
751.9294945654583 8825.499499188973
752.8965986304011 8873.454958392053
753.8634594991636 8713.96124995377
754.8300772453586 8770.943822928588
755.7964519425768 8762.706019076615
756.762583664371 8788.171901375352
757.7284724842611 8801.631078219474
758.6941184757416 8662.441072010357
759.6595217122667 8730.149705741307
760.6246822672638 8714.935045133543
761.5896002141235 8587.56098459373
762.5542756262093 8682.0775429116
763.5187085768503 8648.661390223653
764.4828991393406 8627.976731321334
765.4468473869474 8558.389237860709
766.4105533929032 8639.6989741029
767.3740172304078 8535.495622952258
768.3372389726283 8727.956544336386
769.3002186926988 8498.957287160261
770.2629564637282 8508.90525649448
771.2254523587872 8493.54862806031
772.1877064509154 8450.195730781637
773.1497188131179 8328.066882109099
774.1114895183728 8415.352788785554
775.0730186396268 8343.113420577958
776.0343062497905 8330.49126011113
776.9953524217381 8278.726931462155
777.9561572283274 8306.905820553002
778.9167207423689 8342.22364053607
779.8770430366476 8209.675731273372
780.8371241839159 8202.562036782696
781.7969642568951 8265.561899479748
782.7565633282757 8421.471218945268
783.7159214707099 8239.417897322328
784.6750387568281 8224.20390435577
785.6339152592227 8219.805675653522
786.5925510504512 8138.012420691388
787.5509462030477 8243.82330080293
788.5091007895098 8172.822088329592
789.4670148823006 8192.005346957103
790.4246885538596 8140.247242360545
791.3821218765861 8208.3236155466
792.3393149228505 8097.5004371157465
793.2962677649975 8198.594069213594
794.2529804753303 8140.970211361324
795.20945312613 8182.89250754063
796.1656857896378 8047.24459725972
797.1216785380675 8050.166874491809
798.0774314435985 8102.568330974481
799.0329445783846 8263.005028737036
799.9882180145414 8230.780029134508
800.9432518241574 8141.029198541473
801.89804607929 8186.398432826245
802.852600851962 8243.220737355052
803.8069162141637 8139.280101056504
804.760992237856 8249.6377567871
805.714828994971 8278.184243745454
806.6684265574077 8377.171555049552
807.6217849970271 8268.900420584107
808.574904385674 8238.972076081254
809.527784795142 8327.302937272687
810.4804262972102 8431.989918588677
811.4328289636178 8204.989374622117
812.3849928660748 8149.764062429674
813.3369180762638 8170.020843045597
814.2886046658241 8190.579897008271
815.2400527063783 8066.729944347238
816.1912622695108 8056.8717325421385
817.1422334267718 8108.919908303409
818.0929662496856 8046.207316737334
819.0434608097457 7893.195922392102
819.9937171784059 8002.199624585877
820.9437354271013 7892.965870941213
821.8935156272255 8010.401358188474
822.8430578501484 7882.851756703448
823.7923621672016 7756.703444709992
824.7414286496896 7885.82380368045
825.6902573688876 7918.915263670798
826.6388483960363 7932.966420901464
827.5872018023492 7802.241935371746
828.5353176590033 7847.066794811336
829.4831960371503 7715.221825422079
830.4308370079016 7659.163197404899
831.3782406423525 7769.521628139519
832.3254070115545 7769.183307500495
833.2723361865319 7717.0908482529585
834.2190282382799 7581.101506207543
835.1654832377644 7737.359496207544
836.1117012559116 7632.911773098125
837.0576823636256 7790.168449975989
838.003426631778 7535.9826095029175
838.9489341312074 7556.47619961442
839.8942049327197 7762.705551591726
840.8392391070975 7772.525336782611
841.7840367250865 7682.5326374742945
842.7285978573982 7604.260404676577
843.672922574724 7661.824502342039
844.6170109477152 7601.171670110176
845.560863046996 7664.398841574538
846.5044789431595 7556.048185086069
847.4478587067697 7566.833083813149
848.3910024083561 7676.940614474166
849.333910118421 7567.4660274627695
850.2765819074339 7490.974737867114
851.2190178458332 7640.442264945277
852.161218004032 7693.28396881699
853.1031824524016 7593.076476264248
854.0449112612987 7569.431494692442
854.9864045010327 7641.395121010051
855.9276622418947 7556.280742866348
856.8686845541379 7555.980623244477
857.8094715079915 7540.503581158923
858.7500231736467 7663.903570027021
859.690339621271 7616.543554730202
860.6304209209939 7565.759746934836
861.5702671429244 7570.666804021845
862.5098783571284 7552.549218166152
863.4492546336569 7552.295482433694
864.3883960425155 7502.60920720781
865.3273026536863 7545.99220919929
866.2659745371238 7421.806995271587
867.2044117627465 7631.2061921822
868.1426144004472 7449.641103700669
869.0805825200823 7587.751251286087
870.0183161914847 7450.958328306576
870.9558154844526 7556.567484916869
871.8930804687552 7566.921241210172
872.8301112141307 7488.312092701616
873.7669077902865 7609.91108138592
874.7034702669062 7687.243709624306
875.6397987136315 7556.877369540669
876.5758932000863 7628.51415620162
877.5117537958522 7725.691009557425
878.4473805704911 7509.795477351016
879.3827735935283 7566.198144503773
880.3179329344603 7643.460772198804
881.2528586627541 7676.310440042938
882.1875508478479 7719.034608251088
883.1220095591489 7637.86572971064
884.0562348660296 7569.255256858827
884.9902268378391 7648.501078523259
885.9239855438955 7661.681689767426
886.8575110534839 7501.010359881051
887.7908034358588 7616.035226197573
888.7238627602474 7591.0437009303905
889.6566890958475 7617.166826810261
890.5892825118208 7487.522184147999
891.5216430773125 7588.2337139451165
892.4537708614189 7511.858647396696
893.3856659332196 7493.394431887571
894.3173283617652 7420.762161994397
895.2487582160684 7496.189410475618
896.179955565116 7414.070319935969
897.110920477864 7403.298775498981
898.0416530232451 7295.967066388146
898.9721532701478 7286.712922670995
899.9024212874428 7395.509250849352
900.8324571439662 7307.649081668448
901.7622609085302 7280.377096101732
902.6918326499072 7227.307014395829
903.6211724368477 7286.281035580192
904.5502803380696 7320.994920193424
905.4791564222614 7369.571606133211
906.4078007580792 7258.831238033503
907.3362134141571 7218.053140434024
908.2643944590909 7383.453182152463
909.1923439614493 7200.343250603803
910.1200619897754 7202.911788605512
911.0475486125779 7460.308415523219
911.9748038983344 7209.081093818179
912.9018279155007 7171.222436499529
913.8286207324982 7134.279238335892
914.7551824177117 7260.816915563233
915.6815130395116 7201.127023707905
916.6076126662283 7083.030304732817
917.533481366163 7104.67177282184
918.4591192075914 7156.345290440865
919.3845262587565 7208.685673483067
920.3097025878706 7110.532118510842
921.2346482631237 7062.404816611992
922.1593633526682 7162.18633543308
923.0838479246304 7196.985960129423
924.0081020471061 7259.361488367102
924.9321257881656 7019.520294671546
925.8559192158464 7089.402474226152
926.7794823981512 7076.011505908376
927.7028154030686 6990.412541228377
928.6259182985414 6986.028989215333
929.5487911524906 7135.640404833315
930.4714340328119 7170.122332068888
931.3938470073608 6869.52825506348
932.3160301439748 6990.93811713761
933.2379835104548 7053.904644784345
934.1597071745709 7083.3332832964925
935.0812012040769 6991.966237584791
936.002465666681 6984.36062230064
936.9235006300696 7031.92268157633
937.8443061619055 6995.148215819824
938.7648823298077 6839.672822823576
939.6852292013809 6906.996543826557
940.6053468441951 7017.628148979612
941.5252353257874 6926.271496046745
942.4448947136698 6928.415664980921
943.364325075323 6959.365622980427
944.2835264782043 6916.109052275782
945.2024989897309 6940.402450295505
946.1212426773054 6869.53994628374
947.0397576082851 7021.5404174790265
947.9580438500125 7103.988253606738
948.8761014697939 7092.013140750493
949.7939305349064 7064.21213013325
950.7115311125999 6850.818592534721
951.6289032700952 6893.749471172913
952.5460470745875 7076.938736503716
953.4629625932339 6926.698201642015
954.3796498931715 6941.904719538934
955.2961090415029 7027.005096822567
956.2123401053068 6969.939629342307
957.1283431516276 6876.410808318464
958.0441182474842 6913.307345585144
958.9596654598663 7066.870327233623
959.8749848557309 6991.208558375001
960.7900765020167 6845.385415094238
961.7049404656209 6827.650664864585
962.6195768134185 6905.489369669851
963.5339856122537 6986.938259543485
964.4481669289453 6949.949024740579
965.3621208302793 6828.897373877102
966.2758473830145 6805.517103055719
967.1893466538822 6937.2894134469825
968.1026187095813 6845.82095975357
969.0156636167867 6806.942818578999
969.9284814421426 6901.185424550109
970.8410722522622 6692.700615150798
971.753436113735 6746.705056586259
972.6655730931161 6790.340691422511
973.5774832569368 6822.528384390222
974.4891666716958 6724.890802321611
975.4006234038698 6690.455868853389
976.3118535198955 6672.478130982189
977.2228570861935 6819.750917871192
978.1336341691494 6802.287048988484
979.0441848351202 6629.548352798434
979.9545091504333 6834.026167219873
980.864607181391 6737.299617819015
981.7744789942699 6748.310138641458
982.6841246553086 6665.509960835891
983.5935442307236 6700.835487628034
984.5027377867027 6738.3543585878
985.4117053894024 6710.059153251003
986.3204471049557 6547.745159384902
987.2289629994648 6715.234854332535
988.1372531390007 6806.45301028067
989.0453175896091 6726.497932735301
989.9531564173067 6716.292923257577
990.860769688079 6582.672522272129
991.7681574678918 6682.236943518085
992.6753198226706 6657.2646300812685
993.582256818323 6661.484879801607
994.4889685207218 6655.125505069605
995.3954549957143 6801.078202899873
996.301716309119 6799.114056400952
997.2077525267232 6728.65300822185
998.1135637142943 6635.152760283279
999.0191499375615 6768.232554041092
999.924511262232 6806.457860517747
1000.8296477539861 6792.554781909077
1001.7345594784656 6647.630911970513
1002.6392465012996 6672.898666816839
1003.5437088880753 6703.791310985459
1004.4479467043584 6752.224945005322
1005.3519600156869 6552.776623048065
1006.2557488875718 6702.068993364276
1007.1593133854858 6720.703741092363
1008.0626535748888 6570.326174525668
1008.9657695212009 6519.922655220883
1009.8686612898182 6743.883870209347
1010.7713289461135 6709.535783130969
1011.6737725554212 6723.512683385927
1012.5759921830577 6615.19819044209
1013.4779878943027 6632.191503421818
1014.379759754418 6722.87491103284
1015.2813078286254 6540.256283914893
1016.18263218213 6528.8534087697435
1017.0837328801026 6521.500437819044
1017.9846099876886 6597.701875870463
1018.8852635700023 6483.048438653935
1019.7856936921362 6395.645584991331
1020.6859004191447 6656.406750579095
1021.5858838160675 6389.93658103397
1022.4856439479063 6426.6315755515925
1023.3851808796389 6353.569538772068
1024.2844946762143 6541.709325277294
1025.183585402554 6547.533079867555
1026.082453123554 6328.017912182231
1026.9810979040776 6469.547595987222
1027.8795198089647 6319.016582549267
1028.777718903024 6450.65109551132
1029.6756952510368 6389.4434516938945
1030.5734489177648 6389.247688645901
1031.4709799679313 6341.154560883442
1032.3682884662358 6526.792424278249
1033.2653744773506 6252.735674911918
1034.1622380659192 6276.296882080983
1035.058879296559 6393.923447310853
1035.9552982338591 6452.585512539198
1036.8514949423825 6362.071350495149
1037.7474694866614 6383.830943823748
1038.6432219312028 6391.328338405221
1039.5387523404825 6574.9253100999285
1040.4340607789582 6448.958858520675
1041.3291473110476 6493.920072522484
1042.2240120011465 6680.000721519017
1043.1186549136273 6669.490515375837
1044.0130761128294 6608.680907169086
1044.9072756630649 6600.700536561261
1045.8012536286205 6741.885151756923
1046.6950100737577 6735.328272910369
1047.588545062701 6837.956008579468
1048.481858659663 6757.457943782234
1049.3749509288118 6895.5663417488495
1050.2678219343034 6792.79595813835
1051.1604717402515 6824.205876430123
1052.0529004107575 6699.129490404981
1052.9451080098825 6798.944376908004
1053.8370946016694 6747.4749295898455
1054.7288602501267 6763.431014396199
1055.6204050192446 6687.671537829863
1056.511728972977 6623.1183938780305
1057.402832175254 6518.48990489172
1058.2937146899785 6485.48518429628
1059.1843765810263 6487.593020981453
1060.0748179122456 6523.777071654889
1060.9650387474576 6429.649450613446
1061.855039150456 6496.431449131005
1062.7448191850071 6471.571272673647
1063.6343789148505 6417.206767810504
1064.5237184037014 6598.680129690013
1065.412837715241 6391.763607475581
1066.3017369131267 6374.459106952496
1067.190416060992 6354.41907583238
1068.0788752224398 6207.270470962753
1068.9671144610438 6234.9713230658335
1069.8551338403558 6354.072122501706
1070.7429334239023 6410.0862544087495
1071.6305132751695 6215.793876281439
1072.517873457633 6337.142767181866
1073.4050140347335 6277.6708601204955
1074.2919350698776 6331.088364188114
1075.1786366264623 6339.765879785872
1076.0651187678395 6307.472610851793
1076.95138155735 6160.218340836227
1077.8374250582929 6162.731380251736
1078.7232493339507 6245.585703596722
1079.608854447577 6190.467560894302
1080.4942404623907 6184.21165230949
1081.3794074415982 6291.303907203396
1082.2643554483657 6274.664972824643
1083.149084545841 6217.586266577169
1084.033594797138 6143.354769489246
1084.9178862653516 6157.86188639559
1085.8019590135427 6302.329754323894
1086.6858131047484 6167.652691775011
1087.5694486019802 6228.696637363513
1088.4528655682225 6159.85622940985
1089.3360640664287 6322.8076152442945
1090.2190441595321 6248.196760038341
1091.1018059104317 6248.077228792531
1091.98434938201 6288.8171068059255
1092.866674637111 6362.296043077818
1093.748781738559 6238.1947115481125
1094.6306707491512 6152.742192838718
1095.5123417316554 6250.468436543768
1096.3937947488157 6186.8324620174235
1097.2750298633455 6212.8300141602895
1098.156047137938 6081.515714328656
1099.0368466352556 6157.8483329645815
1099.9174284179317 6253.343260020449
1100.7977925485757 6021.152096722196
1101.6779390897755 6082.54726236211
1102.5578681040806 6099.171350661654
1103.4375796540226 6038.526247152992
1104.3170738021054 6016.717238298437
1105.1963506108077 5887.402826375396
1106.0754101425773 5943.113517457853
1106.9542524598382 6016.489856147414
1107.8328776249855 5888.163044481753
1108.7112857003904 5889.420337109788
1109.5894767483987 5898.718408817766
1110.4674508313292 5972.755014366119
1111.3452080114657 5830.251960965352
1112.2227483510815 5939.242384057639
1113.1000719124077 5909.582731450062
1113.9771787576592 5961.163093003101
1114.854068949022 5915.2424526460545
1115.7307425486542 5967.25406320714
1116.6071996186893 5993.547247743036
1117.483440221229 6202.500864660111
1118.3594644183577 5957.837079404328
1119.235272272128 5972.048262856277
1120.1108638445658 6011.557316082382
1120.9862391976712 6219.620468110034
1121.8613983934229 6147.291625486575
1122.7363414937627 6099.681698694609
1123.6110685606182 6128.823469698507
1124.485579655884 6223.030107425998
1125.359874841426 6160.447886767505
1126.2339541790916 6146.298921570098
1127.1078177306936 6383.1364084543475
1127.9814655580267 6182.396399564672
1128.854897722851 6232.778100870188
1129.7281142869106 6253.278213064859
1130.6011153119125 6209.140344730818
1131.473900859548 6349.892183575706
1132.3464709914697 6200.69356992659
1133.2188257693178 6262.300187071495
1134.0909652546961 6209.195178787188
1134.96288950919 6065.66061505252
1135.8345985943506 6156.25798081714
1136.7060925717087 6063.270467051247
1137.57737150277 6082.8603040070175
1138.4484354490069 6190.804187877347
1139.3192844718778 5987.9613885176595
1140.1899186327992 5880.955900821495
1141.060337993178 6097.407432892969
1141.930542614382 5978.392590516049
1142.8005325577597 5896.322876586087
1143.670307884635 5809.705266790812
1144.5398686563003 5915.072815807168
1145.409214934025 5890.904906506766
1146.2783467790541 5674.415280651962
1147.1472642526023 5836.540625904883
1148.0159674158622 5910.950851596318
1148.8844563300026 5721.631491586899
1149.7527310561618 5627.150019837778
1150.6207916554504 5626.494465090947
1151.4886381889592 5610.6387380828255
1152.3562707177498 5737.192867003314
1153.2236893028585 5580.298506145328
1154.090894005296 5526.8575969434005
1154.9578848860474 5653.998735016148
1155.8246620060709 5706.788003737676
1156.6912254262988 5499.459250459749
1157.5575752076438 5550.031946877376
1158.42371141098 5687.977113179319
1159.2896340971656 5694.257431239745
1160.1553433270346 5605.37830795082
1161.0208391613887 5592.539612471659
1161.8861216610057 5552.303364909689
1162.75119088664 5584.0800058275
1163.6160468990201 5543.614821274662
1164.4806897588442 5439.215782923994
1165.3451195267917 5526.629869406765
1166.2093362635114 5578.773705457554
1167.0733400296285 5553.822561926683
1167.9371308857444 5481.061781153604
1168.8007088924278 5490.483254679055
1169.6640741102328 5539.656278157818
1170.5272265996773 5453.016591845717
1171.390166421259 5337.564732863213
1172.252893635452 5524.077923371973
1173.1154083026995 5546.956407630076
1173.977710483421 5486.288449649384
1174.8398002380145 5400.340282727983
1175.7016776268483 5525.727003404853
1176.563342710264 5385.31651807533
1177.4247955485826 5453.336707252036
1178.2860362020947 5527.593188132171
1179.147064731069 5316.008687137236
1180.0078811957483 5456.0152353146095
1180.8684856563486 5384.054353665133
1181.7288781730604 5438.091055251811
1182.589058806052 5516.947073553072
1183.4490276154593 5621.653427679363
1184.3087846614017 5456.64171491443
1185.1683300039676 5468.4452015003035
1186.027663703222 5625.998089335024
1186.8867858192025 5515.723323921731
1187.7456964119228 5416.483647048235
1188.6043955413716 5593.172639322235
1189.4628832675116 5528.750264836288
1190.3211596502842 5680.88328929458
1191.179224749596 5602.560255952197
1192.0370786253388 5512.928709387209
1192.8947213373758 5680.106092935392
1193.7521529455407 5856.351389387322
1194.6093735096438 5473.073553320353
1195.466383089477 5534.796537362431
1196.3231817447977 5501.571680436773
1197.1797695353398 5758.103752291294
1198.0361465208189 5395.739568211292
1198.8923127609214 5489.538758791636
1199.7482683153048 5643.100480600857
1200.6040132436028 5668.28127629456
1201.459547605431 5563.859034042648
1202.3148714603722 5614.615358415838
1203.1699848679855 5598.194411719353
1204.0248878878065 5727.11198494497
1204.8795805793507 5340.147951804583
1205.7340630020935 5572.568213239092
1206.5883352155033 5598.3220580775405
1207.4423972790064 5689.40384495787
1208.2962492520237 5396.08213739407
1209.1498911939307 5536.152889582455
1210.0033231640937 5540.904686668608
1210.8565452218427 5382.210658290285
1211.7095574264913 5230.989009585422
1212.5623598373222 5269.083478682345
1213.4149525135963 5290.179770370039
1214.2673355145507 5385.110684688608
1215.1195088993936 5233.061687706924
1215.9714727273113 5285.209291100668
1216.8232270574663 5408.7369110166965
1217.6747719489904 5077.0787884973715
1218.5261074609934 5121.283087089417
1219.3772336525653 5313.575670649455
1220.2281505827668 5310.1056429041655
1221.0788583106296 5360.1690099352545
1221.9293568951707 5142.163978072736
1222.7796463953746 5111.075621165017
1223.629726870202 5299.833319941361
1224.4795983785934 5207.892821419158
1225.3292609794553 5155.496699099711
1226.1787147316809 5047.6787331101195
1227.0279596941327 5241.34984212591
1227.8769959256424 5061.371628032312
1228.7258234850306 5331.234328123194
1229.5744424310833 5018.230460827003
1230.422852822563 5309.413383306631
1231.2710547182105 5326.908146228587
1232.119048176739 5174.3769808532825
1232.9668332568417 4973.425347506311
1233.8144100171812 5208.668300993416
1234.6617785163999 5237.763795647208
1235.508938813111 4951.0913744191075
1236.3558909659114 5044.016776595835
1237.2026350333617 5194.782018203032
1238.049171074008 5268.011023970525
1238.8954991463652 5099.123160995626
1239.741619308932 5106.466579025997
1240.587531620169 5169.376653951664
1241.4332361385277 5231.083525526936
1242.2787329224248 5049.025131258559
1243.1240220302534 5011.417309805822
1243.9691035203869 5055.645063459726
1244.813977451171 5196.427732824161
1245.6586438809263 5151.074903909122
1246.5031028679496 4916.03420778446
1247.3473544705157 5148.142951811886
1248.1913987468706 5128.14483139055
1249.0352357552383 4996.119328854363
1249.8788655538228 4987.533788595729
1250.7222882007918 5188.084394639956
1251.565503754302 5184.421802829189
1252.4085122724755 4931.6147313168
1253.2513138134182 5117.4423919518795
1254.0939084352049 5133.63109418905
1254.9362961958905 5089.639072144268
1255.7784771535007 5052.570263960404
1256.6204513660432 5112.317717709782
1257.4622188915 5272.787682904758
1258.3037797878242 5129.831301188019
1259.1451341129468 4950.6979489129635
1259.9862819247755 5123.175390588102
1260.8272232811978 5093.182662309443
1261.6679582400666 5215.338160699659
1262.5084868592203 5042.354968657445
1263.34880919647 5023.009570201184
1264.1889253095997 5093.818258605502
1265.0288352563712 5173.846374829602
1265.8685390945266 5069.097942505639
1266.7080368817751 5129.088271966921
1267.5473286758115 5202.412276722415
1268.386414534294 5242.881863459958
1269.2252945148703 4965.811468955415
1270.0639686751547 4979.85365686404
1270.9024370727402 5061.105865023056
1271.7406997651997 5034.883910273375
1272.5787568100714 4831.619654314785
1273.4166082648808 4999.368173622796
1274.2542541871244 5045.240365318872
1275.091694634275 5206.661689059209
1275.9289296637817 4835.614355829562
1276.7659593330663 5142.851642699161
1277.6027836995308 5053.523926977001
1278.4394028205552 5162.632479057989
1279.2758167534867 5062.497806167756
1280.112025555658 5107.986460830836
1280.9480292843746 5043.323817057592
1281.7838279969128 4953.7216442196905
1282.6194217505326 4953.403615940904
1283.4548106024686 4889.336309063865
1284.289994609926 4997.604952561947
1285.1249738300921 5045.191133015519
1285.959748320127 4877.736758992384
1286.7943181371702 4900.061399468745
1287.6286833383328 4954.771033863092
1288.4628439807038 5056.607248456775
1289.2968001213521 4878.398342134018
1290.1305518173194 4950.38921892969
1290.9640991256183 5116.206285791906
1291.7974421032523 4870.013319299844
1292.630580807183 4816.56498564964
1293.463515294361 5047.986223397961
1294.29624562171 5088.616949760336
1295.12877184613 4881.240314117349
1295.961094024493 4942.01060363195
1296.79321221365 5015.727641583379
1297.6251264704333 4993.637797054456
1298.4568368516466 5272.955852780396
1299.2883434140658 5032.080478487918
1300.1196462144526 4802.179746524322
1300.9507453095375 5047.427638617253
1301.7816407560313 5025.865595452795
1302.6123326106172 5078.889696082557
1303.4428209299622 4964.269303078685
1304.2731057707024 5247.051543783065
1305.1031871894502 5045.549980717646
1305.933065242798 5126.173079926428
1306.7627399873181 5136.907948468607
1307.5922114795467 5404.1423136332005
1308.4214797760123 5448.484831931654
1309.2505449332057 5068.901783488983
1310.0794070076026 5163.904058694621
1310.9080660556538 5230.815498064252
1311.736522133786 5253.987528104527
1312.5647752983987 5121.75141923591
1313.3928256058734 5058.122913426336
1314.2206731125661 5247.020008232457
1315.048317874809 5227.621633603327
1315.8757599489109 5180.490246720068
1316.7029993911547 5197.366432662118
1317.5300362578055 5349.596977515965
1318.356870605101 5134.342797660111
1319.183502489257 5089.727935536704
1320.0099319664623 5184.789592987321
1320.836159092889 5255.846419247215
1321.66218392468 5315.516865970587
1322.4880065179532 5056.910712812601
1323.3136269288134 5196.0230882415135
1324.1390452133292 5333.985430980608
1324.9642614275563 5343.585047715589
1325.7892756275214 5093.031765054603
1326.6140878692295 5090.629940802197
1327.4386982086617 5518.57734449658
1328.2631067017755 5255.84292356212
1329.0873134045069 5218.757905866818
1329.911318372764 5113.836878214307
1330.735121662441 5087.2964717326495
1331.558723329399 5055.365873509263
1332.3821234294774 4933.53800264812
1333.2053220185007 5115.450717621036
1334.0283191522612 5047.19997150414
1334.851114886529 5103.607693816766
1335.6737092770582 4918.252421444852
1336.4961023795695 4996.917371512414
1337.3182942497697 4809.4484536881155
1338.1402849433325 4948.119603403665
1338.962074515921 4744.156491244118
1339.7836630231632 4771.915862366083
1340.6050505206676 5131.952163356991
1341.426237064028 4935.655244370786
1342.2472227088037 4805.190894803274
1343.0680075105338 4663.152703993843
1343.888591524741 4805.949317706451
1344.7089748069138 4870.253852391363
1345.5291574125276 4846.560575326706
1346.3491393970307 4613.317959744102
1347.168920815846 4847.8037476306545
1347.9885017243778 4767.876804224159
1348.8078821780036 4769.374882299479
1349.6270622320844 4715.149830096198
1350.4460419419447 4688.894483573874
1351.2648213629054 4797.46329436929
1352.0834005502438 4522.013737766399
1352.90177955923 4577.967336927969
1353.7199584451064 4749.439638674532
1354.5379372630887 4721.195813101969
1355.355716068374 4621.423178485845
1356.1732949161305 4626.298311803528
1356.9906738615155 4669.0433749101485
1357.8078529596478 4594.084597047619
1358.6248322656375 4815.580557769622
1359.441611834567 4522.43446975501
1360.2581917214866 4833.356536896397
1361.0745719814367 4699.2313706597615
1361.890752669433 4625.933337508965
1362.7067338404577 4516.56335411193
1363.5225155494845 4743.5766881956315
1364.3380978514506 4769.082560633284
1365.1534808012839 4484.664701078871
1365.9686644538815 4408.641756842875
1366.783648864117 4715.8136985955425
1367.5984340868417 4709.5752248050185
1368.413020176893 4628.916055115452
1369.2274071890715 4458.247811061193
1370.0415951781652 4727.006147638407
1370.8555841989346 4667.94006116363
1371.6693743061223 4378.290538890642
1372.48296555444 4412.261292118752
1373.2963579985844 4617.6474236022
1374.1095516932255 4577.5928589474115
1374.9225466930166 4299.184523830708
1375.7353430525782 4576.850853002428
1376.5479408265164 4404.955144139355
1377.36034006941 4636.629739008398
1378.1725408358216 4512.738526942926
1378.9845431802805 4367.863665404669
1379.796347157304 4691.46658014471
1380.6079528213813 4556.693577509197
1381.4193602269788 4331.76507269767
1382.230569428546 4371.311971343099
1383.0415804805016 4460.776160801058
1383.852393437246 4517.594966165441
1384.6630083531563 4439.19013369403
1385.4734252825892 4412.228742954524
1386.2836442798798 4384.115953211714
1387.0936653993322 4524.766617142825
1387.9034886952395 4444.865755702294
1388.713114221864 4527.905282834776
1389.5225420334482 4509.684301026938
1390.331772184214 4412.141110528205
1391.1408047283585 4313.362648574854
1391.9496397200564 4507.3069912199635
1392.758277213461 4476.335928833939
1393.5667172627054 4586.162160283701
1394.3749599218918 4414.618398738342
1395.1830052451114 4244.48031408762
1395.9908532864265 4354.114994416118
1396.7985040998774 4589.754672899041
1397.6059577394808 4342.045711216783
1398.4132142592352 4392.301284908252
1399.2202737131156 4316.582301867905
1400.027136155073 4586.453285808262
1400.8338016390353 4470.616305623643
1401.6402702189134 4370.775063792329
1402.446541948586 4387.348982523106
1403.2526168819204 4261.651012950488
1404.058495072757 4306.225449978407
1404.8641765749107 4420.249425727508
1405.6696614421799 4343.5660417272065
1406.4749497283356 4782.2707423751
1407.280041487129 4338.041669664797
1408.084936772295 4188.756689810832
1408.8896356375335 4465.372339957683
1409.6941381365323 4441.006848634589
1410.498444322955 4207.442140094063
1411.3025542504402 4347.826641405944
1412.106467972606 4376.1209446923995
1412.9101855430508 4372.182935646872
1413.7137070153458 4124.266058905055
1414.5170324430437 4245.052050656042
1415.320161879672 4375.9310409577265
1416.1230953787435 4578.604613779696
1416.925832993742 4273.284354113798
1417.7283747781275 4094.8032057515497
1418.5307207853439 4344.829283034359
1419.3328710688093 4313.641856082948
1420.134825681922 4068.742696588238
1420.9365846780584 4216.497825682485
1421.7381481105713 4421.335824171101
1422.539516032788 4388.633785447735
1423.3406884980232 4143.176576373001
1424.1416655595604 4246.806762003418
1424.942447270665 4205.868754982593
1425.7430336845828 4273.5712751938445
1426.5434248545298 4144.800757989995
1427.3436208337116 4371.709298521756
1428.143621675301 4296.311363401011
1428.9434274324558 4406.672298396103
1429.7430381583108 4092.802744262122
1430.5424539059713 4216.680327028059
1431.3416747285337 4579.683267012165
1432.1407006790632 4375.367788556884
1432.9395318106053 4305.195922036475
1433.7381681761835 4155.909480334407
1434.5366098288014 4178.312218806177
1435.3348568214424 4254.286828177402
1436.1329092070573 4181.000735524088
1436.9307670385879 4313.499801250521
1437.7284303689503 4372.5738496595295
1438.5258992510335 4418.198842845329
1439.3231737377118 4306.253609197207
1440.1202538818306 4251.062130562346
1440.9171397362225 4292.635978096068
1441.7138313536925 4281.481168117148
1442.5103287870243 4178.601063141021
1443.3066320889775 4105.172907630278
1444.1027413122956 4334.359913129174
1444.8986565096966 4251.588195449575
1445.694377733882 4195.939255632521
1446.4899050375207 4088.9481923317567
1447.2852384732687 4184.636801547982
1448.0803780937622 4288.897863586357
1448.8753239516063 4034.4847492243143
1449.6700760993954 3998.6477746393016
1450.464634589689 4093.8845358939266
1451.2589994750397 4360.281910097302
1452.0531708079689 3982.995140702842
1452.8471486409799 3986.4766869459845
1453.6409330265524 4331.149426949554
1454.4345240171442 4040.116413201272
1455.2279216651987 3981.092492654978
1456.0211260231263 4099.061015961864
1456.8141371433194 4480.704982190101
1457.6069550781594 4143.276921773772
1458.3995798799897 3916.7435915391457
1459.1920116011424 3952.2085995877023
1459.98425029393 3873.312596994
1460.7762960106338 3908.1664537558017
1461.5681488035225 3975.5772734048637
1462.3598087248392 3999.918516726103
1463.1512758268036 4215.256332442353
1463.942550161617 3918.521642848644
1464.7336317814625 3932.219460617139
1465.524520738496 3983.2873423376377
1466.3152170848552 3911.7902745856327
1467.1057208726506 3985.692229534446
1467.8960321539817 3916.357283459919
1468.6861509809169 3761.95213607846
1469.4760774055085 3922.1608025095784
1470.265811479785 3896.058440122551
1471.055353255755 3757.2301007421615
1471.844702785409 3827.4796517394943
1472.6338601207044 3789.2768110742227
1473.4228253135934 3921.331748346359
1474.2115984159936 3757.238150354761
1475.0001794798063 3617.3056220744716
1475.7885685569145 3606.1861758470077
1476.576765699172 3838.192170455877
1477.3647709584238 3803.91758017516
1478.1525843864802 4009.321769690368
1478.9402060351367 3829.290199557608
1479.7276359561693 3790.9733555191497
1480.514874201328 3676.847536535873
1481.3019208223468 3617.927073873741
1482.0887758709323 3558.2615609490686
1482.8754393987747 3862.0392415716037
1483.6619114575406 3617.318408191876
1484.4481920988783 3657.05156083048
1485.2342813744108 3731.8687278419043
1486.0201793357446 3909.959373413569
1486.8058860344572 3652.1168541914108
1487.591401522117 3771.8750503427837
1488.3767258502594 3767.821597712994
1489.1618590704056 3712.7283748099244
1489.9468012340494 3495.934626485553
1490.7315523926754 3721.2845306392787
1491.5161125977356 3770.734016108296
1492.3004819006637 3757.0491189793584
1493.084660352877 3526.3779989214113
1493.8686480057622 3732.38282588019
1494.6524449106964 3912.93257213077
1495.4360511190262 3816.10712752263
1496.219466682087 3693.4907129782505
1497.0026916511779 3715.935022873313
1497.7857260775945 3657.085302965815
1498.5685700125996 3777.638299227019
1499.3512235074395 3534.9870971246637
1500.133686613337 3574.789495263519
1500.9159593814966 3654.862244719438
1501.698041863101 4016.401588906004
1502.4799341093094 3503.641148185362
1503.2616361712662 3431.7384527561358
1504.043148100087 3609.9769050642353
1504.8244699468742 3701.4992620787843
1505.6056017626997 3494.1761382835407
1506.3865435986281 3487.3502523103716
1507.1672955056893 3702.6801417394076
1507.9478575348967 3518.7361724067023
1508.7282297372512 3749.1395418544553
1509.5084121637192 3520.561176789613
1510.2884048652577 3626.9220463189695
1511.0682078927948 3553.6667229874556
1511.8478212972423 3515.7074934394054
1512.6272451294917 3482.143829280365
1513.4064794404076 3607.3258381206115
1514.1855242808433 3731.720334740522
1514.9643797016215 3539.867576195541
1515.743045753552 3659.224232664613
1516.5215224874191 3604.7292680994046
1517.2998099539836 3437.7382954625655
1518.077908203999 3608.249765516425
1518.8558172881785 3567.149178752964
1519.633537257234 3660.4121680912112
1520.4110681618404 3678.340439864614
1521.1884100526604 3606.05798914556
1521.9655629803365 3523.3404642009796
1522.7425269954856 3748.799309715871
1523.5193021487103 3948.242577225015
1524.2958884905856 3482.5696077163107
1525.0722860716687 3545.8554012983236
1525.848494942502 3533.7068596995546
1526.624515153595 3568.140132701422
1527.4003467554485 3573.7078453979943
1528.175989798534 3655.5016888397317
1528.9514443333064 3645.0844590746374
1529.726710410203 3860.5656512648407
1530.5017880796331 3463.284220221017
1531.276677391992 3598.6828255732703
1532.0513783976457 3886.5557188716075
1532.825891146953 3670.3850021394087
1533.6002156902414 3700.310382933687
1534.3743520778207 3586.865445828611
1535.1483003599806 3511.6424019815377
1535.9220605869923 3568.822211124277
1536.6956328091019 3670.8043296937053
1537.4690170765407 3661.006122176738
1538.242213439511 3606.152171136176
1539.015221948208 3576.815870762998
1539.78804265279 3599.687723586618
1540.560675603405 3486.474248038737
1541.3331208501804 3649.7641767791347
1542.1053784432224 3798.165821455141
1542.8774484326168 3587.7583497427636
1543.649330868422 3528.3994052596827
1544.4210258006842 3596.164515246333
1545.1925332794308 3688.451773286391
1545.9638533546604 3538.0967364300873
1546.7349860763552 3479.664175273865
1547.5059314944829 3732.9859167934947
1548.27668965898 3538.5746645719373
1549.0472606197673 3612.195098577698
1549.817644426752 3500.873474062801
1550.5878411298072 3692.6563813287403
1551.3578507787988 3595.5285914248752
1552.1276734235635 3417.63734882133
1552.8973091139233 3571.954979151297
1553.6667578996767 3614.3523904652493
1554.436019830604 3506.63852762619
1555.20509495646 3475.701778934627
1555.9739833269869 3463.518210844564
1556.7426849919011 3508.665372549988
1557.511200000903 3627.0500530679465
1558.2795284036674 3610.4305238778716
1559.0476702498509 3394.6066242960624
1559.8156255890954 3689.0893203995447
1560.5833944710157 3875.5399376925357
1561.3509769452048 3464.844068597699
1562.1183730612447 3500.0468068955934
1562.8855828686865 3580.7925219567974
1563.6526064170703 3779.7803292076487
1564.4194437559127 3682.9683650806737
1565.1860949347047 3499.278116740148
1565.9525600029283 3753.453937444203
1566.7188390100328 3839.2428818354165
1567.4849320054564 3574.2181766601084
1568.250839038612 3466.7253852230847
1569.0165601588997 3569.810946579398
1569.7820954156887 3590.6857692992644
1570.5474448583373 3548.4451506764563
1571.31260853618 3488.0168463721975
1572.0775864985299 3397.8765132527637
1572.8423787946813 3539.39570062596
1573.6069854739108 3422.9653210395854
1574.371406585471 3573.5451510476837
1575.1356421785986 3607.2859650464134
1575.899692302506 3400.5041501534492
1576.6635570063845 3548.093712608268
1577.4272363394157 3532.501813391521
1578.190730350747 3403.5916206744864
1578.9540390895163 3556.866121271048
1579.7171626048384 3371.654777782375
1580.480100945806 3326.3206319773467
1581.2428541614918 3478.63385461549
1582.0054223009538 3574.687433964458
1582.767805413223 3478.4856994214197
1583.5300035473156 3542.4866244588434
1584.292016752228 3693.2406121405847
1585.0538450769309 3609.7626468041963
1585.8154885703807 3373.5833759250745
1586.5769472815136 3419.444557939228
1587.3382212592405 3423.475377025571
1588.099310552463 3550.226445890408
1588.8602152100484 3747.420285688386
1589.6209352808564 3632.971222408557
1590.3814708137234 3427.722008958117
1591.14182185746 3548.337710996474
1591.9019884608679 3381.5514137585983
1592.6619706727215 3298.135012756178
1593.4217685417734 3522.2508329029324
1594.1813821167616 3683.320484688645
1594.9408114464022 3385.4463092520527
1595.7000565793933 3336.690574075225
1596.459117564409 3515.0741350889234
1597.2179944501113 3279.3591920341787
1597.9766872851324 3328.4610619980035
1598.735196118092 3504.1652247680563
1599.4935209975883 3427.3371059013743
1600.2516619721973 3571.2906074986495
1601.0096190904787 3330.901140628109
1601.7673924009723 3299.3077050382462
1602.524981952196 3334.0932412914617
1603.2823877926476 3351.5375275237675
1604.0396099708087 3197.1074845547532
1604.7966485351371 3311.3647187972892
1605.5535035340745 3279.6439116088086
1606.3101750160404 3460.5153391949834
1607.0666630294363 3285.803340163551
1607.822967622642 3181.5787230561855
1608.5790888440224 3329.03509053612
1609.3350267419137 3519.288651295768
1610.0907813646445 3338.3272345581295
1610.8463527605145 3194.4734212641333
1611.601740977805 3312.7364305344927
1612.356946064785 3336.5673006180077
1613.1119680696902 3103.8816483684395
1613.8668070407512 3259.6631620646804
1614.6214630261748 3179.018620327371
1615.375936074137 3436.234711901036
1616.1302262328118 3336.1155350119757
1616.8843335503425 3362.6306096110466
1617.638258074854 3270.93645195479
1618.391999854457 3329.469270409395
1619.1455589372363 3351.8119619722665
1619.8989353712623 3287.6984369867955
1620.65212920458 3164.0633289598895
1621.4051404852235 3155.678645611445
1622.1579692611976 3159.8502480767374
1622.9106155804966 3129.452411157213
1623.663079491087 3164.7011077611764
1624.4153610409248 3319.6014036532297
1625.1674602779385 3242.069317663513
1625.9193772500403 3191.265132597754
1626.6711120051277 3538.552342700911
1627.4226645910676 3295.5725112934765
1628.174035055721 3110.7767017572196
1628.9252234469168 3324.742474855034
1629.676229812474 3223.3654641493627
1630.4270542001905 3507.325009935276
1631.1776966578382 3289.93926788997
1631.9281572331747 3275.646861136455
1632.678435973945 3433.561754589613
1633.4285329278573 3348.2867850094617
1634.1784481426203 3017.1772117654555
1634.9281816659113 3194.5642088393406
1635.677733545388 3484.7031192177296
1636.4271038286934 3255.2792904995604
1637.176292563452 3312.405531724703
1637.9252997972635 3339.022547950716
1638.674125577716 3436.3497335191014
1639.4227699523672 3655.292846913376
1640.171232968767 3147.6310922775074
1640.9195146744423 3329.2357334956614
1641.6676151168977 3545.4977079838573
1642.4155343436178 3599.7484850657806
1643.1632724020765 3393.0064445378134
1643.9108293397167 3322.583428722229
1644.658205203974 3355.7270749166228
1645.4054000422566 3769.7826075370745
1646.1524139019566 3433.540656250459
1646.8992468304423 3302.427723268635
1647.6458988750728 3301.6124183204847
1648.3923700831765 3423.086147782667
1649.1386605020743 3233.9864792869776
1649.8847701790564 3524.6480806935565
1650.6306991614038 3395.4630563645924
1651.3764474963682 3463.673468172007
1652.1220152311944 3248.2631993966197
1652.867402413096 3409.157415747145
1653.6126090892776 3428.228775411296
1654.3576353069184 3557.1724412943395
1655.1024811131829 3463.275649103454
1655.8471465552066 3326.8646561827313
1656.5916316801213 3457.8645801964167
1657.3359365350298 3398.958658876475
1658.0800611670165 3238.2144007178904
1658.824005623148 3386.3391916461414
1659.5677699504722 3282.9836393106634
1660.3113541960192 3431.130407916347
1661.054758406799 3348.734586659174
1661.7979826297997 3267.4459978567083
1662.5410269119966 3278.732138289569
1663.283891300338 3413.20638752017
1664.0265758417645 3167.526157497846
1664.7690805831826 3339.9622829933337
1665.5114055714948 3359.8370063933335
1666.2535508535748 3658.410347605307
1666.9955164762814 3158.0848811204123
1667.7373024864555 3270.703883650467
1668.478908930916 3314.4013090124463
1669.220335856462 3333.0677528739457
1669.9615833098778 3101.4485582191273
1670.7026513379296 3101.9837055221383
1671.44353998736 3219.23567492133
1672.1842493048916 3294.0502664011765
1672.9247793372379 3135.4766325211494
1673.6651301310812 3294.2907795785454
1674.4053017330934 3083.210223355626
1675.1452941899242 3328.523482198737
1675.885107548207 2854.1691150482848
1676.6247418545518 2940.8976786144303
1677.3641971555535 3096.511828222041
1678.1034734977893 3273.0311655027726
1678.8425709278108 3062.6069097968766
1679.5814894921605 3291.38732780906
1680.320229237359 3232.6554188485125
1681.0587902098978 3267.2220432328786
1681.7971724562685 3048.9851969871947
1682.5353760229264 2939.1996761875334
1683.2734009563173 3223.6269098046423
1684.0112473028657 3016.412194081061
1684.7489151089794 3126.617446981486
1685.4864044210462 3221.158684051874
1686.2237152854377 2809.2559943755855
1686.960847748498 3161.5393136313687
1687.6978018565642 2952.7234508718807
1688.434577655944 2963.986958278044
1689.1711751929379 2883.9899655245126
1689.9075945138156 3022.409622030004
1690.6438356648396 3038.270322093122
1691.3798986922448 2667.167522848624
1692.1157836422499 2962.052879305161
1692.851490561059 2827.421879453287
1693.587019494853 3074.353514124291
1694.3223704897991 2829.0112277342487
1695.0575435920364 2699.234346495138
1695.792538847696 3089.102964996876
1696.527356302886 2886.7686931673875
1697.2619960036936 2663.7394668788957
1697.9964579961907 2720.6144523670614
1698.730742326432 2587.375266407033
1699.4648490404488 2605.5868758439665
1700.1987781842563 2754.9814796373544
1700.9325298038548 2905.3378482543762
1701.6661039452174 2951.0637337752273
1702.3995006543082 2840.6488860431305
1703.1327199770658 2862.3719676500323
1703.865761959416 2678.5245475339907
1704.598626647261 2835.743411330515
1705.3313140864866 2676.905277726174
1706.0638243229587 2667.424541974737
1706.7961574025303 2838.598486279124
1707.528313371029 2639.627010270239
1708.260292274268 2578.3111219687944
1708.9920941580403 2805.7054478099876
1709.7237190681226 2646.42982876641
1710.4551670502697 2706.5522383099005
1711.18643815022 2614.8177441712533
1711.9175324136959 3001.540625708974
1712.6484498863938 2679.3359467986697
1713.379190614005 2529.7177385606146
1714.109754642188 2674.7740873644043
1714.8401420165883 2637.5079977372934
1715.570352782839 3086.627889085205
1716.3003869865497 2778.323928385443
1717.0302446733076 2489.622116043653
1717.7599258886876 2609.67160655863
1718.4894306782444 3005.9796546679363
1719.2187590875183 2523.120771092232
1719.9479111620203 2684.4846987128094
1720.6768869472544 2549.107377344602
1721.4056864887025 2839.5685983599983
1722.1343098318284 2919.2158218573677
1722.8627570220742 2665.232653706292
1723.591028104871 2605.2166321767318
1724.3191231256242 2474.3916578658254
1725.0470421297232 2640.2229983133916
1725.7747851625427 2735.3789499496174
1726.5023522694337 2734.817924608848
1727.2297434957363 2673.0408638120266
1727.9569588867635 2503.2891202989804
1728.6839984878152 2632.7291085782413
1729.4108623441734 2351.9799263463556
1730.1375505011038 2736.2568927831785
1730.8640630038426 2523.7918170963812
1731.5903998976264 2486.7791462289797
1732.316561227657 2662.7426867453664
1733.0425470391274 2342.9216958570314
1733.7683573772065 2708.44179823818
1734.4939922870508 2514.181655425064
1735.2194518137949 2606.138958419143
1735.9447360025606 2560.3373890140397
1736.669844898439 2535.590010942024
1737.3947785465189 2390.8006210283943
1738.1195369918605 2457.075885444441
1738.8441202795093 2549.2484161801835
1739.5685284544943 2645.952250513147
1740.292761561821 2581.8942353793345
1741.0168196464838 2636.3384210021773
1741.7407027534518 2541.361500823373
1742.464410927687 2602.7082784714494
1743.187944214118 2474.6889209146357
1743.9113026576688 2540.885044815316
1744.634486303241 2542.798159666337
1745.3574951957125 2507.979876663064
1746.0803293799509 2629.515172254488
1746.8029889008048 2595.789789077123
1747.5254738031017 2647.698342138283
1748.2477841316504 2511.398073091925
1748.969919931249 2449.787642000149
1749.6918812466665 2601.529270444124
1750.4136681226646 2606.473681930921
1751.1352806039777 2447.146454106921
1751.856718735331 2247.9917779156694
1752.5779825614281 2353.749808619717
1753.2990721269507 2595.906434333626
1754.0199874765676 2537.362115587111
1754.7407286549314 2351.6037369527885
1755.4612957066693 2485.9745966493083
1756.1816886763954 2461.0806171618015
1756.9019076087097 2527.31276824258
1757.6219525481865 2541.7268640879624
1758.3418235393856 2538.6414245176607
1759.061520626854 2470.320173872777
1759.7810438551096 2662.6787594358493
1760.5003932686614 2378.543677218672
1761.2195689119999 2499.6099323938683
1761.938570829594 2536.140947152394
1762.657399065898 2594.841464350489
1763.376053665348 2341.144580981522
1764.0945346723602 2351.425111586448
1764.812842131334 2589.253792029492
1765.5309760866512 2392.235838302744
1766.2489365826787 2373.9060973819646
1766.9667236637597 2414.818371601037
1767.684337374223 2303.523027614387
1768.401777758383 2391.279361459521
1769.1190448605284 2402.5590380118056
1769.836138724937 2275.311725176358
1770.5530593958665 2400.8134949777896
1771.2698069175603 2607.5846170755094
1771.9863813342326 2434.8409353275833
1772.702782690094 2383.3414535995907
1773.4190110293293 2580.083446235765
1774.1350663961111 2547.3806682613003
1774.8509488345844 2386.7325026882068
1775.5666583888924 2458.007726048971
1776.2821951031437 2574.007625674181
1776.9975590214362 2366.272873032193
1777.7127501878585 2494.346870710964
1778.4277686464684 2564.2393567242425
1779.1426144413108 2595.1218368233776
1779.8572876164162 2578.0953058422297
1780.571788215797 2175.8535225582445
1781.2861162834415 2357.159364463163
1782.0002718633277 2328.9392726332353
1782.7142549994132 2479.4026826129757
1783.4280657356376 2573.653247658412
1784.141704115922 2338.7974904359953
1784.855170184177 2364.141754530413
1785.5684639842839 2458.854092895243
1786.2815855601148 2156.6144129302184
1786.9945349555237 2446.1954065926966
1787.707312214343 2265.842597254769
1788.4199173803918 2658.298183063505
1789.132350497468 2418.99310956656
1789.8446116093583 2287.4354794961646
1790.556700759822 2312.639731647799
1791.2686179926077 2328.228740651501
1791.9803633514493 2250.213293223941
1792.6919368800554 2275.567142218889
1793.4033386221236 2393.1859833259155
1794.1145686213295 2563.3088836228094
1794.8256269213307 2571.752376721305
1795.536513565774 2400.8175973584753
1796.247228598284 2071.2788215486444
1796.9577720624693 2306.518644586012
1797.6681440019165 2272.7351833239954
1798.3783444602013 2431.2544212895264
1799.0883734808776 2472.2664590711915
1799.7982311074884 2429.1765861284885
1800.5079173835475 2462.5526618186386
1801.2174323525633 2471.895937190052
1801.9267760580187 2300.2510297460026
1802.635948543386 2434.8535782672557
1803.3449498521113 2227.198768162709
1804.0537800276325 2434.614394002118
1804.7624391133668 2322.6854850644277
1805.47092715271 2263.664715919086
1806.1792441890484 2153.222468523351
1806.8873902657433 2466.6070731020636
1807.5953654261448 2275.745852718594
1808.3031697135812 2382.889785246868
1809.0108031713662 2307.281398708925
1809.71826584279 2301.3975915073306
1810.425557771141 2316.232431116498
1811.1326789996747 2705.805921540271
1811.839629571632 2396.419652163319
1812.5464095302468 2304.218583785285
1813.2530189187182 2351.1472573279216
1813.959457780249 2328.778912649852
1814.6657261580076 2461.661665265954
1815.371824095153 2266.4006485269797
1816.0777516348262 2436.202498248277
1816.78350882015 1994.2405153872683
1817.4890956942272 2206.0423046179085
1818.1945123001533 2158.689344810361
1818.8997586809928 2287.1772785732637
1819.6048348798067 2117.537428140407
1820.3097409396287 2349.2239909648697
1821.0144769034796 2631.3938289036096
1821.7190428143622 2464.766707243933
1822.423438715261 2441.401830173737
1823.1276646491478 2173.515134378226
1823.8317206589727 2281.6666509455927
1824.5356067876692 2341.058810013757
1825.2393230781581 2307.9788940963626
1825.942869573335 2085.722972560562
1826.646246316086 2090.3752662273696
1827.3494533492758 2357.4194540647654
1828.052490715756 2424.4364657315296
1828.7553584583547 2361.1342026085026
1829.458056619891 2371.085132247061
1830.1605852431585 2266.6330298745183
1830.8629443709433 2124.3057619335186
1831.5651340460063 2214.516142183577
1832.2671543110919 2030.1242598349677
1832.9690052089318 2370.2752928017094
1833.6706867822395 2040.9103949412552
1834.3721990737104 2223.938897477901
1835.0735421260233 2334.8506467655175
1835.774715981841 2187.462774243883
1836.4757206838058 2425.6845915273325
1837.1765562745459 2093.362926668058
1837.8772227966747 2089.496145197034
1838.5777202927839 2231.864521051945
1839.2780488054523 2114.154183647727
1839.9782083772352 2143.3943325565315
1840.6781990506806 2483.4528208207307
1841.378020868313 2191.8627198079116
1842.0776738726418 2291.458618309388
1842.777158106157 2102.2028136100444
1843.4764736113375 2131.942881041171
1844.1756204306403 2312.2300795801198
1844.8745986065078 2328.0349004966424
1845.5734081813607 1953.1544248231853
1846.2720491976124 2217.473516619882
1846.970521697649 2180.708137371662
1847.6688257238511 2255.992829800523
1848.3669613185684 2206.5459323871482
1849.0649285241452 1966.4098573238414
1849.7627273829057 2107.965909854358
1850.460357937156 2166.8298616637094
1851.1578202291857 2024.4233593646368
1851.8551143012664 2152.049331329086
1852.5522401956569 2170.7285373276904
1853.2491979545957 2405.9815140262963
1853.9459876203055 2095.737634132052
1854.6426092349902 1997.5853515928688
1855.3390628408451 2087.551075581638
1856.0353484800362 2445.2822739766584
1856.7314661947203 2260.61328653398
1857.4274160270397 2067.093228564974
1858.123198019115 2036.7356434077512
1858.8188122130487 2062.581994231424
1859.5142586509319 2124.8308818862374
1860.209537374838 2182.827561959451
1860.9046484268183 2244.358716744845
1861.599591848917 2409.2596358287074
1862.294367683151 2249.46693026077
1862.988975971528 2112.001732006079
1863.6834167560355 2295.34438143541
1864.3776900786452 2376.1963147116007
1865.0717959813119 2110.4082793712682
1865.7657345059724 1974.1748922005277
1866.4595056945564 2125.720199476703
1867.1531095889586 2191.996578457908
1867.846546231076 1975.3095642994908
1868.5398156627743 2260.3718796005573
1869.2329179259123 2044.3430863690323
1869.9258530623283 2351.88316874457
1870.618621113843 2030.2869425238302
1871.3112221222636 2059.1399668554272
1872.0036561293764 2174.9251575465178
1872.695923176956 2108.8940500331955
1873.3880233067594 2360.2836606235705
1874.0799565605212 1893.7535389659238
1874.7717229799673 2192.9733854144206
1875.4633226068036 2376.3232862113377
1876.1547554827175 2255.5966191668986
1876.8460216493859 2150.581094102218
1877.5371211484617 2135.5417335362426
1878.2280540215852 2179.7236340630725
1878.9188203103804 1949.5251396605304
1879.6094200564548 2115.8314255811915
1880.299853301396 2042.9865900554482
1880.9901200867826 2339.1063838839586
1881.6802204541673 2160.6045315489105
1882.3701544450942 2212.8338674903166
1883.059922101087 1876.5182730098477
1883.7495234636517 1989.951503365748
1884.4389585742792 2103.508522599147
1885.1282274744517 2017.5979443145638
1885.8173302056166 2068.426852350338
1886.506266809225 2119.326861858577
1887.195037326701 2002.0204544248086
1887.8836417994517 1959.6383582945596
1888.5720802688702 2318.695000498621
1889.260352776333 2228.2628579375128
1889.9484593632042 2251.4701024540877
1890.63640007082 2056.993301569969
1891.3241749405151 2042.5182660202543
1892.0117840135954 2192.3169693047726
1892.6992273313572 2040.5212330260788
1893.3865049350788 1883.0639685096062
1894.0736168660223 2380.4077243277275
1894.7605631654333 2139.998115715184
1895.4473438745408 1913.545961097537
1896.133959034556 2347.7070042710297
1896.820408686679 2147.9466953382152
1897.506692872088 2337.9295702933587
1898.192811631945 2094.441698823403
1898.8787650073991 2060.4134035780744
1899.5645530395832 2125.004489070614
1900.2501757696118 2230.5240918465943
1900.9356332385796 1918.7746823729237
1901.620925487574 2020.9798315690618
1902.3060525576602 2123.520056765758
1902.9910144898859 2121.0449052818863
1903.6758113252872 2035.0451363621028
1904.3604431048789 2202.884780951709
1905.0449098696663 2151.5522862780413
1905.7292116606295 2029.8829448556069
1906.4133485187394 2169.106640815931
1907.0973204849488 1847.849323651903
1907.7811276001976 1833.3525425113312
1908.4647699053967 2040.4604708354484
1909.1482474414588 2032.8643624595363
1909.8315602492694 2025.154629232598
1910.5147083696957 2294.3071216872527
1911.1976918436012 2055.3265500793173
1911.880510711815 1883.028597328835
1912.5631650151681 1985.2732506093423
1913.2456547944657 2087.6134582483965
1913.927980090495 1951.6799141841632
1914.6101409440362 1989.0536945418887
1915.2921373958416 2144.711026168535
1915.9739694866603 2113.016955976769
1916.655637257214 2239.4672197129694
1917.3371407482136 2091.2199156215215
1918.0184800003572 2250.261732670206
1918.6996550543154 2196.278406313494
1919.3806659507554 1970.5179991419081
1920.0615127303208 2126.7709444969987
1920.7421954336423 2181.8750275018365
1921.4227141013343 2206.2929060730394
1922.103068773993 2105.1871452827763
1922.783259492202 2196.5570951192467
1923.4632862965227 2130.8076676152677
1924.1431492275078 1972.879727922198
1924.8228483256917 1921.0938623665704
1925.5023836315922 2003.6314680245941
1926.1817551857057 1892.2323960348008
1926.8609630285227 2226.3115525896096
1927.5400072005123 2181.461365193514
1928.218887742125 2125.418439348823
1928.8976046938005 1806.1987479826153
1929.5761580959588 2185.9431580597534
1930.2545479890086 1979.0337576727245
1930.9327744133352 1787.7304886941079
1931.6108374093164 2048.5870729679177
1932.2887370173066 1890.8756951268865
1932.9664732776473 1732.7491922336271
1933.6440462306673 2006.6187100643613
1934.3214559166754 2005.0241783522292
1934.9987023759659 2190.7059976180803
1935.675785648813 2093.534562892635
1936.3527057754836 1759.1188157658457
1937.029462796223 1841.1733234366973
1937.70605675126 1923.446066193073
1938.3824876808085 1901.788678672962
1939.058755625072 2037.25275739739
1939.7348606242267 2010.0287565617207
1940.4108027184448 2033.3445908437884
1941.0865819478713 2087.289944709576
1941.7621983526478 1860.0837067442194
1942.4376519728921 1983.8396535359466
1943.1129428487038 1965.9323809061832
1943.7880710201734 2167.7580198885103
1944.4630365273733 2050.931126906577
1945.1378394103576 1978.036773044753
1945.8124797091714 2245.7946977789684
1946.4869574638324 1800.7613140381313
1947.161272714353 1973.227579752575
1947.8354255007234 2051.333759437277
1948.5094158629272 1830.8913788564248
1949.1832438409183 2112.11084533952
1949.8569094746435 2118.8446960517076
1950.530412804037 2252.539457117125
1951.2037538690092 2188.589304184051
1951.8769327094578 1993.4331622705054
1952.5499493652678 1882.4217405056213
1953.222803876306 2100.8093470985577
1953.895496282421 2038.189925103768
1954.5680266234522 2048.412498007291
1955.2403949392155 2068.3061430411362
1955.9126012695142 1841.4424281914144
1956.5846456541403 1883.59386599695
1957.2565281328643 2098.6511236980905
1957.9282487454457 2093.2367611561795
1958.5998075316202 2075.19068059666
1959.27120453112 1798.8684451833665
1959.9424397836501 2037.2952435766588
1960.613513328908 1957.5947361810438
1961.2844252065697 2207.3328862615463
1961.9551754563017 1874.295564009816
1962.6257641177453 1931.6634098601833
1963.29619123054 1854.3405144015094
1963.966456834296 1947.979698559476
1964.6365609686181 1915.6740139779936
1965.306503673086 2172.7978452686843
1965.976284987275 1946.3461961406513
1966.645904950734 1987.751133876171
1967.315363603002 1818.0594141930421
1967.9846609836077 1901.7174883724692
1968.6537971320486 1803.7248306206852
1969.3227720878222 2028.470568650475
1969.9915858904042 1973.7966541070084
1970.660238579252 2025.836443551625
1971.3287301938108 1926.805701963339
1971.997060773514 1978.190613273767
1972.665230357772 1926.959745051714
1973.3332389859843 1988.7718853551457
1974.0010866975335 1782.2745198208609
1974.6687735317864 1914.760450223627
1975.3362995280932 2035.562204421308
1976.003664725793 2048.1742969949073
1976.6708691642052 1762.3503381738574
1977.3379128826364 1895.8869769062535
1978.004795920373 2065.3150707954546
1978.6715183166925 2243.8263395438453
1979.3380801108524 1779.598885841039
1980.0044813420973 1890.3768736973143
1980.6707220496555 1757.877861275549
1981.3368022727373 1972.905021233948
1982.0027220505417 1984.5115256431168
1982.66848142225 1711.1521287030887
1983.3340804270283 1720.8055178473471
1983.999519104027 1853.8464758430964
1984.6647974923835 1872.783745736107
1985.329915631215 2021.3162292105208
1985.99487355963 1883.526234934161
1986.6596713167146 1984.9115928155188
1987.3243089415428 1741.9057495385089
1987.9887864731754 2074.0809448263653
1988.6531039506553 1758.004190777127
1989.3172614130071 1745.8734663931602
1989.9812588992481 1733.7492760962855
1990.645096448372 1509.6935944515396
1991.3087740993633 1921.1512095906612
1991.9722918911848 1869.2052708477386
1992.635649862792 2020.0733408109031
1993.2988480531185 1938.7378150036052
1993.9618865010852 2236.432241931335
1994.6247652455968 1862.2828968998413
1995.287484325545 1727.818730395337
1995.9500437798033 1753.2377146101967
1996.6124436472292 1987.0561006425555
1997.2746839666706 1982.2902912142974
1997.936764776954 1767.733836863627
1998.598686116895 1790.352354765952
1999.2604480252903 2110.4757526554463
1999.9220505409212 2091.319528652558
2000.5834937025593 1729.6363951099024
2001.2447775489582 1724.1980813159494
2001.9059021188514 1922.5813731003557
2002.5668674509616 1772.664611882669
2003.2276735839987 1900.9472487614719
2003.8883205566508 2120.166940356189
2004.5488084075987 1852.9565387465268
2005.2091371755014 1801.4951821380448
2005.8693068990033 1672.4346860965252
2006.5293176167397 1741.611675150755
2007.1891693673224 1811.0637518453682
2007.848862189354 1659.3019156759965
2008.5083961214223 1815.8426138961706
2009.1677712020955 1858.482536328837
2009.8269874699254 1694.170875479625
2010.4860449634598 1771.392556959371
2011.1449437212177 1848.9210846798662
2011.8036837817108 2086.6876933719955
2012.4622651834325 2076.103750586497
2013.1206879648653 1964.9321917792706
2013.7789521644736 2078.1623315260085
2014.4370578207036 1599.7307654544768
2015.0950049719922 1801.2031069726102
2015.7527936567585 1987.4162847843625
2016.4104239134067 1761.1162680242935
2017.067895780323 2266.0764033595165
2017.725209295886 1654.8871105473722
2018.3823644984514 2174.801117667755
2019.0393614263648 1825.1273357982486
2019.6962001179545 1947.7810697356595
2020.3528806115355 2002.5988477556439
2021.0094029454067 1961.5927062938013
2021.6657671578487 1704.782256672196
2022.321973287133 1861.193652010872
2022.9780213715148 1716.110476602078
2023.6339114492293 1875.3234227807636
2024.2896435585026 1877.2136002870727
2024.9452177375442 1810.3359556070495
2025.600634024544 2073.155559560371
2026.2558924576842 1990.3131213332533
2026.9109930751292 1974.2723875145427
2027.565935915025 1743.6449073535907
2028.2207210155066 2123.242458409375
2028.8753484146964 2160.5359076670384
2029.529818150695 1694.7665919800606
2030.1841302615903 2012.6768345424764
2030.8382847854573 1783.046048863303
2031.4922817603601 1897.1270932902924
2032.1461212243357 1901.761432414221
2032.7998032154192 1679.1771472941607
2033.4533277716218 1768.7382452233037
2034.1066949309443 1707.7531697958566
2034.7599047313688 1656.4050328456328
2035.4129572108704 2026.3647334148568
2036.0658524074006 1832.9575254689985
2036.7185903589016 1960.007770228462
2037.3711711032956 2069.6990664943414
2038.023594678496 1865.0819855596114
2038.675861122394 1842.6147995673887
2039.3279704728757 2052.6219959334294
2039.9799227678031 1711.681923186367
2040.6317180450278 1778.152084439206
2041.2833563423865 1756.007424536378
2041.9348376977014 2065.134150950539
2042.5861621487784 1970.8358591492986
2043.2373297334088 2051.1593917835726
2043.8883404893695 1842.4983142337685
2044.5391944544208 1981.6930246615498
2045.1898916663158 2114.2407327192022
2045.8404321627804 2155.070615320343
2046.4908159815368 1835.2755525141608
2047.1410431602853 1704.2280488578447
2047.7911137367173 1817.2582560828275
2048.441027748504 2026.7554186858117
2049.090785233302 1682.1407869889372
2049.7403862287592 1733.4026257346347
2050.389830772503 2068.8337112360887
2051.0391189021466 1665.3764537197592
2051.688250655294 1987.7585370752124
2052.337226069527 1638.0217344918033
2052.986045182417 1930.6510236858594
2053.634708031521 1603.2158852454766
2054.283214654375 1898.782144856174
2054.931565088511 1743.601456630539
2055.579759371436 1654.7791406412694
2056.2277975406523 1804.2042204143886
2056.8756796336384 2050.9717342577505
2057.5234056878617 1615.3617197907838
2058.1709757407752 1781.4281326146647
2058.8183898298194 2059.5100002489476
2059.465647992416 2008.9729360820559
2060.1127502659747 1924.272674583123
2060.759696687888 1664.9768674612537
2061.4064872955405 1906.5573561054566
2062.053122126292 1743.629123157322
2062.699601217497 1580.745763188321
2063.345924606485 1667.3698027979658
2063.992092330587 1807.4622667243318
2064.638104427102 1718.4966913747012
2065.283960933324 2041.6173887491102
2065.92966188653 1828.948410505302
2066.5752073239855 2008.1240090035328
2067.2205972829397 1723.672560581263
2067.86583180062 1918.9050083122208
2068.5109109142522 1661.5020968853253
2069.15583466104 1659.4282620417866
2069.8006030781708 1657.3541868467014
2070.445216202821 1667.2338283246208
2071.089674072153 1870.8864791221597
2071.7339767233116 2010.8633470586847
2072.3781241934303 1752.8046161751613
2073.0221165196253 1944.2769552373964
2073.6659537390024 1755.7028737135442
2074.3096358886505 2032.0704671357403
2074.953163005637 1786.3137852816933
2075.596535127028 1579.2026645779115
2076.2397522898664 1662.6414130475575
2076.882814531182 1699.2252152679207
2077.5257218879924 1803.4837296745943
2078.1684743973 1645.1928208772747
2078.8110720960885 1740.3277774471273
2079.453515021336 2162.84076054284
2080.095803209997 1919.3215608497544
2080.7379366990135 1730.6538102593768
2081.37991552532 1973.1001151505407
2082.0217397258275 1946.4652968087037
2082.6634093374414 1623.9056614392093
2083.3049243970418 1913.979594823873
2083.9462849415067 1860.9881125734955
2084.587491007689 1820.7638601643162
2085.2285426324324 1792.1656301159178
2085.869439852564 1709.3161817304328
2086.510182704902 1817.19791901717
2087.1507712262483 1801.42256216893
2087.791205453381 1580.5336592310532
2088.4314854230743 1833.4504665818417
2089.0716111720867 1843.0753301187106
2089.7115827371617 1670.399511566126
2090.351400155023 2004.2768447800129
2090.991063462385 1772.26130236914
2091.6305726959527 1806.592861232649
2092.2699278924047 1841.08193926173
2092.9091290884153 1657.4874887077099
2093.548176320641 1666.2985361210292
2094.187069625721 1768.7059016625713
2094.8258090402887 1616.098522980516
2095.464394600951 1902.6981268130567
2096.102826344313 1810.9247876944478
2096.741104306955 1670.797010167817
2097.379228525453 1530.360812000901
2098.017199036358 1600.3480218170464
2098.6550158762147 1946.2702035353934
2099.2926790815527 2059.3101028020455
2099.9301886888825 1756.7855888875915
2100.5675447347076 1718.454431418084
2101.2047472555114 1966.4842936458977
2101.841796287761 1850.0797745675695
2102.47869186792 1792.7458840760416
2103.1154340324265 1593.9960254618738
2103.752022817709 1450.6998847234936
2104.388458260184 1564.1616354868586
2105.024740396251 1760.0990300711153
2105.660869262292 1704.8255607049323
2106.296844894685 2010.0808974485014
2106.93266732978 1698.0083350940095
2107.5683366039284 1494.162339018907
2108.2038527534532 1778.8092576166866
2108.8392158146726 1826.6135933248934
2109.4744258238843 1629.4853495681677
2110.1094828173755 1821.6324425616554
2110.744386831422 1960.1023610968646
2111.3791379022787 1826.3904948566164
2112.01373606619 1961.656797073651
2112.648181359389 1776.8128719784788
2113.28247381809 1869.9450491555642
2113.916613478492 1994.7691924968963
2114.550600376786 1766.5654661305707
2115.1844345491445 1641.0167530761387
2115.818116031729 1518.7352010950767
2116.451644860679 1763.9067874525913
2117.085021072133 1496.236637325754
2117.718244702204 1778.3117988965762
2118.3513157869984 1699.2937219730534
2118.984234362604 1554.0489186491873
2119.617000465092 1523.500111384681
2120.249614130529 1595.7124046897227
2120.8820753949585 1668.041430453506
2121.5143842944162 1626.4941990833174
2122.14654086492 1646.3554636991016
2122.7785451424734 1871.5970288870813
2123.4103971630702 1852.1424848912454
2124.042096962681 1832.8464651597274
2124.6736445772767 1924.0304880524884
2125.305040042802 1659.936227223328
2125.936283395191 1816.753095424229
2126.567374670365 1898.3717828353006
2127.198313904233 1779.2092776855436
2127.8291011326855 1706.7163096062413
2128.4597363916037 1633.8688549533258
2129.0902197168507 1795.6809533769604
2129.720551144279 1668.9280189679484
2130.3507307097225 1775.9451158138418
2130.980758449008 1882.9891424234459
2131.6106343979427 1631.0248739963806
2132.2403585923203 1941.239502883681
2132.8699310679276 2039.552901415994
2133.499351860526 1864.4923383991688
2134.1286210058715 1709.2521612684359
2134.7577385397053 1561.4029031423906
2135.3867044977487 2046.2251748829015
2136.0155189157176 2075.0257175913193
2136.644181829308 2018.8538181223826
2137.2726932742025 1847.4401782993446
2137.901053286074 1976.8416196810074
2138.5292619005777 1628.327356140396
2139.1573191533535 1551.8687720933099
2139.7852250800315 1904.0786668049423
2140.4129797162295 1861.7840756903745
2141.0405830975433 1606.546963630391
2141.6680352595613 1633.2939554072373
2142.2953362378576 1660.1107788369986
2142.9224860679915 1862.6036247368872
2143.549484785508 1648.1781664187724
2144.1763324259373 1559.9072640604927
2144.803029024799 1605.7277884986274
2145.429574617594 1591.9488090089735
2146.0559692398165 1599.614105131644
2146.682212926942 1724.015590309497
2147.308305714432 1711.1866953602153
2147.9342476377333 1961.5010511841076
2148.5600387322847 2176.4329340198933
2149.185679033506 1980.3873360634625
2149.8111685768017 1758.7307198588933
2150.4365073975678 1516.5147078349596
2151.061695531187 1728.4048857484297
2151.686733013021 1897.4150354103397
2152.311619878423 1795.7883929023137
2152.9363561627342 1565.9645512424217
2153.560941901278 1509.8782107165644
2154.1853771293663 1712.6300750929859
2154.809661882293 1603.610855481263
2155.433796195348 2078.6422658158895
2156.0577801037944 1509.162545347583
2156.681613642895 1994.5403672836724
2157.3052968478896 1681.4652456705492
2157.928829754006 1887.9499811050996
2158.552212396462 1839.7920859213125
2159.1754448104566 1733.7724902617483
2159.7985270311783 1658.7370854793148
2160.4214590938027 1208.5652319968826
2161.0442410334927 1477.899292533054
2161.6668728853874 1497.887878866024
2162.289354684628 1517.9790474499086
2162.911686466332 1659.1004075522974
2163.533868265602 1909.2273780595647
2164.1559001175337 1938.0887806601193
2164.7777820572046 1819.0384374310484
2165.399514119681 1678.9641291970486
2166.021096340013 1740.0277308718364
2166.6425287532384 1880.536589455378
2167.263811394385 1598.450554925333
2167.8849442984574 1573.2457105213562
2168.505927500455 1548.1531526793103
2169.126761035366 1811.0190297609977
2169.7474449381552 1700.8790755574114
2170.367979243778 1525.1395848687384
2170.9883639871823 1698.914744374475
2171.608599203293 1657.952487218158
2172.2286849270276 2007.1590050506886
2172.8486211932886 2180.9014703781613
2173.4684080369625 1659.3075601437656
2174.0880454929265 1549.2599254885795
2174.7075335960417 1420.4161634512946
2175.3268723811543 1464.5104671217964
2175.9460618831 1508.7369382501522
2176.565102136701 1586.2592240697222
2177.1839931767627 1654.7260445111656
2177.802735038078 1723.3975768167784
2178.421327755432 1583.2452326587652
2179.0397713635866 1594.651115605849
2179.658065897298 1639.3948132053465
2180.276211391305 1706.886924737786
2180.8942078803357 1575.10866782103
2181.5120553991 1701.463227703944
2182.129753982299 1461.9966050418457
2182.7473036646206 1566.9980873453683
2183.3647044807367 1751.5694057490662
2183.9819564653044 1515.4871871041073
2184.599059652968 1726.1506462117347
2185.216014078367 1864.515595823737
2185.832819776113 1922.148727123556
2186.4494767808137 1979.8086827563664
2187.065985127063 1601.6023056721915
2187.682344849436 1677.6826491082325
2188.298555982501 1877.1553508884747
2188.9146185608097 1665.6376057106504
2189.530532618901 1816.3828233057084
2190.1462981912937 1777.0708813471604
2190.761915312507 1722.7856105563726
2191.377384017036 1695.7134387279598
2191.9927043393654 1706.833256709105
2192.6078763139667 1882.437749811777
2193.2228999753006 1493.0666484063295
2193.837775357808 1635.392105593103
2194.452502495922 1448.21970169657
2195.0670814240602 1552.4301372483
2195.6815121766285 1418.2492599307686
2196.2957947880186 1399.774451413704
2196.9099292926057 1381.2672196003919
2197.523915724758 1737.536417981996
2198.137754118825 1392.417128806831
2198.7514445091456 1925.9987503567395
2199.3649869300443 1468.6854589559628
2199.9783814158327 2031.3523734743526
2200.5916280008096 1961.9058142232457
2201.2047267192593 1789.8424115819566
2201.8176776054515 1629.8512102035602
2202.430480693649 1526.4020389100695
2203.0431360180955 1793.91832573104
2203.6556436130195 1772.61317770119
2204.268003512645 1468.326390253949
2204.8802157511727 1464.795828239593
2205.492280362796 1610.2036609159416
2206.1041973816937 1756.0749719405146
2206.715966842032 1695.5603424566239
2207.3275887779655 1891.7308851914622
2207.93906322363 1561.0270717752278
2208.550390213153 1864.0971842146882
2209.1615697806465 1751.8529947707252
2209.7726019602105 1665.924656992198
2210.3834867859277 1534.4261164249965
2210.9942242918787 1581.876892516578
2211.6048145121167 1637.6983328661972
2212.2152574806914 2173.9941200000717
2212.825553231638 1586.7679915661274
2213.435701798975 2177.4116185867288
2214.045703216707 1650.7839481264732
2214.655557518832 1302.145319072369
2215.2652647393297 1473.4320883842745
2215.874824912169 1267.7637269163952
2216.4842380713 1625.8561752821035
2217.09350425067 1596.5692569796934
2217.7026234842033 1869.2290429030295
2218.311595805819 1780.3054509782796
2218.9204212494133 1655.3725974215813
2219.52909984888 2051.806757942156
2220.137631638092 1442.9382875986137
2220.7460166509154 1922.8341105193874
2221.354254921198 1402.75328010201
2221.9623464827764 1659.5248619001934
2222.5702913694713 1711.3411349685634
2223.178089615096 1978.9363660973966
2223.7857412534486 1651.204640496321
2224.39324631831 1688.7464846849502
2225.000604843457 1726.3152521619954
2225.607816862641 1873.5482991079127
2226.214882409611 1747.9591384539103
2226.8218015180973 1856.1944877182282
2227.4285742218217 1657.8348134034932
2228.0352005544864 1677.6349552058284
2228.6416805497847 1678.5568514819763
2229.248014241399 1679.438794251538
2229.8542016629945 1445.5198561575269
2230.460242848223 1874.120389256705
2231.0661378307304 2059.4849373738816
2231.671886644139 1453.8288688588893
2232.277489322065 1334.1541583241767
2232.8829458981127 1397.519677060487
2233.48825640587 1536.6185408005908
2234.0934208789095 1755.2417285769704
2234.6984393507955 1974.183620915691
2235.3033118550793 1742.335887233929
2235.9080384252975 1469.3727972699066
2236.5126190949723 1598.967022594858
2237.1170538976166 1502.3579893766487
2237.721342866729 1389.5344414998792
2238.32548603579 1418.4766728650577
2238.9294834382763 1519.2132079908506
2239.533335107646 1990.919545146388
2240.1370410773434 1763.648128379417
2240.740601380803 1411.2322186409926
2241.3440160514474 1485.8096474027955
2241.9472851226783 1742.8605656339648
2242.550408627896 1729.5890366080498
2243.1533866004793 1922.5223496031526
2243.756219073799 1548.2832755205159
2244.3589060812064 1484.7234165100303
2244.961447656049 1552.5046814849013
2245.5638438316564 1749.0377770054274
2246.166094641343 1685.5950459913365
2246.7682001184166 1407.3395153144934
2247.3701602961664 1371.6711466316654
2247.971975207871 1779.6054740593554
2248.5736448867974 1846.686805266371
2249.175169366197 1667.0305274572638
2249.7765486793123 1503.3221005513658
2250.3777828593684 1727.9113517150352
2250.9788719395783 1587.6138712748061
2251.579815953146 1730.373611438424
2252.1806149332606 1452.4286757613156
2252.781268913097 1584.7177701114388
2253.381777925817 1494.5356925073775
2253.9821420045737 1836.2965984563914
2254.5823611825035 1744.6975674290636
2255.1824354927303 1527.2805803183328
2255.782364968365 1505.8446675230205
2256.38214964251 1484.4260065797541
2256.9817895482483 1242.5182590160462
2257.5812847186553 1506.1979908609608
2258.180635186791 1472.8643404253412
2258.779840985704 1460.5767577720403
2259.37890214843 1303.8234795098388
2259.97781870799 1782.5005865742467
2260.5765906973957 1803.7020006641171
2261.175218149645 1806.8247303629928
2261.773701097718 1731.382272917607
2262.3720395745895 1451.6865006777452
2262.970233613216 1483.1333674953858
2263.568283246548 1494.8896920454715
2264.1661885075137 1562.6659732945463
2264.763949429038 1360.5908687914518
2265.3615660440246 1921.4349657879015
2265.959038385374 1458.144328851912
2266.5563664859637 1933.2861283375746
2267.153550378669 1483.1378993848632
2267.7505900963424 1747.6805692586538
2268.3474856718312 1557.330975485047
2268.9442371379664 1513.1093673977962
2269.5408445275643 1652.0452094103177
2270.1373078734377 1711.8649249943817
2270.7336272083758 1653.2683716666768
2271.32980256516 1594.5331198657952
2271.925833976562 1550.1962361368821
2272.5217214753357 1751.2373169587368
2273.117465094223 1633.1733015598843
2273.7130648659586 1436.4471074161484
2274.308520823257 1502.486005960941
2274.903832998827 1805.8771648215006
2275.4990014253563 1799.9147755449035
2276.094026135528 1610.2432163873552
2276.6889071620117 1412.438125821075
2277.2836445374614 1763.1002997440312
2277.878238294519 1577.3037633752804
2278.472688465812 1463.1495603533417
2279.066995083962 1348.7736695117096
2279.6611581815705 1498.644748092755
2280.255177791232 1502.8726973668995
2280.8490539455233 2019.7545306907232
2281.442786677013 1875.3464460291193
2282.0363760182554 1828.8403138438614
2282.6298220017943 1389.8581063538775
2283.223124660155 1944.85549870863
2283.816284025859 1455.3118601071787
2284.4093001314086 1916.4462840640947
2285.002173009292 1485.3042440339327
2285.5949026919952 1532.4792244871046
2286.1874892119777 1433.8812226992598
2286.7799326016993 1638.0092228023518
2287.3722328936 1655.448242790439
2287.964390120109 1364.4591926077164
2288.556404313642 1603.4723563849893
2289.1482755066027 1940.514845333782
2289.7400037313873 1703.9146671805934
2290.3315890203703 1542.6695025712204
2290.9230314059205 1817.1893256951093
2291.5143309203904 1518.2930258933643
2292.1054875961236 1524.368344533219
2292.6965014654506 1837.8220877328426
2293.287372560684 1370.351282209694
2293.878100914131 1460.6711278287423
2294.468686558086 1551.2308906010558
2295.059129524827 1667.466477366054
2295.649429846617 1495.7253891220696
2296.239587555716 1323.5699488375926
2296.8296026843636 1452.5696190341903
2297.419475264791 1499.4868134348865
2298.0092053292137 1546.3983396201065
2298.598792909839 1816.4915548359586
2299.1882380388597 1609.7342704328805
2299.777540748455 1958.5809225563316
2300.3667010707904 1599.0759636062942
2300.9557190380256 1935.316185007683
2301.544594682302 1989.343078769097
2302.1333280357503 1540.7035757468027
2302.721919130485 1641.1778981938253
2303.3103679986198 1825.4783173102842
2303.898674672242 1926.5239695965133
2304.486839183437 1641.4654340560942
2305.0748615642697 1533.405670813478
2305.6627418468015 1643.1118732728914
2306.2504800630704 1371.9427330790706
2306.8380762451143 1680.7789215960333
2307.425530424949 1706.998099867054
2308.012842634582 1733.2641609696088
2308.6000129060103 1925.0964420985154
2309.187041271214 2034.5161502834485
2309.773927762164 1892.930552893905
2310.3606724108213 1751.0617237546844
2310.9472752491274 1412.4326007743603
2311.5337363090184 1794.5291326332167
2312.120055622414 1451.8952456685092
2312.706233221221 1591.1723391499634
2313.2922691373424 1280.1878031536162
2313.8781634026564 1402.338064886757
2314.463916049037 1524.7652553813034
2315.049527108342 1705.8435047430107
2315.6349966124235 1902.1366841407666
2316.2203245931123 1876.3264194548228
2316.8055110822315 1454.3567089481944
2317.3905561115935 1345.2977015810839
2317.9754597129977 1550.2264568882697
2318.560221918229 1554.450882002878
2319.1448427590603 1558.7187824548832
2319.729322267256 1593.7598617869712
2320.313660474563 1318.232943752196
2320.8978574127195 1506.2914862582143
2321.481913113452 1694.922822649969
2322.0658276084705 1638.8851216487033
2322.6496009294806 1487.4962557320448
2323.233233108165 1600.0405265193435
2323.8167241762058 1439.769010136246
2324.4000741652617 1782.3266744473542
2324.983283106987 1808.1609739972423
2325.5663510330232 1864.164779454124
2326.1492779749933 1764.325736138766
2326.7320639645204 1664.0576191207815
2327.3147090332004 1897.3894760020162
2327.897213212629 1599.9788744276223
2328.4795765343843 1814.7008447083197
2329.0617990300307 1374.6724103358695
2329.643880731124 1808.5030390378083
2330.22582166921 1330.775156990486
2330.807621875816 1717.937794419186
2331.3892813824623 1336.2790483183053
2331.9708002206517 1396.8829180347516
2332.5521784218818 1526.478867751724
2333.133416017634 1656.4050934484353
2333.7145130393765 1442.017065868947
2334.295469518571 1840.5359301404853
2334.876285486658 1827.1950217243607
2335.456960975076 1787.386382559075
2336.037496015242 1747.5197191792165
2336.6178906385667 1554.4312337148551
2337.198144876451 1624.780505036257
2337.778258760278 1683.2967095784666
2338.3582323214214 1640.62028968966
2338.938065591243 1597.8034864158753
2339.517758601087 1730.4083105812147
2340.0973113822965 1721.939551646329
2340.676723966193 1739.2654871626219
2341.255996384094 1537.296350276318
2341.835128667295 1767.0159132376107
2342.4141208470883 1815.5271270960027
2342.992972954751 1891.8554548160323
2343.5716850215467 1661.4505884328523
2344.1502570787306 1512.1013290702404
2344.7286891575386 1362.3903807035304
2345.3069812892045 1493.0971638399799
2345.885133504944 1623.911230307009
2346.4631458359618 1757.4176443951674
2347.04101831345 1314.2812813845621
2347.6187509685915 1426.6810835975646
2348.196343832553 1675.2625130673791
2348.7737969364935 1746.1024862968466
2349.351110311558 1355.9492088618613
2349.9282839888765 1348.1030345135268
2350.5053179995757 1471.4856831333839
2351.0822123747585 1304.5633226213083
2351.658967145526 1324.8905729014805
2352.2355823429643 1345.3294514481206
2352.812057998144 1672.9901080128852
2353.3883941421263 1744.8932375580134
2353.9645908059647 1702.7194737429945
2354.540648020693 1519.7000768559667
2355.116565817336 1670.2660346575642
2355.6923442269126 1468.3469275919879
2356.2679832804224 1706.6191065651133
2356.8434830088518 1616.5134332486964
2357.41884344318 1301.3826451982163
2357.994064614377 1372.6475080222347
