#exp_cfg={"servo_angle": 0.0, "laser_lim": 100.0, "servo_angle_to": 18.0, "laser_wup": 0.0, "bt_dev": "EnSpectr-25AE3", "laser_wdn_max": 0.0, "frames": 10.0, "servo_used": 0, "servo_calib_use": 0, "laser_wdn_min": 0.0, "servo_pix_from": 90.0, "cooler_tout": 300.0, "servo_angle_from": 0.0, "servo_calib": "[-1.9174921013161362e-09, 3.9322238269163779e-05, -0.27385609119055809, 653.59552119713567]", "laser_autoctl": 0, "servo_pix_to": 3682.0, "laser_pw": 100.0, "cooler_on": 0, "laser_volt": 4.0, "cooler_autoctl": 0, "cooler_curr": 70.0, "cooler_startup": 10.0, "laser_fixed_pw": 0, "gain": 1.3, "offset": 2.53059635486, "servo_calib_degree": 3.0, "laser_curr": 55.0, "shutter": 8200.0, "servo_calib_step": 1.0, "laser_fixed_curr": 0, "exp": 2000.0, "ccd_volt": 4.7, "bt_addr": "00:06:66:62:5A:E3", "servo_delay": 500.0, "laser_autooff": 1}
#proc_cfg={"flat_auto_wnd": 200.0, "flat_auto_fr": 200.0, "flat_auto_shift": 5.0, "yconv": 1, "flatten": 1, "flatten_strength": 100.0, "xfrom": 300.0, "auto_max_frame": 2000.0, "auto_signal": 48000.0, "flat_auto_tol": 0.1, "autoclip": 1, "xrel_range": 0.0, "flat_auto_to": 4000.0, "intensity_adj": 1.0, "xrel": 7852.0, "rmhot": 1, "flat_auto_slit": 4.999999999999997, "auto_ini_exp": 300.0, "auto_off": 0, "xto": 2860.0, "flat_auto_ref": "", "flat_auto_rank": 1, "autobackg": 0, "xrel_adj": 0.0, "auto_black_lvl": 1, "base_wnd": 100.0, "sub_baseline": 0, "xconv": 2, "auto_max_exp": 1000.0, "auto_total_exp": 10000.0, "auto_exp": 0, "rmripple": 0, "black_lvl": 8264.775, "shutter_clip_adj": 0.0, "auto_bckg": 0, "flat_auto_thr": 0.9, "subbackg": 1}
316.8218498245369 14557.763103403593
317.89969571804795 14513.452103507117
318.977263876126 14409.868619079232
320.05455438786703 14297.949411025422
321.1315673423287 14279.850113841158
322.2083028285215 14343.475069721424
323.2847609354267 14113.075066970443
324.3609417519747 14211.149693829968
325.43684536705587 14138.214948698504
326.5124718695279 14152.82189539772
327.58782134820103 14021.060821869347
328.66289389184385 14038.33863010016
329.7376895891921 13803.364345680879
330.8122085289342 13871.420639169093
331.88645079971866 13816.02201080283
332.9604164901575 13757.58677261883
334.03410568881554 13625.70496022552
335.1075184842266 13842.298373385924
336.18065496487543 13654.061701230816
337.2535152192122 13614.215802732913
338.32609933564163 13688.034527011081
339.39840740253203 13578.766087674496
340.4704395082099 13522.156998168202
341.5421957409617 13491.707106596525
342.6136761890357 13553.342020976896
343.6848809406365 13465.143867223154
344.75581008392874 13421.116815323365
345.82646370703696 13374.89379068884
346.8968418980512 13374.369240298014
347.96694474501055 13409.578381800524
349.0367723359268 13334.038712201364
350.106324758759 13249.683594234846
351.1756021014353 13047.426467810854
352.2446044518383 13195.86895037878
353.31333189781435 13269.785386181718
354.38178452716966 13210.296577608951
355.449962427665 13212.341625182195
356.51786568702846 13108.975411832342
357.58549439294256 13226.573054402466
358.6528486330535 13256.322991706207
359.71992849496564 13069.62956269042
360.7867340662433 13217.691589531625
361.8532654344144 13098.356991311852
362.9195226869597 13206.86865296539
363.9855059113288 13099.848632165838
365.05121519492604 12981.788802977633
366.11665062511565 13103.80658381005
367.1818122892273 13093.813768642878
368.2467002745434 13151.962149969211
369.31131466831175 13035.309729184191
370.375655557742 13043.920471698675
371.4397230299983 13055.23719876559
372.5035171722102 12995.042770574713
373.5670380714637 13000.922173169662
374.6302858148101 12999.754040191536
375.6932604892554 13003.755437621998
376.7559621817709 13059.633852554038
377.81839097928605 12955.130430539433
378.8805469686886 12910.339542219604
379.94243023683157 13098.088863797839
381.0040408705263 12889.253366647252
382.0653789565458 12804.439449893678
383.1264445816196 12801.838647389162
384.1872378324406 12819.77684437723
385.2477587956637 12785.877800334685
386.3080075579037 12819.528984095377
387.3679842057336 12658.244432943251
388.4276888256918 12790.777971384641
389.48712150426945 12653.270211024179
390.54628232792857 12635.956106497168
391.6051713830857 12491.17496618932
392.66378875611736 12635.795203874026
393.7221345333637 12648.340579701158
394.7802088011249 12482.460808550546
395.838011645661 12494.929337074998
396.89554315319765 12412.735427187057
397.9528034099112 12303.466128623468
399.00979250194723 12382.385859326485
400.06651051541485 12279.943896066141
401.1229575363741 12410.759482592444
402.17913365085224 12234.62479136505
403.23503894483656 12393.416102889576
404.2906735042761 12222.436828890306
405.3460374150818 12170.559054926001
406.401130763119 12261.678333301472
407.455953634224 12182.289134549686
408.5105061141876 12153.392305659982
409.56478828876243 12034.229149268485
410.6188002436629 12028.74644378315
411.6725420645689 12033.050815078692
412.72601383711117 12065.066571383442
413.77921564689314 12145.733515901342
414.8321475794728 11996.180398585122
415.88480972036814 11902.023302300337
416.93720215506437 11967.799224087215
417.9893249690049 11915.870746685148
419.04117824759123 11770.866602611823
420.09276207619223 11809.49424944255
421.144076540133 11834.801019666362
422.1951217247042 11847.254545215483
423.24589771515275 11871.108467444148
424.2964045966928 11749.946901305973
425.34664245449494 11726.60041209444
426.3966113736933 11665.022142362517
427.4463114393875 11564.745753449695
428.49574273662984 11620.18849843563
429.5449053504417 11501.412399783732
430.5937993658026 11613.52497602924
431.6424248676558 11504.786714198903
432.6907819409007 11482.597544039647
433.73887067040596 11544.120736557536
434.7866911409965 11549.80090750151
435.8342434374608 11507.07407994313
436.88152764455117 11496.299916424734
437.9285438469724 11465.870692215383
438.9752921294057 11466.160268104552
440.02177257648145 11415.417557328086
441.06798527279716 11303.07876348749
442.1139303029122 11429.963364957866
443.1596077513459 11405.541159574075
444.2050177025794 11328.551856728318
445.25016024105753 11400.905012075014
446.2950354511886 11298.325981798022
447.33964341733736 11505.853088164353
448.383984223834 11331.984455136015
449.4280579549686 11160.597928944298
450.471864694995 11270.962328434001
451.5154045281306 11201.831167153327
452.5586775385509 11224.400468436248
453.60168381039693 11182.811070374632
454.64442342776783 11278.73178032731
455.6868964747264 11277.929083360812
456.7291030353008 11142.35235539405
457.77104319347563 11226.454633924024
458.8127170332027 11169.943164976143
459.854124638392 11158.102725111086
460.895266092919 11254.88126030358
461.93614148061897 11225.762264105168
462.97675088529104 11302.024253057369
464.01709439069236 11185.230717143571
465.0571720805492 11203.790307364603
466.0969840385442 11242.337846819528
467.1365303483253 11258.189767523872
468.17581109350067 11119.409170985604
469.2148263576437 11007.651561087841
470.2535762242878 11070.112313327596
471.29206077693016 11227.621400222
472.33028009902773 11224.139948087979
473.3682342740012 11259.538651136554
474.40592338523857 11196.299532056724
475.4433475160804 11187.320444712
476.4805067498364 11238.16593728802
477.51740116978 11203.846100595149
478.5540308591426 11293.12917828948
479.59039590112116 11462.879549233998
480.6264963788726 11358.922174450512
481.6623323755193 11439.448934969452
482.6979039741436 11568.760566701525
483.7332112577915 11676.563025905883
484.76825430947247 11841.9943559307
485.80303321215797 11754.723363545356
486.837548048783 11983.882787777506
487.8717989022425 11974.64711700317
488.90578585539697 12005.87983782015
489.9395089910686 12127.78952310975
490.97296839203955 12036.817435791421
492.00616414106116 11938.592444686863
493.0390963208429 12042.073540794609
494.0717650140559 11926.413983325445
495.10417030333883 11847.418793837092
496.1363122712901 11825.795586570075
497.16819100046814 11615.86343867542
498.1998065734024 11439.00699878432
499.2311590725767 11479.256149700279
500.26224858044407 11270.41811667274
501.2930751794156 11232.99393414877
502.3236389518679 11301.24627405728
503.35393998014115 11040.914922691994
504.38397834653733 10996.963121916076
505.4137541333221 11014.475448037803
506.4432674227228 10907.059281142418
507.4725182969323 10946.653756179903
508.5015068381035 10875.267196281764
509.53023312835467 10943.150471907564
510.55869724976765 10843.806321745524
511.58689928438434 10773.585469454692
512.6148393142121 10624.336515148523
513.6425174212218 10781.313078268839
514.6699336873462 10752.506479578167
515.6970881944835 10749.886525038684
516.7239810244901 10624.110247199864
517.7506122591931 10710.957949277234
518.7769819803761 10588.813242947106
519.8030902697901 10669.69878448629
520.8289372091476 10686.710440971281
521.8545228801249 10797.962593640974
522.8798473643619 10620.494548516077
523.9049107434621 10610.530902736553
524.9297130989908 10604.82947756963
525.9542545124805 10657.460888439995
526.9785350654201 10554.799470636393
528.0025548392696 10718.72613134474
529.0263139154504 10496.495048180355
530.0498123753423 10592.167629171736
531.073050300296 10521.377664140058
532.0960277716204 10478.382056466311
533.1187448705896 10401.26441489569
534.1412016784416 10386.820128555562
535.1633982763833 10362.162362480658
536.1853347455726 10361.440541162994
537.2070111671401 10284.748527788068
538.2284276221817 10329.17319517878
539.2495841917516 10246.638292502654
540.2704809568677 10187.152457327855
541.2911179985167 10228.754654560422
542.3114953976419 10226.722093124476
543.3316132351592 10167.835632526978
544.3514715919409 10079.375688836783
545.3710705488247 10100.796038119126
546.3904101866156 10097.649135731808
547.4094905860784 10146.52179470057
548.4283118279418 10083.912267586704
549.4468739929034 10059.49759892606
550.4651771616191 10093.062630230193
551.4832214147063 9890.174028725503
552.501006832761 10116.09876102722
553.5185334963226 9991.743108097711
554.5358014859103 10064.059880266923
555.5528108820035 10105.570395610046
556.5695617650363 10024.860407033386
557.5860542154242 10066.40080467471
558.6022883135283 10037.82366051077
559.6182641396881 9870.69406056865
560.6339817741991 10030.186472843161
561.6494412973225 9970.854246649427
562.6646427892883 10060.767331643385
563.6795863302796 9819.019404444538
564.694272000459 9889.48118253248
565.7086998799423 9996.068723515726
566.7228700488104 9874.12806525669
567.7367825871115 9878.861757505934
568.7504375748576 9904.01568054396
569.7638350920224 9845.243480312261
570.7769752185486 9837.594333952784
571.7898580343353 9877.12717331022
572.802483619258 9824.434362038133
573.8148520531431 9922.603279443132
574.8269634157932 10034.964034993876
575.8388177869692 9946.604876042928
576.8504152463938 10015.59940354146
577.8617558737587 10001.46519796972
578.8728397487175 9919.296464521864
579.883666950891 9998.168215430527
580.8942375598654 10093.681870193383
581.9045516551851 10151.100289516664
582.9146093163617 10344.478922018321
583.924410622878 10138.364113039675
584.9339556541727 10259.620261462538
585.9432444896538 10329.051066148091
586.9522772086875 10160.608001550341
587.9610538906127 10278.206602479415
588.9695746147318 10256.13435491483
589.9778394603054 10214.033946610707
590.985848506567 10172.060333456164
591.9936018327098 10135.850119399714
593.0010995178891 9895.095992754555
594.0083416412344 10055.887406264046
595.0153282818283 9796.216806971966
596.0220595187293 9779.267475276441
597.0285354309508 9766.288731016884
598.0347560974806 9677.247511738546
599.0407215972609 9601.313438519264
600.0464320092051 9616.75477794907
601.0518874121954 9700.813672939028
602.0570878850685 9630.267432340765
603.062033506636 9594.66920727772
604.0667243556636 9528.193365182731
605.0711605108936 9478.482765151986
606.0753420510264 9776.143112040227
607.0792690547278 9560.71223778775
608.082941600629 9490.887139714563
609.0863597673306 9590.658034994518
610.0895236333909 9687.223695022112
611.0924332773357 9766.096430317604
612.0950887776617 9590.406406474169
613.0974902128219 9670.198005106347
614.0996376612384 9796.387297182275
615.1015312013005 9840.039462455456
616.1031709113595 9873.471515709103
617.1045568697336 9814.273231563453
618.1056891547069 9931.346297331282
619.1065678445229 9947.940532559009
620.1071930173985 10298.706583706555
621.1075647515099 10159.552538086113
622.1076831250048 10248.587263417827
623.1075482159849 10406.983657203808
624.1071601025305 10322.718155015038
625.1065188626781 10467.242326827714
626.105624574433 10673.12731747111
627.1044773157682 10761.706799494665
628.1030771646128 10637.267762187093
629.1014241988742 10873.011230401276
630.0995184964158 10977.92157094775
631.0973601350688 11017.813009510795
632.0949491926294 11306.948508016834
633.0922857468631 10938.060653178012
634.089369875499 11013.223444344927
635.0862016562278 11087.203035676346
636.0827811667077 10960.682396917291
637.0791084845641 11000.250912434072
638.0751836873878 10753.041445922017
639.0710068527369 10892.07779147243
640.0665780581294 10704.361989996047
641.0618973810506 10561.183097133206
642.0569648989604 10568.625811372025
643.0517806892676 10312.583979914958
644.0463448293649 10300.074444014106
645.040657396592 10189.591177110875
646.0347184682723 10022.93302283263
647.0285281216875 9866.972738307993
648.0220864340772 9816.748206152479
649.0153934826558 9749.864400783585
650.0084493446047 9671.506158551503
651.0012540970674 9617.422754275514
651.9938078171526 9531.76138976533
652.9861105819346 9504.946531437728
653.9781624684565 9565.244787116171
654.9699635537254 9355.753494824658
655.9615139147136 9458.167687242954
656.9528136283589 9271.16726657995
657.9438627715699 9391.088982791602
658.9346614212154 9291.632030537035
659.925209654135 9063.021662493393
660.9155075471263 9116.348314873867
661.9055551769616 9110.957001803174
662.895352620375 9283.73371922247
663.8848999540678 9162.447206054276
664.8741972547068 9014.007894433995
665.863244598926 8954.285797001889
666.8520420633213 9085.57779050004
667.8405897244611 8847.119576650852
668.8288876588758 8805.154465782794
669.8169359430613 8894.216954094303
670.8047346534822 8897.021000111732
671.7922838665672 8732.01001892168
672.7795836587156 8879.70647145512
673.766634106285 9032.615611361134
674.7534352856092 8658.409160104839
675.7399872729766 8712.976467941324
676.7262901446538 8751.667156947744
677.712343976862 8687.226375625165
678.6981488457986 8850.031304929802
679.6837048276229 8582.331183470636
680.6690119984596 8779.971832956584
681.6540704344043 8704.400135858807
682.6388802115107 8686.40037163324
683.6234414058108 8683.97191902724
684.6077540932874 8629.975572889323
685.591818349907 8572.133659875242
686.575634251587 8622.105394952014
687.5592018742263 8621.734643954973
688.5425212936734 8421.055135617275
689.5255925857564 8670.264725435414
690.5084158262707 8533.9264366229
691.4909910909646 8567.159793664974
692.4733184555644 8593.305023626244
693.4553979957618 8595.177036428347
694.4372297872123 8547.32915912297
695.4188139055404 8454.62470389238
696.4001504263324 8474.966173678025
697.3812394251509 8480.892853597152
698.3620809775111 8490.640400815722
699.3426751589104 8493.68647637616
700.3230220448004 8404.067077832093
701.3031217106054 8430.312082045522
702.2829742317172 8629.837829189037
703.2625796834873 8339.820289082658
704.2419381412474 8313.868929722883
705.22104968028 8397.574336566568
706.1999143758458 8456.768974476227
707.178532303169 8381.424846033382
708.1569035374378 8536.916209668558
709.1350281538107 8470.50012569862
710.1129062274158 8461.684552906065
711.0905378333373 8684.951934397239
712.0679230466376 8584.867339548298
713.0450619423427 8757.849549226972
714.0219545954424 8895.01327230191
714.9986010808989 8798.351225432973
715.9750014736292 8866.549736341092
716.9511558485392 8996.083130438354
717.9270642804786 9182.311294269406
718.9027268442787 9182.527432482868
719.8781436147328 9199.76619788419
720.8533146666014 9054.265898804913
721.828240074612 9221.414095264387
722.8029199134635 9195.584880445384
723.7773542578125 9211.5967667347
724.751543182294 9018.03137687035
725.7254867615029 9088.463938663868
726.6991850700015 8848.10889437001
727.6726381823228 8966.635251643762
728.6458461729599 8848.587390916668
729.6188091163858 8728.076087381349
730.5915270870246 8750.149272598323
731.5640001592856 8647.903232371915
732.536228407529 8745.021737041669
733.5082119060917 8804.673518937558
734.4799507292755 8707.956570651688
735.4514449513481 8741.427929713742
736.4226946465496 8860.841779319315
737.3936998890786 8876.648442819227
738.3644607531078 8759.214386884645
739.3349773127793 8677.00986707358
740.3052496421951 8619.92089483613
741.27527781543 8541.326080346367
742.2450619065221 8433.500484112426
743.2146019894826 8495.96354806559
744.183898138288 8384.68293458872
745.1529504268801 8354.755858735141
746.1217589291682 8173.441969611742
747.0903237190341 8244.63664421893
748.058644870318 8216.015484769274
749.0267224568397 8103.035149198976
749.994556552374 7938.431521077412
750.9621472306771 8087.633057925533
751.9294945654583 8015.636884249121
752.8965986304011 8088.354627970332
753.8634594991636 7929.53255849313
754.8300772453586 8058.189774777634
755.7964519425768 7891.624981451387
756.762583664371 8070.238959823527
757.7284724842611 8003.779945238773
758.6941184757416 7979.351317050668
759.6595217122667 7895.839974414604
760.6246822672638 7969.818980790568
761.5896002141235 7674.225614287012
762.5542756262093 7901.300300826957
763.5187085768503 7872.820301363659
764.4828991393406 7843.161515219421
765.4468473869474 7840.703733181785
766.4105533929032 7946.33736332959
767.3740172304078 7776.857812189232
768.3372389726283 7903.913318451904
769.3002186926988 7707.009861189319
770.2629564637282 7723.517901104673
771.2254523587872 7669.90808673765
772.1877064509154 7693.404442206318
773.1497188131179 7624.537364859292
774.1114895183728 7517.092275494359
775.0730186396268 7581.614366127583
776.0343062497905 7551.316405341386
776.9953524217381 7448.7597011032685
777.9561572283274 7561.3938493056485
778.9167207423689 7500.096309501481
779.8770430366476 7402.25295905331
780.8371241839159 7394.071340388138
781.7969642568951 7482.191356557642
782.7565633282757 7641.5060582847655
783.7159214707099 7424.298116915171
784.6750387568281 7554.655025898658
785.6339152592227 7488.05006738471
786.5925510504512 7297.320175209454
787.5509462030477 7462.218217836921
788.5091007895098 7469.327483886889
789.4670148823006 7406.616541178303
790.4246885538596 7424.773878772505
791.3821218765861 7322.473857207328
792.3393149228505 7356.611210976638
793.2962677649975 7504.321247872127
794.2529804753303 7475.852865247083
795.20945312613 7460.746320177839
796.1656857896378 7342.371162823532
797.1216785380675 7312.262056046132
798.0774314435985 7517.568817703749
799.0329445783846 7532.85968755084
799.9882180145414 7586.0317063082275
800.9432518241574 7470.678495175806
801.89804607929 7609.422998331885
802.852600851962 7583.2416928643825
803.8069162141637 7513.581820680391
804.760992237856 7636.723203769393
805.714828994971 7626.835100860742
806.6684265574077 7722.468638839981
807.6217849970271 7583.553258451326
808.574904385674 7605.236750587648
809.527784795142 7620.570832534329
810.4804262972102 7788.33129777857
811.4328289636178 7470.19990158783
812.3849928660748 7418.496717254449
813.3369180762638 7365.49406925942
814.2886046658241 7531.350910531051
815.2400527063783 7370.619061340194
816.1912622695108 7385.040083644621
817.1422334267718 7354.866273334375
818.0929662496856 7333.641651473937
819.0434608097457 7187.437615160221
819.9937171784059 7217.412369059186
820.9437354271013 7183.061976790072
821.8935156272255 7318.8824557369635
822.8430578501484 7171.590399955525
823.7923621672016 7026.8891259011925
824.7414286496896 7095.8904783579665
825.6902573688876 7169.473344000578
826.6388483960363 7100.80178887446
827.5872018023492 7065.19067999861
828.5353176590033 7193.374104401914
829.4831960371503 6964.914036220388
830.4308370079016 6943.275493235997
831.3782406423525 7009.491396108628
832.3254070115545 6965.537774158323
833.2723361865319 6924.979620935019
834.2190282382799 6858.861859615118
835.1654832377644 6979.319324804992
836.1117012559116 6810.517523230194
837.0576823636256 7053.034272220973
838.003426631778 6783.685476328234
838.9489341312074 6828.5569196835495
839.8942049327197 6944.6013212005955
840.8392391070975 7005.220943490883
841.7840367250865 6865.767655841762
842.7285978573982 6865.546732323991
843.672922574724 6909.385693388775
844.6170109477152 6852.897401324274
845.560863046996 6762.612787756589
846.5044789431595 6912.374002816818
847.4478587067697 6778.095637428841
848.3910024083561 6965.8338485179265
849.333910118421 6828.275941242791
850.2765819074339 6699.401112930011
851.2190178458332 6875.415963964883
852.161218004032 6829.342287109935
853.1031824524016 6850.46382582037
854.0449112612987 6882.542763516513
854.9864045010327 6794.126112969531
855.9276622418947 6784.432976774986
856.8686845541379 6866.902807530295
857.8094715079915 6862.576290100964
858.7500231736467 6962.613272499206
859.690339621271 6972.564804050536
860.6304209209939 6935.491109233721
861.5702671429244 6725.496882102556
862.5098783571284 6918.258288453629
863.4492546336569 6799.510438630821
864.3883960425155 6739.4676179124335
865.3273026536863 6807.290257689579
866.2659745371238 6617.016523087356
867.2044117627465 6951.723239244675
868.1426144004472 6754.153428206756
869.0805825200823 6797.7151623088575
870.0183161914847 6780.938665093761
870.9558154844526 6891.840568407402
871.8930804687552 7049.745872514075
872.8301112141307 6758.5865200243425
873.7669077902865 6938.228031748893
874.7034702669062 7014.890557033234
875.6397987136315 6897.972916186923
876.5758932000863 6979.585352143673
877.5117537958522 6984.7658584330875
878.4473805704911 6921.063792198239
879.3827735935283 6855.832151502633
880.3179329344603 6975.929010600036
881.2528586627541 6998.58720519149
882.1875508478479 7063.972870307734
883.1220095591489 7087.070018755325
884.0562348660296 6957.73328813562
884.9902268378391 7101.7573224346415
885.9239855438955 6999.575007915791
886.8575110534839 6847.860581277399
887.7908034358588 6959.266825769768
888.7238627602474 6851.401678548331
889.6566890958475 6994.680453012881
890.5892825118208 6726.11939534899
891.5216430773125 6879.327256678669
892.4537708614189 6924.232691985346
893.3856659332196 6720.687092911345
894.3173283617652 6748.97142554926
895.2487582160684 6842.298054315729
896.179955565116 6807.62452015701
897.110920477864 6634.46054614306
898.0416530232451 6669.092892415004
898.9721532701478 6614.284327992807
899.9024212874428 6720.727527774057
900.8324571439662 6580.349829024291
901.7622609085302 6542.188297805713
902.6918326499072 6507.5573557628595
903.6211724368477 6561.516629519809
904.5502803380696 6665.324058475404
905.4791564222614 6716.141115275331
906.4078007580792 6500.480635496675
907.3362134141571 6509.012960838114
908.2643944590909 6754.8649643091385
909.1923439614493 6517.793817970587
910.1200619897754 6511.544391546906
911.0475486125779 6735.22214505742
911.9748038983344 6546.910398585556
912.9018279155007 6488.080066058215
913.8286207324982 6386.48883341418
914.7551824177117 6549.026821983706
915.6815130395116 6508.2550386064995
916.6076126662283 6443.234164412149
917.533481366163 6397.935727689847
918.4591192075914 6557.982330245218
919.3845262587565 6493.827964988556
920.3097025878706 6360.086216178073
921.2346482631237 6415.259580785253
922.1593633526682 6409.742278693273
923.0838479246304 6476.60746933042
924.0081020471061 6565.806147901707
924.9321257881656 6255.109914709954
925.8559192158464 6408.493089715598
926.7794823981512 6215.563229976731
927.7028154030686 6285.572191168589
928.6259182985414 6292.761475417228
929.5487911524906 6411.338021293335
930.4714340328119 6399.367873108296
931.3938470073608 6189.996953181273
932.3160301439748 6228.1267256320025
933.2379835104548 6251.080493436579
934.1597071745709 6431.563918435426
935.0812012040769 6298.181199972028
936.002465666681 6348.8009013237
936.9235006300696 6295.444286628472
937.8443061619055 6308.904075318594
938.7648823298077 6207.158515160831
939.6852292013809 6143.866690602258
940.6053468441951 6254.254764230136
941.5252353257874 6059.888002139221
942.4448947136698 6133.774670004666
943.364325075323 6249.515878612406
944.2835264782043 6167.750465973617
945.2024989897309 6174.158037358209
946.1212426773054 6216.305201768432
947.0397576082851 6256.508021064331
947.9580438500125 6293.712932233409
948.8761014697939 6337.429274329229
949.7939305349064 6405.444409379852
950.7115311125999 6111.214248036282
951.6289032700952 6113.890114993924
952.5460470745875 6379.513658903569
953.4629625932339 6144.366794960996
954.3796498931715 6291.379740591246
955.2961090415029 6289.087092894866
956.2123401053068 6206.8339495496775
957.1283431516276 6208.089615729141
958.0441182474842 6072.942337288751
958.9596654598663 6402.289593261763
959.8749848557309 6258.75756489215
960.7900765020167 6213.041854076744
961.7049404656209 6124.277274937436
962.6195768134185 6202.6628817687215
963.5339856122537 6164.067764022986
964.4481669289453 6258.95707721767
965.3621208302793 6143.663157337375
966.2758473830145 6053.481777507971
967.1893466538822 6326.520227886594
968.1026187095813 6165.461365746322
969.0156636167867 6138.336808136361
969.9284814421426 6147.93045577124
970.8410722522622 6066.151864761501
971.753436113735 6091.151504241983
972.6655730931161 6080.626840289811
973.5774832569368 6066.9566154397
974.4891666716958 5983.468169465417
975.4006234038698 5929.289563517552
976.3118535198955 5935.604782290531
977.2228570861935 6139.401279575353
978.1336341691494 6113.736894413828
979.0441848351202 5879.849859143806
979.9545091504333 6110.43732535938
980.864607181391 6038.800188281339
981.7744789942699 6025.0471383886015
982.6841246553086 6041.903207932113
983.5935442307236 6050.013797896679
984.5027377867027 6045.132297319605
985.4117053894024 6054.714983485317
986.3204471049557 5926.806938329186
987.2289629994648 6063.456415128396
988.1372531390007 6173.226306895818
989.0453175896091 6007.906262648057
989.9531564173067 6045.56365668598
990.860769688079 5953.848936785706
991.7681574678918 5950.0501984562525
992.6753198226706 6009.1864186380535
993.582256818323 5960.940630214996
994.4889685207218 5973.454851831489
995.3954549957143 6242.5664886221875
996.301716309119 5976.150688923338
997.2077525267232 6037.158463353774
998.1135637142943 5983.32169055161
999.0191499375615 6096.496818959507
999.924511262232 6144.0966666116165
1000.8296477539861 6127.7722959025
1001.7345594784656 6085.365180798364
1002.6392465012996 5912.506664184689
1003.5437088880753 6094.804395980549
1004.4479467043584 6178.8819388195125
1005.3519600156869 5855.429737803851
1006.2557488875718 6100.082166247992
1007.1593133854858 6041.943330603142
1008.0626535748888 5950.307858671264
1008.9657695212009 5938.529285431936
1009.8686612898182 6056.809750486462
1010.7713289461135 6152.372355418486
1011.6737725554212 6068.374910037092
1012.5759921830577 6142.286667503262
1013.4779878943027 6067.687266126608
1014.379759754418 6135.011277099183
1015.2813078286254 6004.113637624777
1016.18263218213 5924.752329437401
1017.0837328801026 5960.088547879637
1017.9846099876886 6032.20419699855
1018.8852635700023 5881.899582876474
1019.7856936921362 5785.927479704847
1020.6859004191447 6000.5681301400255
1021.5858838160675 5857.689396003573
1022.4856439479063 5788.8545294275655
1023.3851808796389 5646.9246466012655
1024.2844946762143 5986.148330503429
1025.183585402554 5820.446165924364
1026.082453123554 5617.779630526308
1026.9810979040776 5829.331827561996
1027.8795198089647 5677.610633937855
1028.777718903024 5878.437501527284
1029.6756952510368 5734.483378838392
1030.5734489177648 5816.713046670762
1031.4709799679313 5749.964454334133
1032.3682884662358 5929.628750375302
1033.2653744773506 5633.848400220078
1034.1622380659192 5663.015011745501
1035.058879296559 5866.263530227815
1035.9552982338591 5850.1467310763055
1036.8514949423825 5769.380908710916
1037.7474694866614 5837.107421033317
1038.6432219312028 5715.467476367865
1039.5387523404825 6037.699433387089
1040.4340607789582 5903.09150349513
1041.3291473110476 5961.417915782995
1042.2240120011465 6077.446017399838
1043.1186549136273 6117.975638466659
1044.0130761128294 6004.529684275139
1044.9072756630649 6167.276873143305
1045.8012536286205 6168.253091437237
1046.6950100737577 6317.142254557505
1047.588545062701 6406.03513532727
1048.481858659663 6389.703668750071
1049.3749509288118 6492.297981723302
1050.2678219343034 6336.7281508154465
1051.1604717402515 6512.520576546793
1052.0529004107575 6187.037491751875
1052.9451080098825 6428.386763254031
1053.8370946016694 6342.807416852952
1054.7288602501267 6369.1912184970015
1055.6204050192446 6259.265307237983
1056.511728972977 6304.869746206754
1057.402832175254 6126.814679911117
1058.2937146899785 6117.447579521188
1059.1843765810263 6099.267569227048
1060.0748179122456 6085.8223068265015
1060.9650387474576 6022.349094821346
1061.855039150456 5995.409330218086
1062.7448191850071 5949.027742220911
1063.6343789148505 5883.182882163641
1064.5237184037014 6070.9782353365845
1065.412837715241 5864.603106591398
1066.3017369131267 5758.408319856104
1067.190416060992 5730.422710978048
1068.0788752224398 5756.328896675295
1068.9671144610438 5723.854885001773
1069.8551338403558 5868.439727026857
1070.7429334239023 5847.188293980804
1071.6305132751695 5599.234712861834
1072.517873457633 5832.909409321124
1073.4050140347335 5723.194407998263
1074.2919350698776 5730.571525431024
1075.1786366264623 5686.151484568441
1076.0651187678395 5664.034380172028
1076.95138155735 5619.878154683183
1077.8374250582929 5577.364171965014
1078.7232493339507 5691.809221481726
1079.608854447577 5562.752509548178
1080.4942404623907 5569.743717577885
1081.3794074415982 5566.06013109087
1082.2643554483657 5729.598683421945
1083.149084545841 5531.522090722092
1084.033594797138 5441.527180322965
1084.9178862653516 5454.32067156001
1085.8019590135427 5663.619624877129
1086.6858131047484 5383.906456759947
1087.5694486019802 5592.554304768922
1088.4528655682225 5528.744421524442
1089.3360640664287 5667.3026171215815
1090.2190441595321 5595.383225740886
1091.1018059104317 5569.271168067889
1091.98434938201 5659.913268072834
1092.866674637111 5634.166361005373
1093.748781738559 5611.98957979701
1094.6306707491512 5449.2246228078875
1095.5123417316554 5638.733261938182
1096.3937947488157 5517.74895535633
1097.2750298633455 5557.778115522711
1098.156047137938 5535.006221039237
1099.0368466352556 5506.247869788725
1099.9174284179317 5657.318422574943
1100.7977925485757 5382.784428910979
1101.6779390897755 5418.412011912456
1102.5578681040806 5503.471172238651
1103.4375796540226 5481.559936921994
1104.3170738021054 5543.631146440528
1105.1963506108077 5197.8647076084435
1106.0754101425773 5297.157118817234
1106.9542524598382 5390.218514358139
1107.8328776249855 5285.228803656953
1108.7112857003904 5268.585972696961
1109.5894767483987 5176.067525950904
1110.4674508313292 5457.416849808516
1111.3452080114657 5260.034842368491
1112.2227483510815 5374.0065268628105
1113.1000719124077 5384.396796542763
1113.9771787576592 5403.854777109141
1114.854068949022 5264.285657487005
1115.7307425486542 5477.3363360703315
1116.6071996186893 5327.1529811925975
1117.483440221229 5657.363990948053
1118.3594644183577 5331.969799181384
1119.235272272128 5499.530475460262
1120.1108638445658 5590.558664924562
1120.9862391976712 5741.388107603567
1121.8613983934229 5614.942688861171
1122.7363414937627 5699.114817273546
1123.6110685606182 5660.599523671943
1124.485579655884 5889.078425669653
1125.359874841426 5798.59067052605
1126.2339541790916 5754.844193381787
1127.1078177306936 5981.370346133166
1127.9814655580267 5789.67333020141
1128.854897722851 5822.755724202422
1129.7281142869106 5731.039158720151
1130.6011153119125 5932.973773478079
1131.473900859548 6032.1405104773075
1132.3464709914697 5841.705639171447
1133.2188257693178 5900.107334488498
1134.0909652546961 5722.3635256908065
1134.96288950919 5697.868061442701
1135.8345985943506 5788.13268008816
1136.7060925717087 5546.849011477643
1137.57737150277 5669.487778400144
1138.4484354490069 5798.212796148474
1139.3192844718778 5627.429204350379
1140.1899186327992 5459.029531472371
1141.060337993178 5624.3689774398445
1141.930542614382 5441.551251743353
1142.8005325577597 5500.440943084261
1143.670307884635 5248.851219274302
1144.5398686563003 5367.399851051761
1145.409214934025 5378.758596166913
1146.2783467790541 5129.687624745465
1147.1472642526023 5278.154238888241
1148.0159674158622 5357.892844480782
1148.8844563300026 5276.157255422403
1149.7527310561618 5050.629059666668
1150.6207916554504 5070.633613688894
1151.4886381889592 4992.510119485047
1152.3562707177498 5225.829363043565
1153.2236893028585 5124.569755055706
1154.090894005296 4979.621654845433
1154.9578848860474 5033.000070704266
1155.8246620060709 5099.893033407786
1156.6912254262988 4897.339533752567
1157.5575752076438 4966.725904199111
1158.42371141098 5100.093872301613
1159.2896340971656 5129.022457235278
1160.1553433270346 5060.66353733355
1161.0208391613887 5045.325481107328
1161.8861216610057 4982.50204813625
1162.75119088664 5044.988366082804
1163.6160468990201 4981.836855134979
1164.4806897588442 4899.162231601666
1165.3451195267917 4992.051933125893
1166.2093362635114 4990.960641582738
1167.0733400296285 4941.836929671435
1167.9371308857444 4855.601638024778
1168.8007088924278 4882.488888251324
1169.6640741102328 4930.692786451545
1170.5272265996773 4868.51400168449
1171.390166421259 4756.907014475774
1172.252893635452 4895.97246891507
1173.1154083026995 5157.424239946074
1173.977710483421 4984.148633613078
1174.8398002380145 4811.307054029037
1175.7016776268483 5051.659047895727
1176.563342710264 4977.470467188716
1177.4247955485826 4820.921660467366
1178.2860362020947 5009.963670124476
1179.147064731069 4767.87445875328
1180.0078811957483 4895.603669481263
1180.8684856563486 4885.365055265183
1181.7288781730604 4869.250344469727
1182.589058806052 4743.979830177673
1183.4490276154593 5008.620687483568
1184.3087846614017 4828.223059263128
1185.1683300039676 4997.7336972194225
1186.027663703222 5139.117355198169
1186.8867858192025 5014.403419214614
1187.7456964119228 5055.881502335864
1188.6043955413716 4994.087247582669
1189.4628832675116 5117.116837925634
1190.3211596502842 5145.101128376997
1191.179224749596 5142.055906309277
1192.0370786253388 4981.357755776962
1192.8947213373758 5175.083708209597
1193.7521529455407 5373.497733828993
1194.6093735096438 5033.984220489437
1195.466383089477 5059.716284014792
1196.3231817447977 5098.509270223809
1197.1797695353398 5314.132715993386
1198.0361465208189 5019.9129279011595
1198.8923127609214 5101.934950446916
1199.7482683153048 5253.000962889512
1200.6040132436028 5350.079162437633
1201.459547605431 5079.309610917963
1202.3148714603722 5161.2513419843535
1203.1699848679855 5141.032052200168
1204.0248878878065 5329.180534001776
1204.8795805793507 4857.212784423803
1205.7340630020935 5169.789827270055
1206.5883352155033 5227.767447321077
1207.4423972790064 5126.9318192650835
1208.2962492520237 5011.241778554925
1209.1498911939307 4981.309936471272
1210.0033231640937 4963.741626642458
1210.8565452218427 4995.940406276115
1211.7095574264913 4678.655837055089
1212.5623598373222 4764.94958817447
1213.4149525135963 4740.821294451206
1214.2673355145507 4893.916300943326
1215.1195088993936 4843.187062442877
1215.9714727273113 4687.251442785351
1216.8232270574663 5025.820712619108
1217.6747719489904 4486.647624260003
1218.5261074609934 4610.433939473235
1219.3772336525653 4820.322743334795
1220.2281505827668 4840.34202705437
1221.0788583106296 4851.720431519154
1221.9293568951707 4632.434329207891
1222.7796463953746 4580.21054262262
1223.629726870202 4782.611790254913
1224.4795983785934 4781.665849013993
1225.3292609794553 4713.168796376459
1226.1787147316809 4477.878548103507
1227.0279596941327 4637.241814832524
1227.8769959256424 4725.215899483817
1228.7258234850306 4746.792609689655
1229.5744424310833 4515.065755656724
1230.422852822563 4738.612197938872
1231.2710547182105 4860.571737120787
1232.119048176739 4802.622531369236
1232.9668332568417 4537.778757475554
1233.8144100171812 4735.308662666149
1234.6617785163999 4769.910764143268
1235.508938813111 4376.832965128392
1236.3558909659114 4609.5575501718695
1237.2026350333617 4790.238580748846
1238.049171074008 4713.18156218011
1238.8954991463652 4571.022076481779
1239.741619308932 4675.6843097359215
1240.587531620169 4714.189735680981
1241.4332361385277 4751.555696567502
1242.2787329224248 4594.654943445692
1243.1240220302534 4633.870427302621
1243.9691035203869 4517.051423430765
1244.813977451171 4771.494566036355
1245.6586438809263 4728.257808479711
1246.5031028679496 4440.418481482253
1247.3473544705157 4690.026368812223
1248.1913987468706 4686.631178089761
1249.0352357552383 4423.032911158927
1249.8788655538228 4553.182774203292
1250.7222882007918 4687.345012905581
1251.565503754302 4758.571393692585
1252.4085122724755 4332.3091455540725
1253.2513138134182 4743.357186658415
1254.0939084352049 4574.508867623432
1254.9362961958905 4616.082901584473
1255.7784771535007 4590.210457349212
1256.6204513660432 4754.044690571807
1257.4622188915 4781.178264598401
1258.3037797878242 4608.028513703741
1259.1451341129468 4560.111210026236
1259.9862819247755 4659.563733422852
1260.8272232811978 4549.771045553071
1261.6679582400666 4798.837408156479
1262.5084868592203 4430.021923501542
1263.34880919647 4500.36701818705
1264.1889253095997 4686.6814406141875
1265.0288352563712 4729.6396795409155
1265.8685390945266 4554.461018782092
1266.7080368817751 4735.179099424729
1267.5473286758115 4794.690006908475
1268.386414534294 4757.3983672973245
1269.2252945148703 4381.849448919139
1270.0639686751547 4584.553173038652
1270.9024370727402 4587.763306573007
1271.7406997651997 4558.548353696364
1272.5787568100714 4390.668851210539
1273.4166082648808 4519.877951163003
1274.2542541871244 4494.8773023797785
1275.091694634275 4853.640625092887
1275.9289296637817 4384.24934625207
1276.7659593330663 4713.6795276709645
1277.6027836995308 4502.556178665009
1278.4394028205552 4755.321273586916
1279.2758167534867 4583.10435223155
1280.112025555658 4647.535867455435
1280.9480292843746 4564.490586364904
1281.7838279969128 4438.503991642045
1282.6194217505326 4563.149080170572
1283.4548106024686 4405.7769120994635
1284.289994609926 4481.938213053241
1285.1249738300921 4621.185802340162
1285.959748320127 4373.294750194666
1286.7943181371702 4549.976327925838
1287.6286833383328 4498.236432795569
1288.4628439807038 4559.973721262772
1289.2968001213521 4421.935541013034
1290.1305518173194 4491.024829179898
1290.9640991256183 4536.618904483206
1291.7974421032523 4391.09177312167
1292.630580807183 4389.3254999320625
1293.463515294361 4577.028729163508
1294.29624562171 4651.7159610819535
1295.12877184613 4502.132509452387
1295.961094024493 4328.567081416369
1296.79321221365 4560.819200629533
1297.6251264704333 4607.053322672287
1298.4568368516466 4791.964960877952
1299.2883434140658 4619.51435141858
1300.1196462144526 4424.441210699856
1300.9507453095375 4524.389876946817
1301.7816407560313 4556.987689890425
1302.6123326106172 4622.993472942335
1303.4428209299622 4465.62402822116
1304.2731057707024 4778.82339314189
1305.1031871894502 4547.949481881015
1305.933065242798 4753.409847251384
1306.7627399873181 4540.941055556631
1307.5922114795467 4906.661763432359
1308.4214797760123 4858.956326524858
1309.2505449332057 4579.067955340955
1310.0794070076026 4635.049932166175
1310.9080660556538 4777.812504542867
1311.736522133786 4827.248767763861
1312.5647752983987 4696.1979433465
1313.3928256058734 4525.624395514522
1314.2206731125661 4748.866282085284
1315.048317874809 4847.4807675800685
1315.8757599489109 4698.756352507717
1316.7029993911547 4753.115552164693
1317.5300362578055 4951.462047909556
1318.356870605101 4563.642754811713
1319.183502489257 4720.820061368504
1320.0099319664623 4808.003191672074
1320.836159092889 4830.647877420706
1321.66218392468 4881.851170154391
1322.4880065179532 4584.314382850671
1323.3136269288134 4782.908964883103
1324.1390452133292 4858.490489976263
1324.9642614275563 4907.317578222172
1325.7892756275214 4723.050069414472
1326.6140878692295 4554.681958809701
1327.4386982086617 5169.340650800931
1328.2631067017755 4814.412740848616
1329.0873134045069 4808.133060144569
1329.911318372764 4767.835341663315
1330.735121662441 4612.6160243397035
1331.558723329399 4630.546556468785
1332.3821234294774 4643.710376961134
1333.2053220185007 4729.580279907306
1334.0283191522612 4514.905025040125
1334.851114886529 4784.000649801652
1335.6737092770582 4481.351907100958
1336.4961023795695 4589.032624796492
1337.3182942497697 4425.462670250785
1338.1402849433325 4449.110369130157
1338.962074515921 4321.00388033354
1339.7836630231632 4319.587365682293
1340.6050505206676 4818.0167836959645
1341.426237064028 4569.3450206420175
1342.2472227088037 4382.290705125788
1343.0680075105338 4256.982652776752
1343.888591524741 4453.786590249892
1344.7089748069138 4576.325468252581
1345.5291574125276 4441.517354571953
1346.3491393970307 4232.334598542538
1347.168920815846 4590.559841043259
1347.9885017243778 4544.7147861212825
1348.8078821780036 4449.372212616448
1349.6270622320844 4472.411205660138
1350.4460419419447 4263.802490644705
1351.2648213629054 4410.612574544432
1352.0834005502438 4233.403675428064
1352.90177955923 4309.492101602756
1353.7199584451064 4392.023694497524
1354.5379372630887 4415.225938453265
1355.355716068374 4278.089821562224
1356.1732949161305 4247.098893410034
1356.9906738615155 4236.098394574794
1357.8078529596478 4277.643182483706
1358.6248322656375 4423.291736890253
1359.441611834567 4211.695782090015
1360.2581917214866 4416.123093245449
1361.0745719814367 4334.205167888633
1361.890752669433 4207.871982277738
1362.7067338404577 4145.546166115736
1363.5225155494845 4476.172655102643
1364.3380978514506 4460.757624261217
1365.1534808012839 4062.392397571669
1365.9686644538815 3912.4500382667684
1366.783648864117 4318.242028029798
1367.5984340868417 4387.476255925342
1368.413020176893 4319.826560112255
1369.2274071890715 4117.0768746294525
1370.0415951781652 4386.1256989732565
1370.8555841989346 4483.649105801926
1371.6693743061223 4049.2064921143947
1372.48296555444 3978.13695932489
1373.2963579985844 4233.866908530542
1374.1095516932255 4243.6834330254
1374.9225466930166 3963.49034595136
1375.7353430525782 4214.830068410132
1376.5479408265164 4034.1867676003217
1377.36034006941 4282.199603038502
1378.1725408358216 4290.616610623241
1378.9845431802805 3989.486351804403
1379.796347157304 4519.3680085063625
1380.6079528213813 4351.30328350618
1381.4193602269788 4023.948200255071
1382.230569428546 4079.9269027327923
1383.0415804805016 4295.239479997437
1383.852393437246 4244.645828174509
1384.6630083531563 4282.585473175711
1385.4734252825892 4114.785305594187
1386.2836442798798 4107.465238851683
1387.0936653993322 4125.341586042499
1387.9034886952395 4143.160382158578
1388.713114221864 4317.568747160565
1389.5225420334482 4133.880081371648
1390.331772184214 4095.9753311246445
1391.1408047283585 3937.7440911461285
1391.9496397200564 4053.309614605284
1392.758277213461 4271.9876945690685
1393.5667172627054 4271.060682153192
1394.3749599218918 4066.448531371928
1395.1830052451114 3948.04438535694
1395.9908532864265 4046.2216640765328
1396.7985040998774 4316.354257240926
1397.6059577394808 3970.6565164985686
1398.4132142592352 4052.1585626299757
1399.2202737131156 3979.0157896596074
1400.027136155073 4279.065311670675
1400.8338016390353 4022.224023646819
1401.6402702189134 3999.635404813428
1402.446541948586 4091.89376254761
1403.2526168819204 3956.73116379332
1404.058495072757 3904.3156025710136
1404.8641765749107 3968.458511469687
1405.6696614421799 4092.213371987844
1406.4749497283356 4455.4598184543775
1407.280041487129 3992.9062466194823
1408.084936772295 3768.485234999315
1408.8896356375335 4180.251185460635
1409.6941381365323 4121.1619064977795
1410.498444322955 3859.3799841847285
1411.3025542504402 4012.0452089517953
1412.106467972606 4020.8184747985024
1412.9101855430508 4139.532024552025
1413.7137070153458 3782.5496962324964
1414.5170324430437 3928.8524993920596
1415.320161879672 4101.826507001806
1416.1230953787435 4235.876840944035
1416.925832993742 3781.2543330488106
1417.7283747781275 3745.380275002551
1418.5307207853439 3971.8922010929928
1419.3328710688093 4022.2669438839453
1420.134825681922 3667.4849965470667
1420.9365846780584 3902.9959665296496
1421.7381481105713 4135.825528056229
1422.539516032788 4016.7627265478086
1423.3406884980232 3824.2729194878257
1424.1416655595604 3746.6893638588726
1424.942447270665 3804.9168577599603
1425.7430336845828 4081.325579273928
1426.5434248545298 3636.8774502302826
1427.3436208337116 3905.7210905564875
1428.143621675301 4035.1817454794677
1428.9434274324558 4050.6083316111717
1429.7430381583108 3753.1872719604135
1430.5424539059713 3782.968846017319
1431.3416747285337 4125.841413865443
1432.1407006790632 3944.0994650755115
1432.9395318106053 3883.598195078985
1433.7381681761835 3755.8454557390273
1434.5366098288014 3930.7573862018617
1435.3348568214424 3890.680716664642
1436.1329092070573 3731.0914271539964
1436.9307670385879 3974.089507805341
1437.7284303689503 3984.1185711853273
1438.5258992510335 4051.4834833750806
1439.3231737377118 3977.7705503366196
1440.1202538818306 3899.508977034501
1440.9171397362225 3880.4055496084475
1441.7138313536925 3822.6633338441798
1442.5103287870243 3811.0506451592896
1443.3066320889775 3681.8382109067925
1444.1027413122956 4019.6889190651427
1444.8986565096966 3879.3682041714105
1445.694377733882 3899.4887762241074
1446.4899050375207 3685.008132326845
1447.2852384732687 3743.018176514232
1448.0803780937622 3814.7225589589784
1448.8753239516063 3653.592373759967
1449.6700760993954 3563.3736033267073
1450.464634589689 3718.141343196198
1451.2589994750397 3983.1011233609156
1452.0531708079689 3668.3784147162455
1452.8471486409799 3582.7769111871785
1453.6409330265524 3991.2497722854723
1454.4345240171442 3668.7754130229623
1455.2279216651987 3533.1676395123422
1456.0211260231263 3729.50941407641
1456.8141371433194 4027.506461098078
1457.6069550781594 3774.345826086438
1458.3995798799897 3538.8379439530786
1459.1920116011424 3601.8724103212626
1459.98425029393 3454.7615136182985
1460.7762960106338 3590.432001618483
1461.5681488035225 3622.1320411155984
1462.3598087248392 3664.848903535818
1463.1512758268036 3832.779253718623
1463.942550161617 3573.08793049393
1464.7336317814625 3524.1510413840415
1465.524520738496 3689.9163419766505
1466.3152170848552 3551.0630085416683
1467.1057208726506 3620.049481219493
1467.8960321539817 3579.1303299759215
1468.6861509809169 3511.1163186663907
1469.4760774055085 3581.60766189854
1470.265811479785 3544.201027882318
1471.055353255755 3305.5830669615243
1471.844702785409 3389.1184838098075
1472.6338601207044 3304.385751430448
1473.4228253135934 3690.307040555888
1474.2115984159936 3329.989873835013
1475.0001794798063 3206.252337472589
1475.7885685569145 3635.7634499053966
1476.576765699172 3454.222203926159
1477.3647709584238 3454.9893398524596
1478.1525843864802 3597.1037671033846
1478.9402060351367 3487.5373335398376
1479.7276359561693 3568.1701150585222
1480.514874201328 3435.6200130189513
1481.3019208223468 3316.3378009564854
1482.0887758709323 3287.8385567996024
1482.8754393987747 3488.629594717843
1483.6619114575406 3281.5758437217933
1484.4481920988783 3483.8607587940824
1485.2342813744108 3467.40792054925
1486.0201793357446 3641.1994179984927
1486.8058860344572 3322.7331904974353
1487.591401522117 3449.3997330135526
1488.3767258502594 3375.0998384365384
1489.1618590704056 3398.140708454718
1489.9468012340494 3194.803672280485
1490.7315523926754 3448.4986184529203
1491.5161125977356 3511.4567666602643
1492.3004819006637 3440.4415561985734
1493.084660352877 3300.1443138185255
1493.8686480057622 3469.049831016762
1494.6524449106964 3674.500535629457
1495.4360511190262 3634.8389612489605
1496.219466682087 3435.67163087999
1497.0026916511779 3438.844956891816
1497.7857260775945 3495.234959650859
1498.5685700125996 3512.793432174738
1499.3512235074395 3282.560172805458
1500.133686613337 3346.7723336322983
1500.9159593814966 3306.842555710303
1501.698041863101 3855.268761086011
1502.4799341093094 3141.9611722510544
1503.2616361712662 3159.8763344642075
1504.043148100087 3454.497831900992
1504.8244699468742 3493.5523999358556
1505.6056017626997 3195.7225508633524
1506.3865435986281 3208.4933171092644
1507.1672955056893 3377.6865050534398
1507.9478575348967 3300.902996931658
1508.7282297372512 3632.0415138139506
1509.5084121637192 3414.2374075667585
1510.2884048652577 3307.2658688074503
1511.0682078927948 3318.008611533547
1511.8478212972423 3335.085172076303
1512.6272451294917 3273.477029114586
1513.4064794404076 3407.6591968959756
1514.1855242808433 3325.9391923309036
1514.9643797016215 3361.9185239576664
1515.743045753552 3403.963112144954
1516.5215224874191 3364.576240553511
1517.2998099539836 3098.861008725676
1518.077908203999 3334.364008066819
1518.8558172881785 3202.2946414367575
1519.633537257234 3373.3710897787387
1520.4110681618404 3330.062013986541
1521.1884100526604 3342.404912146456
1521.9655629803365 3278.4268717735167
1522.7425269954856 3550.7938267115933
1523.5193021487103 3567.0358517320574
1524.2958884905856 3222.379165991472
1525.0722860716687 3318.5800683349444
1525.848494942502 3372.531264399364
1526.624515153595 3317.2064115354356
1527.4003467554485 3339.188188271534
1528.175989798534 3500.750516162122
1528.9514443333064 3312.4126758987977
1529.726710410203 3612.6351803842094
1530.5017880796331 3207.795724416362
1531.276677391992 3272.7488231800003
1532.0513783976457 3556.0992031586125
1532.825891146953 3420.5900358383115
1533.6002156902414 3452.2231020674867
1534.3743520778207 3344.8160456088617
1535.1483003599806 3438.873661894916
1535.9220605869923 3413.7232774151175
1536.6956328091019 3423.3600255649458
1537.4690170765407 3285.7635460520323
1538.242213439511 3537.5251899616546
1539.015221948208 3414.436054751932
1539.78804265279 3251.483600617321
1540.560675603405 3180.8653508998195
1541.3331208501804 3468.941896708407
1542.1053784432224 3506.400263889739
1542.8774484326168 3439.691143326289
1543.649330868422 3453.1679223296715
1544.4210258006842 3421.7069706018824
1545.1925332794308 3394.659873799143
1545.9638533546604 3378.3867788145835
1546.7349860763552 3363.5855071167744
1547.5059314944829 3608.045993640006
1548.27668965898 3304.548472221121
1549.0472606197673 3455.6746107221506
1549.817644426752 3295.8855650582605
1550.5878411298072 3573.5181730206605
1551.3578507787988 3349.9172392628266
1552.1276734235635 3246.0495448500587
1552.8973091139233 3439.2579597805707
1553.6667578996767 3527.55245678604
1554.436019830604 3285.3563343615665
1555.20509495646 3287.6926529188677
1555.9739833269869 3257.016372246148
1556.7426849919011 3222.922315254952
1557.511200000903 3499.3679520168794
1558.2795284036674 3331.8949687617846
1559.0476702498509 3245.2098619663616
1559.8156255890954 3401.9650261446586
1560.5833944710157 3620.597867708094
1561.3509769452048 3261.8002762980227
1562.1183730612447 3307.6457366944
1562.8855828686865 3316.9639056621336
1563.6526064170703 3620.1352083688994
1564.4194437559127 3487.4587123717924
1565.1860949347047 3199.5382805633135
1565.9525600029283 3632.271737559695
1566.7188390100328 3703.224813405634
1567.4849320054564 3246.015701615692
1568.250839038612 3318.909485068768
1569.0165601588997 3253.838526643788
1569.7820954156887 3460.5916564185763
1570.5474448583373 3298.77855876958
1571.31260853618 3310.805776362087
1572.0775864985299 3135.6292908484215
1572.8423787946813 3405.70227294724
1573.6069854739108 3238.2742511137085
1574.371406585471 3459.621448824877
1575.1356421785986 3546.175606694589
1575.899692302506 3266.3220726718264
1576.6635570063845 3468.088272429931
1577.4272363394157 3277.5289258535277
1578.190730350747 3257.8791669533525
1578.9540390895163 3397.9705535910025
1579.7171626048384 3052.5941900602097
1580.480100945806 3284.207066623684
1581.2428541614918 3257.2399531923115
1582.0054223009538 3297.622552264102
1582.767805413223 3352.6697813187625
1583.5300035473156 3394.3606057720376
1584.292016752228 3490.0925581537645
1585.0538450769309 3381.629998362126
1585.8154885703807 3158.4101866658602
1586.5769472815136 3128.1623307050154
1587.3382212592405 3333.231922134789
1588.099310552463 3536.658910375073
1588.8602152100484 3430.6542717183597
1589.6209352808564 3501.839992751029
1590.3814708137234 3261.6770288809835
1591.14182185746 3508.4327305424886
1591.9019884608679 3298.8518808314243
1592.6619706727215 2890.790710378439
1593.4217685417734 3345.234474307058
1594.1813821167616 3559.591372799879
1594.9408114464022 3029.450244120698
1595.7000565793933 3331.6165437777504
1596.459117564409 3402.345088000277
1597.2179944501113 3200.9241994567146
1597.9766872851324 3138.2172331529737
1598.735196118092 3436.8736718533605
1599.4935209975883 3336.153920776071
1600.2516619721973 3417.0689131866843
1601.0096190904787 3066.4307161117763
1601.7673924009723 3261.6708074735716
1602.524981952196 3186.113443606926
1603.2823877926476 3250.653458773068
1604.0396099708087 3134.7486420977566
1604.7966485351371 2984.520394395063
1605.5535035340745 3273.8532415076506
1606.3101750160404 3422.705750183023
1607.0666630294363 3058.4295698713
1607.822967622642 2998.8118859172614
1608.5790888440224 3110.752084173207
1609.3350267419137 3348.3569072117707
1610.0907813646445 3162.6346015226327
1610.8463527605145 3171.264153584211
1611.601740977805 3256.721654738793
1612.356946064785 3191.4846017199025
1613.1119680696902 2915.2183543361994
1613.8668070407512 3106.447059424888
1614.6214630261748 2982.856336599055
1615.375936074137 3327.161863232316
1616.1302262328118 3165.9752774812414
1616.8843335503425 3213.9062087944276
1617.638258074854 2955.078799982441
1618.391999854457 3120.2578642286903
1619.1455589372363 3319.123434381391
1619.8989353712623 3255.671448063452
1620.65212920458 2893.508178546632
1621.4051404852235 3210.339710436439
1622.1579692611976 3120.371565014028
1622.9106155804966 2974.816486681896
1623.663079491087 3017.3343016758654
1624.4153610409248 3264.500261496351
1625.1674602779385 3091.700369344237
1625.9193772500403 3009.6518523256136
1626.6711120051277 3218.080475516467
1627.4226645910676 3146.8259317231723
1628.174035055721 2970.061070606824
1628.9252234469168 3111.4088225733035
1629.676229812474 3114.3754644343817
1630.4270542001905 3318.2018408725808
1631.1776966578382 3191.6972891067994
1631.9281572331747 3096.4949949805236
1632.678435973945 3287.6019176115137
1633.4285329278573 3273.659293515938
1634.1784481426203 2920.705501365429
1634.9281816659113 3147.079918211638
1635.677733545388 3296.712836592286
1636.4271038286934 3007.779968877956
1637.176292563452 3290.765307453272
1637.9252997972635 3286.6080316539656
1638.674125577716 3364.050983946722
1639.4227699523672 3601.413300541466
1640.171232968767 3019.6730363874617
1640.9195146744423 3304.06395489059
1641.6676151168977 3479.779134779948
1642.4155343436178 3463.1590383651665
1643.1632724020765 3341.61745452219
1643.9108293397167 3320.732886821639
1644.658205203974 3259.4800423540482
1645.4054000422566 3772.0662014040063
1646.1524139019566 3210.9831831079396
1646.8992468304423 3192.2476155010245
1647.6458988750728 3282.5015210432844
1648.3923700831765 3303.843273918004
1649.1386605020743 3205.8783739477185
1649.8847701790564 3479.244838432848
1650.6306991614038 3329.9736608230533
1651.3764474963682 3360.0691024840135
1652.1220152311944 3090.5452125461766
1652.867402413096 3457.904852643767
1653.6126090892776 3253.5753845759323
1654.3576353069184 3485.1529506839333
1655.1024811131829 3453.064111261528
1655.8471465552066 3308.9874073928886
1656.5916316801213 3551.4380629113634
1657.3359365350298 3422.8903827260538
1658.0800611670165 3274.045688006991
1658.824005623148 3283.778468964176
1659.5677699504722 3190.08923493027
1660.3113541960192 3420.1327737697356
1661.054758406799 3231.7208278302187
1661.7979826297997 3110.9119049686515
1662.5410269119966 3048.794622198179
1663.283891300338 3396.513199479055
1664.0265758417645 3049.9163862070473
1664.7690805831826 3276.6092649227294
1665.5114055714948 3265.301399696824
1666.2535508535748 3615.452461840795
1666.9955164762814 2899.697325820307
1667.7373024864555 3102.862974028337
1668.478908930916 3232.3008496884986
1669.220335856462 2979.6231106817945
1669.9615833098778 3105.934463851173
1670.7026513379296 2925.1452573900897
1671.44353998736 3092.092120035918
1672.1842493048916 3087.0734923906675
1672.9247793372379 2978.2240511784585
1673.6651301310812 3039.916921468508
1674.4053017330934 2946.379915363444
1675.1452941899242 3093.6650303333463
1675.885107548207 2607.622906739235
1676.6247418545518 2702.688412469223
1677.3641971555535 2820.7934874957236
1678.1034734977893 3062.3379391140506
1678.8425709278108 2908.4556205426857
1679.5814894921605 3156.516124351182
1680.320229237359 2940.1995438336044
1681.0587902098978 3132.8811767845805
1681.7971724562685 2877.114402329058
1682.5353760229264 2788.8375177541243
1683.2734009563173 3031.356519061762
1684.0112473028657 2805.9878998287136
1684.7489151089794 2931.2179554463446
1685.4864044210462 2997.4577032465786
1686.2237152854377 2658.4043553665624
1686.960847748498 3017.8062642494006
1687.6978018565642 2708.235614219761
1688.434577655944 2683.7793440849614
1689.1711751929379 2614.4077784326046
1689.9075945138156 2806.299598014738
1690.6438356648396 2776.183686186343
1691.3798986922448 2475.3925551628467
1692.1157836422499 2683.4946188498398
1692.851490561059 2736.5907068552724
1693.587019494853 2690.4067313164396
1694.3223704897991 2537.461636234071
1695.0575435920364 2530.8657666882405
1695.792538847696 2995.861665484597
1696.527356302886 2596.9548513184227
1697.2619960036936 2477.580583558456
1697.9964579961907 2561.4225138942434
1698.730742326432 2220.311035243758
1699.4648490404488 2381.076966982242
1700.1987781842563 2535.474721775884
1700.9325298038548 2695.2323017387
1701.6661039452174 2748.899666470524
1702.3995006543082 2647.8969564966383
1703.1327199770658 2712.078279771401
1703.865761959416 2535.4709004603797
1704.598626647261 2737.436169035642
1705.3313140864866 2461.499888864348
1706.0638243229587 2466.565508188027
1706.7961574025303 2650.8330641285283
1707.528313371029 2495.233136217509
1708.260292274268 2294.221955005834
1708.9920941580403 2555.394820364237
1709.7237190681226 2620.775827142646
1710.4551670502697 2535.834595375337
1711.18643815022 2212.975963094122
1711.9175324136959 2306.4552932932847
1712.6484498863938 2400.0926994425754
1713.379190614005 2264.3906127880064
1714.109754642188 2375.85522026488
1714.8401420165883 2382.9273032281208
1715.570352782839 2445.9368620483083
1716.3003869865497 2509.156791734571
1717.0302446733076 2360.9906313562433
1717.7599258886876 2466.0126910507242
1718.4894306782444 2709.9662360810994
1719.2187590875183 2208.926814970984
1719.9479111620203 2697.4256893245883
1720.6768869472544 2333.13204898914
1721.4056864887025 2754.442845926344
1722.1343098318284 2669.144529873469
1722.8627570220742 2438.1958791842867
1723.591028104871 2267.6293531400534
1724.3191231256242 2246.2196223854
1725.0470421297232 2418.6418332033427
1725.7747851625427 2537.720603407225
1726.5023522694337 2648.468132092764
1727.2297434957363 2466.111256490697
1727.9569588867635 2184.707529425982
1728.6839984878152 2618.6372376223885
1729.4108623441734 2550.269229838675
1730.1375505011038 2482.0670312331777
1730.8640630038426 2321.539027263398
1731.5903998976264 2322.1534497981447
1732.316561227657 2509.300347368441
1733.0425470391274 2251.452016823046
1733.7683573772065 2372.524635323035
1734.4939922870508 2298.65595080412
1735.2194518137949 2490.001028147569
1735.9447360025606 2418.1783879361924
1736.669844898439 2410.051601689431
1737.3947785465189 2255.9833678090126
1738.1195369918605 2109.829016617425
1738.8441202795093 2338.5347505984205
1739.5685284544943 2500.8644425977845
1740.292761561821 2439.7711780485947
1741.0168196464838 2537.0156143209942
1741.7407027534518 2527.040868178941
1742.464410927687 2339.9406066148704
1743.187944214118 2227.8674137748694
1743.9113026576688 2206.3648527926607
1744.634486303241 2275.643233941133
1745.3574951957125 2355.1873271160666
1746.0803293799509 2468.889659363071
1746.8029889008048 2296.3366977886435
1747.5254738031017 2309.3917748022805
1748.2477841316504 2124.8918205504883
1748.969919931249 2296.2563474921453
1749.6918812466665 2180.9858492709236
1750.4136681226646 2452.6336151876667
1751.1352806039777 2335.778207813756
1751.856718735331 2080.642302634979
1752.5779825614281 2115.534890379087
1753.2990721269507 2439.849752240404
1754.0199874765676 2425.5019552056124
1754.7407286549314 2072.0533538226837
1755.4612957066693 2156.972211376503
1756.1816886763954 2178.613519493859
1756.9019076087097 2342.306419232574
1757.6219525481865 2378.4841396810743
1758.3418235393856 2421.476369274761
1759.061520626854 2212.1232823714813
1759.7810438551096 2507.001202997055
1760.5003932686614 2149.8950265445173
1761.2195689119999 2492.012631777733
1761.938570829594 2309.6306113847177
1762.657399065898 2274.7856664501724
1763.376053665348 2084.5195893742994
1764.0945346723602 2118.9896797543615
1764.812842131334 2491.1629598178206
1765.5309760866512 2129.504734674119
1766.2489365826787 2143.248540811229
1766.9667236637597 2223.3821057647574
1767.684337374223 2006.878493497154
1768.401777758383 1975.763387712263
1769.1190448605284 2023.7854501455117
1769.836138724937 2110.7913939371333
1770.5530593958665 2213.108213777862
1771.2698069175603 2624.505706999633
1771.9863813342326 2408.064788914559
1772.702782690094 2117.0338170002
1773.4190110293293 2371.651692017294
1774.1350663961111 2345.932061087111
1774.8509488345844 2142.0302108286332
1775.5666583888924 2319.319656881812
1776.2821951031437 2448.805609462521
1776.9975590214362 2218.596336256123
1777.7127501878585 2402.578590586766
1778.4277686464684 2244.991882115192
1779.1426144413108 2349.3483272158987
1779.8572876164162 2296.8202905574535
1780.571788215797 2028.3882048412222
1781.2861162834415 2276.2486249802796
1782.0002718633277 2177.9666954995578
1782.7142549994132 2358.8772117315275
1783.4280657356376 2215.256933934622
1784.141704115922 2055.100633881999
1784.855170184177 2096.357401526488
1785.5684639842839 2271.661434353714
1786.2815855601148 1900.5616156314995
1786.9945349555237 2261.1618342956986
1787.707312214343 1976.2167695441162
1788.4199173803918 2004.1699362450777
1789.132350497468 2032.34557416693
1789.8446116093583 2138.295721432424
1790.556700759822 2098.317336747809
1791.2686179926077 2180.3909706361255
1791.9803633514493 2118.5006930571803
1792.6919368800554 1976.5246419747805
1793.4033386221236 2235.8718026774472
1794.1145686213295 2303.66282125947
1794.8256269213307 2434.5561142843208
1795.536513565774 2346.198881843209
1796.247228598284 1949.3725768623622
1796.9577720624693 2060.554963927946
1797.6681440019165 2222.875806829845
1798.3783444602013 2211.932152930667
1799.0883734808776 2323.5281423547576
1799.7982311074884 2334.6831463314484
1800.5079173835475 2246.7616989875
1801.2174323525633 2302.9766008458173
1801.9267760580187 2171.676468653278
1802.635948543386 2249.1702322654573
1803.3449498521113 2024.0307743435824
1804.0537800276325 2170.0891985707854
1804.7624391133668 2302.245231826142
1805.47092715271 1906.8489793086505
1806.1792441890484 1978.5584422126879
1806.8873902657433 2284.3582373768886
1807.5953654261448 2104.160810541252
1808.3031697135812 2056.659281233052
1809.0108031713662 2114.6658791725217
1809.71826584279 2125.286937829481
1810.425557771141 2095.051667258281
1811.1326789996747 2077.1601534953484
1811.839629571632 2059.134199543875
1812.5464095302468 2081.8382726321897
1813.2530189187182 2192.068236590612
1813.959457780249 2109.541422004375
1814.6657261580076 2342.5262788838672
1815.371824095153 2097.0979672293734
1816.0777516348262 2271.839131070931
1816.78350882015 1733.6541810433323
1817.4890956942272 1854.1483132824312
1818.1945123001533 1953.0675023996039
1818.8997586809928 2118.285924188789
1819.6048348798067 2033.1752648559348
1820.3097409396287 2194.397466146055
1821.0144769034796 2379.194778943348
1821.7190428143622 2209.935517370148
1822.423438715261 2259.5020999776966
1823.1276646491478 2190.57239704147
1823.8317206589727 2077.8123538603495
1824.5356067876692 2147.235251373063
1825.2393230781581 2071.2509890488604
1825.942869573335 1964.9432160325973
1826.646246316086 1843.4565518661816
1827.3494533492758 2032.2382139626832
1828.052490715756 2155.5336203119064
1828.7553584583547 2183.86903263471
1829.458056619891 2193.7679199036297
1830.1605852431585 2072.419354055245
1830.8629443709433 1853.3787416725525
1831.5651340460063 2040.369116235343
1832.2671543110919 1938.5044511553162
1832.9690052089318 2119.19954011374
1833.6706867822395 1866.4785680973625
1834.3721990737104 2124.5470444422544
1835.0735421260233 2208.3269619225775
1835.774715981841 2065.0410089259913
1836.4757206838058 2309.8883720771705
1837.1765562745459 2071.568662593773
1837.8772227966747 1873.0189684833858
1838.5777202927839 2069.4454714698463
1839.2780488054523 2022.2158767290468
1839.9782083772352 1890.3209195109114
1840.6781990506806 2278.648002692195
1841.378020868313 1909.1509732239024
1842.0776738726418 2002.9588439918748
1842.777158106157 1931.4855294834028
1843.4764736113375 2017.1979263840435
1844.1756204306403 2104.761785548867
1844.8745986065078 2003.561619663467
1845.5734081813607 1895.401459012285
1846.2720491976124 1997.841857949764
1846.970521697649 1828.8205279512676
1847.6688257238511 2136.9492071017626
1848.3669613185684 1963.2098459336291
1849.0649285241452 1809.5955085668006
1849.7627273829057 2097.024257556922
1850.460357937156 1979.227176830015
1851.1578202291857 1720.6387292118739
1851.8551143012664 2077.4064939849804
1852.5522401956569 1993.6415137946738
1853.2491979545957 2128.999545011258
1853.9459876203055 1870.3541940141338
1854.6426092349902 1893.594374483284
1855.3390628408451 1907.6297250391356
1856.0353484800362 2229.8662188368153
1856.7314661947203 2121.8780143004597
1857.4274160270397 1842.7085493924303
1858.123198019115 1986.8508882302176
1858.8188122130487 1779.857947242001
1859.5142586509319 1885.1899292428632
1860.209537374838 1998.4738977163313
1860.9046484268183 1999.1420470384187
1861.599591848917 1874.3448570957894
1862.294367683151 1749.338037585785
1862.988975971528 1881.0176736881945
1863.6834167560355 2026.7847931590618
1864.3776900786452 2157.071934502674
1865.0717959813119 1961.6990136653844
1865.7657345059724 1800.0743434528206
1866.4595056945564 2015.1834034904718
1867.1531095889586 2060.4167514776514
1867.846546231076 1806.0441325349639
1868.5398156627743 2146.9405596128636
1869.2329179259123 1833.6441642331527
1869.9258530623283 2162.9067358744796
1870.618621113843 1854.3049915872932
1871.3112221222636 1859.3198528666067
1872.0036561293764 1869.554050016893
1872.695923176956 2075.7683340163676
1873.3880233067594 2107.229234195175
1874.0799565605212 1843.8527673485364
1874.7717229799673 1970.3669580064893
1875.4633226068036 2091.8257296499664
1876.1547554827175 2049.3993193682377
1876.8460216493859 1855.0245238746452
1877.5371211484617 1969.6631523870396
1878.2280540215852 2088.010389778139
1878.9188203103804 1725.8417914853871
1879.6094200564548 1935.3825046388654
1880.299853301396 1792.3579224262533
1880.9901200867826 2146.8472664394767
1881.6802204541673 2033.0204815648108
1882.3701544450942 2076.270723302622
1883.059922101087 1751.417054809191
1883.7495234636517 1779.3384309740854
1884.4389585742792 1807.268718757698
1885.1282274744517 1820.06503122053
1885.8173302056166 1909.5485767340215
1886.506266809225 1999.1545322360212
1887.195037326701 1621.0578978465505
1887.8836417994517 1906.3099272065563
1888.5720802688702 2166.082365925037
1889.260352776333 2195.4358960198488
1889.9484593632042 2061.912091143541
1890.63640007082 1919.262967232037
1891.3241749405151 1741.4406359520603
1892.0117840135954 2009.4789570990185
1892.6992273313572 1942.8776232125801
1893.3865049350788 1720.602005068105
1894.0736168660223 2253.8088398041195
1894.7605631654333 2078.1413016079546
1895.4473438745408 2197.257467471666
1896.133959034556 1826.2886791441172
1896.820408686679 1974.9717048011983
1897.506692872088 2163.046185747772
1898.192811631945 1859.8312532241998
1898.8787650073991 1842.840889465289
1899.5645530395832 2067.3977537394544
1900.2501757696118 1969.2242673458609
1900.9356332385796 1788.6220551408892
1901.620925487574 1880.2948411912555
1902.3060525576602 1972.2734820189485
1902.9910144898859 2049.5770734673565
1903.6758113252872 1732.5699105822052
1904.3604431048789 1993.8311574527415
1905.0449098696663 1966.8699310095283
1905.7292116606295 1859.5905601825639
1906.4133485187394 1995.8863104679149
1907.0973204849488 1565.6524896171873
1907.7811276001976 1701.855412906191
1908.4647699053967 1568.4926940557923
1909.1482474414588 1886.4275177195063
1909.8315602492694 1779.4466527729164
1910.5147083696957 2084.20952281212
1911.1976918436012 1784.3671013550343
1911.880510711815 1705.7164454225156
1912.5631650151681 2074.42723156762
1913.2456547944657 1773.650678253583
1913.927980090495 1814.559140555383
1914.6101409440362 1806.6156247771796
1915.2921373958416 1921.5068509608022
1915.9739694866603 1930.313568104526
1916.655637257214 2032.5790862277026
1917.3371407482136 1878.621138617757
1918.0184800003572 2123.648688615825
1918.6996550543154 2047.3261315863317
1919.3806659507554 1878.0476055254044
1920.0615127303208 1932.1413239523486
1920.7421954336423 2098.579630857469
1921.4227141013343 2113.6598495254466
1922.103068773993 1947.424493831101
1922.783259492202 2034.9882597962962
1923.4632862965227 1865.8310390972208
1924.1431492275078 1783.1763958684278
1924.8228483256917 1732.1939686200258
1925.5023836315922 1790.3452392548625
1926.1817551857057 1961.1267592532581
1926.8609630285227 1746.4632676203178
1927.5400072005123 2010.6631017145373
1928.218887742125 1700.872817290181
1928.8976046938005 1793.3780327909583
1929.5761580959588 2105.598715023376
1930.2545479890086 1973.6950071332462
1930.9327744133352 1538.0461470231596
1931.6108374093164 1824.951954028371
1932.2887370173066 1693.8223915309813
1932.9664732776473 1562.3448001273775
1933.6440462306673 1835.078036923438
1934.3214559166754 1819.1188989180798
1934.9987023759659 2035.8279031988131
1935.675785648813 2092.883385734659
1936.3527057754836 2109.2833123924374
1937.029462796223 2125.7404024883404
1937.70605675126 1759.3631528307753
1938.3824876808085 1747.9880812261224
1939.058755625072 1720.4367117160582
1939.7348606242267 1785.3283610737933
1940.4108027184448 1913.3781548107283
1941.0865819478713 2017.8310701867788
1941.7621983526478 1718.7941185531301
1942.4376519728921 1700.6392250371514
1943.1129428487038 1847.335210297638
1943.7880710201734 1953.0400071804324
1944.4630365273733 1899.4040182596095
1945.1378394103576 1613.7644163419732
1945.8124797091714 1549.9154982072394
1946.4869574638324 1485.8856110816762
1947.161272714353 1818.2033442279342
1947.8354255007234 1976.3151397962006
1948.5094158629272 1733.5748718341642
1949.1832438409183 1900.5551287436658
1949.8569094746435 1912.9089435979342
1950.530412804037 2020.2533290135416
1951.2037538690092 1931.846396696185
1951.8769327094578 1731.6103730215104
1952.5499493652678 1842.8870580179882
1953.222803876306 1989.2807733411198
1953.895496282421 1989.8339314764592
1954.5680266234522 1809.1378559347672
1955.2403949392155 1923.4022847999822
1955.9126012695142 1547.2431563256628
1956.5846456541403 1871.213436830773
1957.2565281328643 1728.889654667682
1957.9282487454457 1913.7571438898492
1958.5998075316202 2019.7618162299266
1959.27120453112 1681.7490397325066
1959.9424397836501 1873.0752304020702
1960.613513328908 1770.6991721391012
1961.2844252065697 1652.449676886369
1961.9551754563017 1533.9663390413243
1962.6257641177453 1706.0233147825898
1963.29619123054 1616.749487954717
1963.966456834296 1604.9852614989327
1964.6365609686181 1516.372770449168
1965.306503673086 1602.4084049665712
1965.976284987275 1688.4961242140284
1966.645904950734 1820.4672825239563
1967.315363603002 1582.6418946866092
1967.9846609836077 1784.606176947255
1968.6537971320486 1749.74325840763
1969.3227720878222 1838.206953598316
1969.9915858904042 1782.4853654860588
1970.660238579252 1858.1746254067489
1971.3287301938108 1743.26215325921
1971.997060773514 1670.9390732461495
1972.665230357772 1581.9166273688975
1973.3332389859843 1639.515988020347
1974.0010866975335 1572.4749230240982
1974.6687735317864 1776.1983778179347
1975.3362995280932 1860.1458242384383
1976.003664725793 1847.772294132575
1976.6708691642052 1599.5829249892
1977.3379128826364 1717.0883855135858
1978.004795920373 1979.9992444053682
1978.6715183166925 1715.6364558590092
1979.3380801108524 1911.4879403246894
1980.0044813420973 1713.1520937493683
1980.6707220496555 1482.7279643206346
1981.3368022727373 1735.5072108953086
1982.0027220505417 1569.9913313209986
1982.66848142225 1404.3140693007113
1983.3340804270283 1546.8660229178095
1983.999519104027 1758.9268296603161
1984.6647974923835 1797.8372745477798
1985.329915631215 1922.1871697974261
1985.99487355963 1817.4805914244753
1986.6596713167146 1946.9833458190437
1987.3243089415428 1543.7859261333374
1987.9887864731754 1907.0429831428978
1988.6531039506553 1496.986888139593
1989.3172614130071 1585.619942255485
1989.9812588992481 1674.43098240875
1990.645096448372 1416.9382021049128
1991.3087740993633 1693.6406321792426
1991.9722918911848 1713.443443574209
1992.635649862792 1750.5484743036639
1993.2988480531185 1894.3770263464473
1993.9618865010852 1771.7396741219975
1994.6247652455968 1648.9327477074573
1995.287484325545 1527.4780817621208
1995.9500437798033 1570.0046479954774
1996.6124436472292 1555.5201702406544
1997.2746839666706 1705.6039896496604
1997.936764776954 1696.4155596228647
1998.598686116895 1575.4998258737328
1999.2604480252903 2008.2122163220797
1999.9220505409212 1821.536035852254
2000.5834937025593 1570.5974948648152
2001.2447775489582 1657.6230015113604
2001.9059021188514 1798.2551739959458
2002.5668674509616 1552.3461594479443
2003.2276735839987 1640.2175365538988
2003.8883205566508 1642.4146541279338
2004.5488084075987 1644.561085132926
2005.2091371755014 1762.5275172232675
2005.8693068990033 1481.334400051313
2006.5293176167397 1473.2084042432452
2007.1891693673224 1465.2015573644717
2007.848862189354 1432.411556422008
2008.5083961214223 1594.9398714270515
2009.1677712020955 1525.0253941844421
2009.8269874699254 1578.9357631212729
2010.4860449634598 1534.0471935770108
2011.1449437212177 1489.1313884091114
2011.8036837817108 2003.3926553628758
2012.4622651834325 1770.7693603937266
2013.1206879648653 1819.5393966357776
2013.7789521644736 1868.5021386173096
2014.4370578207036 1473.8737991899304
2015.0950049719922 1576.159678405486
2015.7527936567585 1875.9458898269725
2016.4104239134067 1675.8892521672121
2017.067895780323 2116.2034504635217
2017.725209295886 2058.2646024290034
2018.3823644984514 2000.1143033085252
2019.0393614263648 1877.505230824067
2019.6962001179545 1730.0757694597546
2020.3528806115355 1810.1603146374266
2021.0094029454067 1788.0895014794085
2021.6657671578487 1490.4580005281755
2022.321973287133 1512.8840768401537
2022.9780213715148 1659.681053043333
2023.6339114492293 1610.7146375337156
2024.2896435585026 1686.3162126697982
2024.9452177375442 1676.159775815986
2025.600634024544 1907.494443615908
2026.2558924576842 1812.4921104251353
2026.9109930751292 1997.3241555043546
2027.565935915025 1671.3908735601897
2028.2207210155066 1951.0143314517252
2028.8753484146964 1693.3948451387841
2029.529818150695 1954.8245474017629
2030.1841302615903 1777.42712223067
2030.8382847854573 1526.6866693985214
2031.4922817603601 1746.5137023025625
2032.1461212243357 1753.1446054543826
2032.7998032154192 1418.5383696459141
2033.4533277716218 1594.5469258554756
2034.1066949309443 1597.125868475292
2034.7599047313688 1496.2008864797904
2035.4129572108704 1786.7996009860885
2036.0658524074006 1800.261786815734
2036.7185903589016 1822.5805920185799
2037.3711711032956 1904.583671795499
2038.023594678496 1743.9817271461623
2038.675861122394 1566.6749965808567
2039.3279704728757 1513.6228900448968
2039.9799227678031 1460.5890885899278
2040.6317180450278 1761.8629276215547
2041.2833563423865 1568.6842341951392
2041.9348376977014 1950.9565620279786
2042.5861621487784 1798.6269005828551
2043.2373297334088 1601.2209128727186
2043.8883404893695 1861.8152224901842
2044.5391944544208 1793.2894361744063
2045.1898916663158 1948.0274977587258
2045.8404321627804 2029.000977105406
2046.4908159815368 1518.795651487757
2047.1410431602853 1463.7275210312682
2047.7911137367173 1542.9987413160773
2048.441027748504 1563.3989130686348
2049.090785233302 1583.7605492072257
2049.7403862287592 1629.3661979567212
2050.389830772503 1581.260763108494
2051.0391189021466 1533.1546776791847
2051.688250655294 1674.4861616884252
2052.337226069527 1511.2738186388904
2052.986045182417 1899.4876641124276
2053.634708031521 1346.7492155072218
2054.283214654375 1792.0377406312637
2054.931565088511 1296.0124396342183
2055.579759371436 1534.2968206124935
2056.2277975406523 1796.6457907685508
2056.8756796336384 1895.2384171044112
2057.5234056878617 1744.1690802908063
2058.1709757407752 1592.691437358505
2058.8183898298194 1826.5382403472772
2059.465647992416 1758.9576596817546
2060.1127502659747 1772.7980766022854
2060.759696687888 1820.5749013126456
2061.4064872955405 1868.379460539798
2062.053122126292 1882.266517786944
2062.699601217497 1709.2092563372935
2063.345924606485 1536.1773902590057
2063.992092330587 1602.4893952262717
2064.638104427102 1475.9963740768308
2065.283960933324 1565.7154033343018
2065.92966188653 1655.5301699904776
2066.5752073239855 1844.857852880213
2067.2205972829397 1479.6259324292232
2067.86583180062 1828.2799801387912
2068.5109109142522 1553.7693480395615
2069.15583466104 1508.39005409689
2069.8006030781708 1462.9700646960318
2070.445216202821 1561.629772141927
2071.089674072153 1930.5160432295907
2071.7339767233116 1885.7768559344513
2072.3781241934303 1652.760481416862
2073.0221165196253 1739.16939840668
2073.6659537390024 1478.5392253568466
2074.3096358886505 1853.0242976242898
2074.953163005637 1624.3114109474295
2075.596535127028 1343.877513157223
2076.2397522898664 1369.9243660631123
2076.882814531182 1631.9950936171992
2077.5257218879924 1658.262201845158
2078.1684743973 1409.264040821189
2078.8110720960885 1487.03659480149
2079.453515021336 1555.6834913219895
2080.095803209997 1624.3672614892325
2080.7379366990135 1705.7197487206595
2081.37991552532 1843.4772509633872
2082.0217397258275 1768.4415131495061
2082.6634093374414 1440.0333385951067
2083.3049243970418 1652.8154553849436
2083.9462849415067 1806.0137066772713
2084.587491007689 1688.458720838235
2085.2285426324324 1742.882338036795
2085.869439852564 1773.228675745027
2086.510182704902 1494.9002569950721
2087.1507712262483 1565.6554793164926
2087.791205453381 1352.6744157659323
2088.4314854230743 1606.5608807604217
2089.0716111720867 1619.4810577873848
2089.7115827371617 1361.8405091037089
2090.351400155023 1445.5435375487584
2090.991063462385 1529.4688480709183
2091.6305726959527 1325.9944702444059
2092.2699278924047 1651.4291517395377
2092.9091290884153 1488.6389282518971
2093.548176320641 1355.907445588165
2094.187069625721 1689.542844610021
2094.8258090402887 1409.2291308833496
2095.464394600951 1696.7733420569061
2096.102826344313 1664.6163216736961
2096.741104306955 1816.827473463673
2097.379228525453 1424.8871188439302
2098.017199036358 1278.1298054605772
2098.6550158762147 1475.190458196124
2099.2926790815527 1672.6686392750585
2099.9301886888825 1716.994546638131
2100.5675447347076 1540.2755455044812
2101.2047472555114 1526.5203308788027
2101.841796287761 1512.7388605467027
2102.47869186792 1692.288058803181
2103.1154340324265 1482.7421239780842
2103.752022817709 1701.9068660423225
2104.388458260184 1506.2187036287455
2105.024740396251 1630.6066150737101
2105.660869262292 1385.538846091297
2106.296844894685 1695.2057886104503
2106.93266732978 1646.974685242779
2107.5683366039284 1433.4921514184296
2108.2038527534532 1688.1048906549702
2108.8392158146726 1698.59990511183
2109.4744258238843 1434.0312062141315
2110.1094828173755 1496.0106625156554
2110.744386831422 1574.4356408180597
2111.3791379022787 1653.091070708886
2112.01373606619 1826.7735504550578
2112.648181359389 1627.2398287335338
2113.28247381809 1630.5733145455417
2113.916613478492 1672.650908078879
2114.550600376786 1708.6788674336574
2115.1844345491445 1594.0003508472969
2115.818116031729 1371.9030940848834
2116.451644860679 1570.6405149223997
2117.085021072133 1310.0928218250758
2117.718244702204 1415.053270863622
2118.3513157869984 1483.4946405293706
2118.984234362604 1349.0681778431417
2119.617000465092 1693.9333233433488
2120.249614130529 1940.1377407808577
2120.8820753949585 1566.7229045598378
2121.5143842944162 1439.2492375659272
2122.14654086492 1509.2678529805753
2122.7785451424734 1437.6580468068737
2123.4103971630702 1366.0636681408473
2124.042096962681 1711.313497096602
2124.6736445772767 1628.4704270999032
2125.305040042802 1419.5391214629178
2125.936283395191 1452.382392930493
2126.567374670365 1604.0943650664728
2127.198313904233 1663.0745201305413
2127.8291011326855 1539.573676241031
2128.4597363916037 1415.6314897229245
2129.0902197168507 1552.3871256464977
2129.720551144279 1744.5939694108827
2130.3507307097225 1936.956046299747
2130.980758449008 1846.0006042053762
2131.6106343979427 1392.0551473185562
2132.2403585923203 1626.0541163466455
2132.8699310679276 1827.7900757880761
2133.499351860526 1720.0493919974251
2134.1286210058715 1647.1841272754518
2134.7577385397053 1765.5124526901952
2135.3867044977487 1884.0496568399685
2136.0155189157176 1951.5392815276743
2136.644181829308 1870.2395063568904
2137.2726932742025 1569.6467019998925
2137.901053286074 1501.3054352868646
2138.5292619005777 1432.9155218606
2139.1573191533535 1514.573671322031
2139.7852250800315 1671.8547838378945
2140.4129797162295 1567.6774104740025
2141.0405830975433 1378.9298466563423
2141.6680352595613 1397.8947252600035
2142.2953362378576 1416.9118464941873
2142.9224860679915 1334.9093594387984
2143.549484785508 1519.5834377579877
2144.1763324259373 1479.2892439723635
2144.803029024799 1611.1918718150157
2145.429574617594 1314.6160291870965
2146.0559692398165 1664.7409675324907
2146.682212926942 1338.281292141525
2147.308305714432 1531.0994088655489
2147.9342476377333 1842.3500167907464
2148.5600387322847 1900.6904533969453
2149.185679033506 1843.2682932650962
2149.8111685768017 1383.2534572763857
2150.4365073975678 1264.4396633827037
2151.061695531187 1370.185016723731
2151.686733013021 1377.8913814900754
2152.311619878423 1385.7038210930755
2152.9363561627342 1498.5191868783813
2153.560941901278 1382.139614944384
2154.1853771293663 1584.7740034911458
2154.809661882293 1546.2502190477694
2155.433796195348 1472.1408052574743
2156.0577801037944 1397.7564859299932
2156.681613642895 1709.5141925624612
2157.3052968478896 1690.227482692019
2157.928829754006 1670.904489815639
2158.552212396462 1741.0809534089399
2159.1754448104566 1468.88946415101
2159.7985270311783 1385.9719979171243
2160.4214590938027 1171.5757379989786
2161.0442410334927 1057.6355428255645
2161.6668728853874 1161.857958096543
2162.289354684628 1266.3155883618003
2162.911686466332 1496.4815588128292
2163.533868265602 1600.1282489396579
2164.1559001175337 1869.8000098305904
2164.7777820572046 1614.4908607657842
2165.399514119681 1591.0929576936219
2166.021096340013 1346.777728509976
2166.6425287532384 1779.5250955401177
2167.263811394385 1282.631926483107
2167.8849442984574 1799.6465550729677
2168.505927500455 1514.6588669630817
2169.126761035366 1670.4421144896455
2169.7474449381552 1476.4751170272634
2170.367979243778 1661.6618679015046
2170.9883639871823 1325.1551388308305
2171.608599203293 1486.4401609542106
2172.2286849270276 1886.6653986174374
2172.8486211932886 2022.0855885174594
2173.4684080369625 1632.0490955843538
2174.0880454929265 1393.9958646181235
2174.7075335960417 1541.6943584010155
2175.3268723811543 1187.1817649039476
2175.9460618831 1348.916266366832
2176.565102136701 1346.675324754871
2177.1839931767627 1400.2230216679911
2177.802735038078 1453.9323465184893
2178.421327755432 1437.226241470782
2179.0397713635866 1399.1207792427058
2179.658065897298 1406.2442253607962
2180.276211391305 1508.194161908056
2180.8942078803357 1468.4959613671458
2181.5120553991 1487.5769523394383
2182.129753982299 1293.462631253416
2182.7473036646206 1615.7439185145956
2183.3647044807367 1606.8442301817308
2183.9819564653044 1573.0926875295174
2184.599059652968 1539.3144780275566
2185.216014078367 1529.0764514649793
2185.832819776113 1633.568983653858
2186.4494767808137 1738.216082816102
2187.065985127063 1505.9274412706045
2187.682344849436 1317.725603665387
2188.298555982501 1392.1239691947305
2188.9146185608097 1466.5618069326852
2189.530532618901 1689.133309255362
2190.1462981912937 1558.6433230958075
2190.761915312507 1761.3040391424263
2191.377384017036 1384.3149206699622
2191.9927043393654 1576.4164420152067
2192.6078763139667 1756.6690456865617
2193.2228999753006 1937.3250320429238
2193.837775357808 1639.9203842408454
2194.452502495922 1570.4370260764435
2195.0670814240602 1500.8051787328463
2195.6815121766285 1376.1705611196014
2196.2957947880186 1282.8477751082016
2196.9099292926057 1189.3410625716772
2197.523915724758 1699.455547593334
2198.137754118825 1479.5884131206137
2198.7514445091456 1934.6996437586283
2199.3649869300443 1987.9734469983523
2199.9783814158327 2041.4551674253194
2200.5916280008096 2128.330204668747
2201.2047267192593 1788.8902296151623
2201.8176776054515 1522.1189552563108
2202.430480693649 1639.99918877267
2203.0431360180955 1758.205057052161
2203.6556436130195 1711.7946133653957
2204.268003512645 1242.9326697539213
2204.8802157511727 1449.8765306858988
2205.492280362796 1524.665140972553
2206.1041973816937 1599.7091353339224
2206.715966842032 1537.5627561498743
2207.3275887779655 1670.3254473597576
2207.93906322363 1505.2290312136024
2208.550390213153 1575.9798460532315
2209.1615697806465 1650.8438264702168
2209.7726019602105 1285.6027219135601
2210.3834867859277 1169.3637668312126
2210.9942242918787 1391.6986663869698
2211.6048145121167 1556.2063084316994
2212.2152574806914 1498.20372418808
2212.825553231638 1440.1706702981983
2213.435701798975 2073.178060654464
2214.045703216707 1540.8260440741067
2214.655557518832 1196.355417903596
2215.2652647393297 1193.170756039608
2215.874824912169 1102.1641412343893
2216.4842380713 1531.105586007648
2217.09350425067 1647.5150822427865
2217.7026234842033 1764.270189658153
2218.311595805819 1726.5566807915322
2218.9204212494133 1473.0486868855796
2219.52909984888 1336.064370052994
2220.137631638092 1694.533490165706
2220.7460166509154 1545.107374369958
2221.354254921198 1179.5207738262732
2221.9623464827764 1517.8898282836103
2222.5702913694713 1586.813032864718
2223.178089615096 1852.8545477587813
2223.7857412534486 1533.640525165456
2224.39324631831 1337.7083365916185
2225.000604843457 1356.216763848099
2225.607816862641 1744.123477983383
2226.214882409611 1572.215454355291
2226.8218015180973 1664.423554951388
2227.4285742218217 1620.684706631298
2228.0352005544864 1517.4596624315807
2228.6416805497847 1292.4227156647573
2229.248014241399 1446.6587446520605
2229.8542016629945 1328.5701704835678
2230.460242848223 1600.484491632969
2231.0661378307304 1443.9701956434428
2231.671886644139 1287.311424607216
2232.277489322065 1346.230827694429
2232.8829458981127 1120.3054169531113
2233.48825640587 1598.1705644750482
2234.0934208789095 1950.025978868957
2234.6984393507955 1805.670183870962
2235.3033118550793 1506.6536419908348
2235.9080384252975 1440.654522706401
2236.5126190949723 1189.2117644793939
2237.1170538976166 1350.8712146622584
2237.721342866729 1156.041478788127
2238.32548603579 1288.6927797194317
2238.9294834382763 1601.6866128471352
2239.533335107646 1572.1787711683755
2240.1370410773434 1520.6044527369654
2240.740601380803 1512.2507917327118
2241.3440160514474 1503.8990424054743
2241.9472851226783 1694.7974980976312
2242.550408627896 1656.4689470519
2243.1533866004793 1831.666253885733
2243.756219073799 1408.7028433626115
2244.3589060812064 1288.9549665224026
2244.961447656049 1322.5962835549988
2245.5638438316564 1539.611450460701
2246.166094641343 1601.7267752845426
2246.7682001184166 1244.9007879631658
2247.3701602961664 1351.3809756683197
2247.971975207871 1512.9753350255003
2248.5736448867974 1639.2095514700438
2249.175169366197 1325.5591942871256
2249.7765486793123 1442.780022762381
2250.3777828593684 1521.3810371739278
2250.9788719395783 1431.6001878259765
2251.579815953146 1446.0014116808893
2252.1806149332606 1269.3478634246135
2252.781268913097 1606.0887358587752
2253.381777925817 1421.7932180017076
2253.9821420045737 1555.7084599958744
2254.5823611825035 1474.4054787179857
2255.1824354927303 1538.226480955224
2255.782364968365 1315.3321466396294
2256.38214964251 1649.7786037153342
2256.9817895482483 1308.9896576157878
2257.5812847186553 1449.6205667975983
2258.180635186791 1111.2449221927632
2258.779840985704 1300.1492096402037
2259.37890214843 1430.7160467025935
2259.97781870799 1772.426770339976
2260.5765906973957 1666.9708161406525
2261.175218149645 1728.8248320485284
2261.773701097718 1675.969733023237
2262.3720395745895 1237.5001487716959
2262.970233613216 1008.5496013838562
2263.568283246548 1105.4821410695195
2264.1661885075137 1202.51697041962
2264.763949429038 1317.0921428197812
2265.3615660440246 1748.9316242564769
2265.959038385374 1770.6512780812868
2266.5563664859637 1792.4469414080359
2267.153550378669 1346.7519406782128
2267.7505900963424 1676.6242700567698
2268.3474856718312 1289.6989297499815
2268.9442371379664 1307.7336234447664
2269.5408445275643 1376.2432402236668
2270.1373078734377 1244.7669418341295
2270.7336272083758 1439.5949309290938
2271.32980256516 1310.1949709478863
2271.925833976562 1544.5438303565177
2272.5217214753357 1396.5017145585198
2273.117465094223 1248.1349125305128
2273.7130648659586 1326.2320540877436
2274.308520823257 1355.2287192874755
2274.903832998827 1579.9138601439904
2275.4990014253563 1328.5658882937323
2276.094026135528 1601.465157758514
2276.6889071620117 1335.6804315133468
2277.2836445374614 1443.5293109112818
2277.878238294519 1415.308312786428
2278.472688465812 1280.1227813212477
2279.066995083962 1144.6899264839772
2279.6611581815705 1350.243926067659
2280.255177791232 1628.2980118763812
2280.8490539455233 1461.057711458562
2281.442786677013 1706.3796842217191
2282.0363760182554 1446.5392623298908
2282.6298220017943 1391.90244481668
2283.223124660155 1722.3719038019906
2283.816284025859 1199.800580250592
2284.4093001314086 1859.112102893633
2285.002173009292 1310.5568160209868
2285.5949026919952 1487.541642934713
2286.1874892119777 1384.1869319132509
2286.7799326016993 1284.46299206151
2287.3722328936 1184.4416371902398
2287.964390120109 1095.932994221057
2288.556404313642 1594.5166094733688
2289.1482755066027 1877.9684300864876
2289.7400037313873 1532.488135145473
2290.3315890203703 1263.771588408092
2290.9230314059205 1544.3887765565282
2291.5143309203904 1444.478194110589
2292.1054875961236 1363.455654170827
2292.6965014654506 1749.6185067918263
2293.287372560684 1798.9266886423306
2293.878100914131 1848.4309538852824
2294.468686558086 1437.32897449329
2295.059129524827 1360.973950702992
2295.649429846617 1342.560083788457
2296.239587555716 1324.0680933422361
2296.8296026843636 1363.7100563455901
2297.419475264791 1276.375633884459
2298.0092053292137 1188.7993438521694
2298.598792909839 1504.9930030432797
2299.1882380388597 1592.6211488759004
2299.777540748455 1548.878281344594
2300.3667010707904 1504.977302841344
2300.9557190380256 1651.8521751109565
2301.544594682302 1446.4848711328277
2302.1333280357503 1240.87416791856
2302.721919130485 1426.3514173030233
2303.3103679986198 1469.0251606078577
2303.898674672242 1511.8944176496311
2304.486839183437 1474.4906866712722
2305.0748615642697 1432.3606745697411
2305.6627418468015 1309.6084690555313
2306.2504800630704 1474.2150112900574
2306.8380762451143 1433.8522930880586
2307.425530424949 1492.9782420676102
2308.012842634582 1552.2282701722102
2308.6000129060103 1622.14806885431
2309.187041271214 1433.1067996756296
2309.773927762164 1777.1447250787417
2310.3606724108213 1508.9358393715172
2310.9472752491274 1316.7487242772008
2311.5337363090184 1337.1481501103494
2312.120055622414 1357.6083736673813
2312.706233221221 1354.3937851143417
2313.2922691373424 1546.1383450934563
2313.8781634026564 1339.6906599261802
2314.463916049037 1502.2833600787715
2315.049527108342 1507.3748774212804
2315.6349966124235 1665.5658301056235
2316.2203245931123 1486.184863946372
2316.8055110822315 1306.3528881311845
2317.3905561115935 1175.651211159891
2317.9754597129977 1085.9958095664574
2318.560221918229 1159.2409813059207
2319.1448427590603 1232.67770512783
2319.729322267256 1176.0526724985798
2320.313660474563 1199.1111296433353
2320.8978574127195 1337.100167781023
2321.481913113452 1475.5210663482253
2322.0658276084705 1247.3337039614296
2322.6496009294806 1372.7361023414155
2323.233233108165 1170.5675219827156
2323.8167241762058 1510.6631566096069
2324.4000741652617 1220.7946781147318
2324.983283106987 1728.0479246296159
2325.5663510330232 1834.414673291291
2326.1492779749933 1263.9160209380602
2326.7320639645204 1442.1060204952523
2327.3147090332004 1122.8092415081107
2327.897213212629 1340.5428010865394
2328.4795765343843 1558.474249204969
2329.0617990300307 1172.374887413162
2329.643880731124 1768.4409283478012
2330.22582166921 1310.9949364708755
2330.807621875816 1157.006598866332
2331.3892813824623 1002.8714398938458
2331.9708002206517 1134.4305364864322
2332.5521784218818 1560.127000779837
2333.133416017634 1492.0290154726363
2333.7145130393765 1612.736059062106
2334.295469518571 1733.7347998002533
2334.876285486658 1708.3383360454234
2335.456960975076 1699.9859737396898
2336.037496015242 1691.6443867141722
2336.6178906385667 1532.718611376445
2337.198144876451 1452.2687147763604
2337.778258760278 1333.9008764139403
2338.3582323214214 1454.8228594343245
2338.938065591243 1575.9893692766982
2339.517758601087 1670.7019622832618
2340.0973113822965 1610.4749549890053
2340.676723966193 1475.8906910838834
2341.255996384094 1586.1833454799103
2341.835128667295 1584.3403670320229
2342.4141208470883 1682.841929350646
2342.992972954751 1416.1041975112053
2343.5716850215467 1167.880678414484
2344.1502570787306 919.1267959645089
2344.7286891575386 1217.0209712077915
2345.3069812892045 1790.0649644931102
2345.885133504944 1681.8731057341593
2346.4631458359618 1461.9573122053798
2347.04101831345 1274.7515684719267
2347.6187509685915 1343.5406523148226
2348.196343832553 1314.696738208035
2348.7737969364935 1420.2288139089253
2349.351110311558 1318.06865371533
2349.9282839888765 1235.041966470297
2350.5053179995757 1081.9972729852338
2351.0822123747585 1198.3385019701311
2351.658967145526 1191.427089853228
2352.2355823429643 1184.5737045006258
2352.812057998144 1520.860213578094
2353.3883941421263 1286.9589461181044
2353.9645908059647 1564.3522228914853
2354.540648020693 1395.267963128022
2355.116565817336 1158.8881778217533
2355.6923442269126 1229.8521912113113
2356.2679832804224 1300.964542395474
2356.8434830088518 1251.0879138178784
2357.41884344318 1255.91997905487
2357.994064614377 1372.3153355188817
