#exp_cfg={"servo_angle": 0.0, "laser_lim": 100.0, "servo_angle_to": 18.0, "laser_wup": 0.0, "bt_dev": "EnSpectr-25AE3", "laser_wdn_max": 0.0, "frames": 10.0, "servo_used": 0, "servo_calib_use": 0, "laser_wdn_min": 0.0, "servo_pix_from": 90.0, "cooler_tout": 300.0, "servo_angle_from": 0.0, "servo_calib": "[-1.9174921013161362e-09, 3.9322238269163779e-05, -0.27385609119055809, 653.59552119713567]", "laser_autoctl": 0, "servo_pix_to": 3682.0, "laser_pw": 100.0, "cooler_on": 0, "laser_volt": 4.0, "cooler_autoctl": 0, "cooler_curr": 70.0, "cooler_startup": 10.0, "laser_fixed_pw": 0, "gain": 1.3, "offset": 2.53059635486, "servo_calib_degree": 3.0, "laser_curr": 55.0, "shutter": 8200.0, "servo_calib_step": 1.0, "laser_fixed_curr": 0, "exp": 2000.0, "ccd_volt": 4.7, "bt_addr": "00:06:66:62:5A:E3", "servo_delay": 500.0, "laser_autooff": 1}
#proc_cfg={"flat_auto_wnd": 200.0, "flat_auto_fr": 200.0, "flat_auto_shift": 5.0, "yconv": 1, "flatten": 1, "flatten_strength": 100.0, "xfrom": 300.0, "auto_max_frame": 2000.0, "auto_signal": 48000.0, "flat_auto_tol": 0.1, "autoclip": 1, "xrel_range": 0.0, "flat_auto_to": 4000.0, "intensity_adj": 1.0, "xrel": 7852.0, "rmhot": 1, "flat_auto_slit": 4.999999999999997, "auto_ini_exp": 300.0, "auto_off": 0, "xto": 2860.0, "flat_auto_ref": "", "flat_auto_rank": 1, "autobackg": 0, "xrel_adj": 0.0, "auto_black_lvl": 1, "base_wnd": 100.0, "sub_baseline": 0, "xconv": 2, "auto_max_exp": 1000.0, "auto_total_exp": 10000.0, "auto_exp": 0, "rmripple": 0, "black_lvl": 8263.5625, "shutter_clip_adj": 0.0, "auto_bckg": 0, "flat_auto_thr": 0.9, "subbackg": 1}
316.8218498245369 19154.745990656393
317.89969571804795 19001.673048485507
318.977263876126 18998.592133505754
320.05455438786703 18804.041151693844
321.1315673423287 18735.45481695928
322.2083028285215 18765.558668767746
323.2847609354267 18540.17152758048
324.3609417519747 18546.95514151155
325.43684536705587 18487.58006493914
326.5124718695279 18468.62025233373
327.58782134820103 18281.980774001513
328.66289389184385 18287.85429054075
329.7376895891921 18103.116484117963
330.8122085289342 18103.983805070966
331.88645079971866 18117.659611083443
332.9604164901575 17931.94881803746
334.03410568881554 17846.193152634693
335.1075184842266 18076.38650496169
336.18065496487543 17850.705839424438
337.2535152192122 17784.43127461036
338.32609933564163 17779.830141062754
339.39840740253203 17725.169490734846
340.4704395082099 17683.256795773308
341.5421957409617 17592.95856597107
342.6136761890357 17645.202946017445
343.6848809406365 17570.777234537636
344.75581008392874 17514.818804160957
345.82646370703696 17443.096597315896
346.8968418980512 17405.600574801865
347.96694474501055 17495.932925976762
349.0367723359268 17362.23766597852
350.106324758759 17298.79900971636
351.1756021014353 17172.437538454098
352.2446044518383 17151.383388046634
353.31333189781435 17220.68156429756
354.38178452716966 17108.831123584965
355.449962427665 16984.669113500127
356.51786568702846 16965.700942135565
357.58549439294256 16962.85052147626
358.6528486330535 16943.943296408957
359.71992849496564 16858.799164619475
360.7867340662433 16881.194601284962
361.8532654344144 16846.853216618932
362.9195226869597 16866.09414132426
363.9855059113288 16706.04491712654
365.05121519492604 16671.54251374813
366.11665062511565 16695.286088393157
367.1818122892273 16622.078545638386
368.2467002745434 16675.727926581356
369.31131466831175 16566.18305464886
370.375655557742 16580.901076256217
371.4397230299983 16548.666376349523
372.5035171722102 16443.22199460338
373.5670380714637 16444.675811867335
374.6302858148101 16527.829153643674
375.6932604892554 16533.605981264678
376.7559621817709 16465.4878294733
377.81839097928605 16365.717238005052
378.8805469686886 16288.678429914846
379.94243023683157 16398.175475326374
381.0040408705263 16327.22397493498
382.0653789565458 16196.182288865868
383.1264445816196 16285.314919196497
384.1872378324406 16190.8902255951
385.2477587956637 16173.87593484869
386.3080075579037 16076.146234097421
387.3679842057336 15925.944859031257
388.4276888256918 16036.321090590503
389.48712150426945 15909.872854476514
390.54628232792857 15928.790876327603
391.6051713830857 15834.375473122334
392.66378875611736 15854.272959708402
393.7221345333637 15807.962146860658
394.7802088011249 15790.494335023483
395.838011645661 15754.217070171391
396.89554315319765 15716.586510922349
397.9528034099112 15549.117650456348
399.00979250194723 15527.589547685033
400.06651051541485 15551.048871747707
401.1229575363741 15563.390457888669
402.17913365085224 15487.671158765294
403.23503894483656 15598.852537379096
404.2906735042761 15450.598683057196
405.3460374150818 15360.388078958698
406.401130763119 15371.568285473408
407.455953634224 15383.784337327024
408.5105061141876 15253.755496833142
409.56478828876243 15211.419011809809
410.6188002436629 15223.970896131217
411.6725420645689 15201.198702805497
412.72601383711117 15207.62372468964
413.77921564689314 15157.410173475053
414.8321475794728 15111.518320907611
415.88480972036814 14982.869102496998
416.93720215506437 15100.281610304237
417.9893249690049 14945.379458461462
419.04117824759123 14905.667960697308
420.09276207619223 14816.008436593725
421.144076540133 14875.766977431646
422.1951217247042 14884.8902703297
423.24589771515275 14813.248720174734
424.2964045966928 14774.715378853643
425.34664245449494 14751.65140483491
426.3966113736933 14748.117342287995
427.4463114393875 14671.452462654055
428.49574273662984 14653.573285926173
429.5449053504417 14587.704258002932
430.5937993658026 14622.032648493021
431.6424248676558 14462.798769887426
432.6907819409007 14579.00445838962
433.73887067040596 14686.697932487743
434.7866911409965 14575.244897858513
435.8342434374608 14489.089417224513
436.88152764455117 14477.222149265735
437.9285438469724 14467.969005234536
438.9752921294057 14403.647440650026
440.02177257648145 14381.405043769075
441.06798527279716 14348.356596004614
442.1139303029122 14512.133986187659
443.1596077513459 14368.838494845002
444.2050177025794 14306.007470636167
445.25016024105753 14299.616054546777
446.2950354511886 14250.385054357388
447.33964341733736 14307.550540193453
448.383984223834 14174.358317065115
449.4280579549686 14138.498699606213
450.471864694995 14264.846666805164
451.5154045281306 14257.899600228313
452.5586775385509 14144.824372994748
453.60168381039693 14167.247427246728
454.64442342776783 14199.641406764491
455.6868964747264 14137.111397920758
456.7291030353008 14015.483792131505
457.77104319347563 14178.558718585937
458.8127170332027 14012.861679358432
459.854124638392 14022.150345840088
460.895266092919 14187.643501923692
461.93614148061897 14159.816549150675
462.97675088529104 14103.57200965624
464.01709439069236 14098.89376681055
465.0571720805492 14082.774737403885
466.0969840385442 14059.345043876496
467.1365303483253 14136.44448580478
468.17581109350067 14005.82565536207
469.2148263576437 13929.38201631481
470.2535762242878 14041.738330124655
471.29206077693016 14057.699148111531
472.33028009902773 14078.83520246057
473.3682342740012 14060.66981815146
474.40592338523857 14066.390336233282
475.4433475160804 14085.05062179848
476.4805067498364 14139.852070047375
477.51740116978 14108.624682390011
478.5540308591426 14137.069914371003
479.59039590112116 14208.038914141338
480.6264963788726 14248.8186076672
481.6623323755193 14376.62162804995
482.6979039741436 14304.932734731308
483.7332112577915 14459.01954076593
484.76825430947247 14617.353551813498
485.80303321215797 14722.550985019276
486.837548048783 14709.701259088139
487.8717989022425 14928.059124211917
488.90578585539697 14900.440757315475
489.9395089910686 14969.29069487364
490.97296839203955 14914.543643976707
492.00616414106116 14819.558528988102
493.0390963208429 14832.549484442594
494.0717650140559 14877.216122511014
495.10417030333883 14734.979747281977
496.1363122712901 14614.8829797619
497.16819100046814 14530.22919510805
498.1998065734024 14352.364163922428
499.2311590725767 14205.933464421727
500.26224858044407 14141.463965374196
501.2930751794156 14098.788335413148
502.3236389518679 14016.9992377669
503.35393998014115 13871.044233196164
504.38397834653733 13890.70426875044
505.4137541333221 13840.186818372826
506.4432674227228 13645.094054751055
507.4725182969323 13614.951043295261
508.5015068381035 13614.835251939661
509.53023312835467 13507.702249473296
510.55869724976765 13547.408127587123
511.58689928438434 13504.640172043228
512.6148393142121 13509.025009676572
513.6425174212218 13612.276681232794
514.6699336873462 13460.106480318942
515.6970881944835 13531.970851722825
516.7239810244901 13422.80967805813
517.7506122591931 13397.004910705635
518.7769819803761 13322.126068470354
519.8030902697901 13368.776694704971
520.8289372091476 13376.268592949002
521.8545228801249 13404.303790007627
522.8798473643619 13275.391461151401
523.9049107434621 13292.859993771694
524.9297130989908 13286.136701081845
525.9542545124805 13272.804104759683
526.9785350654201 13184.922372916364
528.0025548392696 13284.446679437704
529.0263139154504 13118.629819240727
530.0498123753423 13203.975517480107
531.073050300296 13112.623759932892
532.0960277716204 13073.854642622387
533.1187448705896 13126.018725612284
534.1412016784416 13129.57576176663
535.1633982763833 13101.693882160038
536.1853347455726 12987.542915985892
537.2070111671401 13004.884888605184
538.2284276221817 12941.565034217858
539.2495841917516 12923.14871754582
540.2704809568677 12806.020004146649
541.2911179985167 12862.346366075266
542.3114953976419 12899.726944877477
543.3316132351592 12898.299537249364
544.3514715919409 12819.33957177094
545.3710705488247 12755.236544583617
546.3904101866156 12755.72895166755
547.4094905860784 12796.805320299492
548.4283118279418 12798.97499648807
549.4468739929034 12797.61177872917
550.4651771616191 12819.092061621446
551.4832214147063 12754.57333055969
552.501006832761 12788.88988029816
553.5185334963226 12728.535813699847
554.5358014859103 12779.32951246303
555.5528108820035 12873.762207000094
556.5695617650363 12758.985987422515
557.5860542154242 12828.271334883255
558.6022883135283 12747.928754104614
559.6182641396881 12630.16782805727
560.6339817741991 12785.628987677474
561.6494412973225 12756.243802685842
562.6646427892883 12825.34179109571
563.6795863302796 12667.783131892222
564.694272000459 12638.670661628235
565.7086998799423 12714.371522305699
566.7228700488104 12674.315842076983
567.7367825871115 12581.287315238513
568.7504375748576 12571.111369354858
569.7638350920224 12559.902930701865
570.7769752185486 12545.799440390778
571.7898580343353 12548.283925342534
572.802483619258 12411.926976512103
573.8148520531431 12465.89325498318
574.8269634157932 12534.309916123875
575.8388177869692 12378.996224101484
576.8504152463938 12466.440849003457
577.8617558737587 12529.119556187023
578.8728397487175 12451.109947297056
579.883666950891 12431.912215668548
580.8942375598654 12592.482694345248
581.9045516551851 12612.482884855302
582.9146093163617 12858.774804099608
583.924410622878 12664.432283641556
584.9339556541727 12705.494610447011
585.9432444896538 12707.875786221795
586.9522772086875 12669.865834378214
587.9610538906127 12707.081587600263
588.9695746147318 12682.8864553856
589.9778394603054 12753.877506579558
590.985848506567 12583.680720222854
591.9936018327098 12521.557992103584
593.0010995178891 12438.386712184507
594.0083416412344 12414.20454400225
595.0153282818283 12300.744994969962
596.0220595187293 12184.890854613212
597.0285354309508 12169.233101489855
598.0347560974806 12203.810381950967
599.0407215972609 12120.019620847672
600.0464320092051 12090.047004387478
601.0518874121954 12131.518451573389
602.0570878850685 12031.661522963575
603.062033506636 12080.03552382247
604.0667243556636 11987.907702549499
605.0711605108936 11941.225592958024
606.0753420510264 12144.84166142221
607.0792690547278 11999.171356217046
608.082941600629 11886.527571329174
609.0863597673306 12008.500126962203
610.0895236333909 12144.200581872235
611.0924332773357 12199.854652135677
612.0950887776617 12051.222765752047
613.0974902128219 12118.556674632759
614.0996376612384 12246.229386608546
615.1015312013005 12263.63477571854
616.1031709113595 12435.286710993703
617.1045568697336 12322.955891390215
618.1056891547069 12442.287608393997
619.1065678445229 12595.360175562575
620.1071930173985 12794.67824100514
621.1075647515099 12740.786600222864
622.1076831250048 12790.909160908002
623.1075482159849 12973.045074413185
624.1071601025305 12876.838878409664
625.1065188626781 12942.059390649552
626.105624574433 13190.365314081879
627.1044773157682 13169.861897537965
628.1030771646128 13217.046900374091
629.1014241988742 13271.681730660484
630.0995184964158 13379.776545486451
631.0973601350688 13386.974924332695
632.0949491926294 13525.89574765469
633.0922857468631 13332.199011921348
634.089369875499 13469.880477279332
635.0862016562278 13504.24826458994
636.0827811667077 13255.10224308266
637.0791084845641 13332.595316639961
638.0751836873878 13245.933589415388
639.0710068527369 13227.047605053875
640.0665780581294 13113.4719895427
641.0618973810506 12946.702746837018
642.0569648989604 12986.834807753348
643.0517806892676 12701.860892230525
644.0463448293649 12750.67758729641
645.040657396592 12546.776161676045
646.0347184682723 12450.829571428174
647.0285281216875 12250.535875063957
648.0220864340772 12196.939457809869
649.0153934826558 12169.925834779997
650.0084493446047 12079.813808103649
651.0012540970674 12069.680395048288
651.9938078171526 11948.331486403044
652.9861105819346 11886.92654272757
653.9781624684565 11941.161077932515
654.9699635537254 11758.748481352584
655.9615139147136 11809.444379522549
656.9528136283589 11625.650820669103
657.9438627715699 11787.344238820438
658.9346614212154 11634.654248100505
659.925209654135 11435.484780336255
660.9155075471263 11486.235102099883
661.9055551769616 11483.899697526105
662.895352620375 11615.478911217491
663.8848999540678 11383.97567697795
664.8741972547068 11277.929655586508
665.863244598926 11239.523011244803
666.8520420633213 11353.867764580911
667.8405897244611 11149.156917895327
668.8288876588758 11106.38586733856
669.8169359430613 11213.157364410927
670.8047346534822 11076.315166922777
671.7922838665672 10980.345904565838
672.7795836587156 11028.29432627529
673.766634106285 11195.248115677061
674.7534352856092 10951.269796032535
675.7399872729766 10963.535787543919
676.7262901446538 11008.297420032166
677.712343976862 10985.249911831674
678.6981488457986 11035.151455829691
679.6837048276229 10892.55403770061
680.6690119984596 10926.291579195076
681.6540704344043 10925.816108692281
682.6388802115107 10887.204578893412
683.6234414058108 10811.990666097294
684.6077540932874 10797.323076217235
685.591818349907 10782.44280948342
686.575634251587 10824.785091932074
687.5592018742263 10836.874869682384
688.5425212936734 10636.264997210988
689.5255925857564 10851.638487269613
690.5084158262707 10784.020137755364
691.4909910909646 10760.505012651092
692.4733184555644 10551.78609369422
693.4553979957618 10740.337215750576
694.4372297872123 10729.02911448883
695.4188139055404 10701.937139238138
696.4001504263324 10691.122810851566
697.3812394251509 10757.754084912172
698.3620809775111 10676.752237832208
699.3426751589104 10703.939720333707
700.3230220448004 10726.082534833946
701.3031217106054 10737.157540942488
702.2829742317172 10979.522276142854
703.2625796834873 10674.654789583596
704.2419381412474 10666.943099045366
705.22104968028 10796.47421201551
706.1999143758458 10780.03078942281
707.178532303169 10709.148051412429
708.1569035374378 10881.930200653318
709.1350281538107 10941.232479925387
710.1129062274158 10995.257871883825
711.0905378333373 11092.538450937249
712.0679230466376 11210.247879329594
713.0450619423427 11396.241944914556
714.0219545954424 11566.846913816162
714.9986010808989 11605.220657852393
715.9750014736292 11805.30998052281
716.9511558485392 12077.890150768522
717.9270642804786 12275.99649997883
718.9027268442787 12435.679593855075
719.8781436147328 12491.447868266327
720.8533146666014 12511.78771248788
721.828240074612 12624.15562738689
722.8029199134635 12531.929944705797
723.7773542578125 12385.173156372543
724.751543182294 12253.058127542276
725.7254867615029 12244.632230801422
726.6991850700015 11969.282700282341
727.6726381823228 11772.463991055387
728.6458461729599 11741.662993346057
729.6188091163858 11727.443601455008
730.5915270870246 11713.662602347624
731.5640001592856 11656.989355355105
732.536228407529 11715.572822131437
733.5082119060917 11807.42365211948
734.4799507292755 11799.588281876275
735.4514449513481 11902.963697214978
736.4226946465496 11939.5904938769
737.3936998890786 11982.135050698033
738.3644607531078 11802.808423773402
739.3349773127793 11802.28468165078
740.3052496421951 11682.201776382213
741.27527781543 11466.864350035694
742.2450619065221 11301.96974359745
743.2146019894826 11223.829392950942
744.183898138288 11038.577788721714
745.1529504268801 10937.759818700348
746.1217589291682 10650.335641429518
747.0903237190341 10549.790972589526
748.058644870318 10410.39612297485
749.0267224568397 10313.581822467238
749.994556552374 10189.188555257195
750.9621472306771 10161.537678133565
751.9294945654583 10092.01825637044
752.8965986304011 10121.23605947437
753.8634594991636 9968.2464074034
754.8300772453586 10063.63803950825
755.7964519425768 9979.098902443206
756.762583664371 10024.297202844704
757.7284724842611 9980.923119647832
758.6941184757416 9919.685675711835
759.6595217122667 9818.938411253106
760.6246822672638 9840.768399666911
761.5896002141235 9682.08748448855
762.5542756262093 9766.369005550847
763.5187085768503 9806.288785416156
764.4828991393406 9691.580994306163
765.4468473869474 9699.566917846529
766.4105533929032 9688.806183674877
767.3740172304078 9616.832301297978
768.3372389726283 9672.361353710545
769.3002186926988 9612.434169558286
770.2629564637282 9571.907257836105
771.2254523587872 9534.510205421415
772.1877064509154 9586.775598071294
773.1497188131179 9413.185939865509
774.1114895183728 9432.875476109562
775.0730186396268 9397.220043221245
776.0343062497905 9378.27903889649
776.9953524217381 9319.904001624524
777.9561572283274 9401.818735809737
778.9167207423689 9345.236202637361
779.8770430366476 9292.030626473823
780.8371241839159 9262.449322398446
781.7969642568951 9259.098302411976
782.7565633282757 9390.305876936607
783.7159214707099 9258.598431936281
784.6750387568281 9235.39207457028
785.6339152592227 9274.585045062096
786.5925510504512 9216.624244724318
787.5509462030477 9288.346184807295
788.5091007895098 9196.797773510818
789.4670148823006 9291.29810794131
790.4246885538596 9154.15690947932
791.3821218765861 9179.425691748589
792.3393149228505 9108.508423729463
793.2962677649975 9166.464448573748
794.2529804753303 9184.780518101315
795.20945312613 9183.832207418325
796.1656857896378 9117.13679272508
797.1216785380675 9142.365775481569
798.0774314435985 9215.917243837115
799.0329445783846 9270.159268101223
799.9882180145414 9189.179612464615
800.9432518241574 9169.19655913695
801.89804607929 9250.032790886667
802.852600851962 9312.715554032866
803.8069162141637 9171.780511500388
804.760992237856 9386.463078321796
805.714828994971 9381.50370060379
806.6684265574077 9442.397177188086
807.6217849970271 9350.274293389633
808.574904385674 9242.803877527153
809.527784795142 9329.509628637303
810.4804262972102 9444.296045513098
811.4328289636178 9226.222520077401
812.3849928660748 9148.673262821378
813.3369180762638 9139.392543331658
814.2886046658241 9231.013000569463
815.2400527063783 9046.936195708018
816.1912622695108 9035.601311113067
817.1422334267718 9095.53266979307
818.0929662496856 8987.25450613472
819.0434608097457 8869.881116128185
819.9937171784059 8899.949684127363
820.9437354271013 8816.330626545105
821.8935156272255 8930.024074776498
822.8430578501484 8798.715025861096
823.7923621672016 8741.826843831728
824.7414286496896 8760.224346490822
825.6902573688876 8850.546777533697
826.6388483960363 8793.244851106234
827.5872018023492 8694.991400665052
828.5353176590033 8806.111154908971
829.4831960371503 8621.7621484282
830.4308370079016 8670.218782150949
831.3782406423525 8618.093525683216
832.3254070115545 8722.120038779698
833.2723361865319 8632.374026788526
834.2190282382799 8476.098356491299
835.1654832377644 8646.300770917906
836.1117012559116 8483.341973255721
837.0576823636256 8679.411807268265
838.003426631778 8501.250789777718
838.9489341312074 8455.235048076778
839.8942049327197 8585.610525066624
840.8392391070975 8583.39008971856
841.7840367250865 8448.994302612058
842.7285978573982 8493.271207748516
843.672922574724 8592.793732200229
844.6170109477152 8484.92020090726
845.560863046996 8523.092712479205
846.5044789431595 8503.849955443588
847.4478587067697 8475.66946325767
848.3910024083561 8624.275253012875
849.333910118421 8440.362755515614
850.2765819074339 8431.93853081085
851.2190178458332 8512.699431570602
852.161218004032 8535.305410464509
853.1031824524016 8502.385760184838
854.0449112612987 8449.408313715334
854.9864045010327 8571.97133139922
855.9276622418947 8442.4893587319
856.8686845541379 8467.568869354564
857.8094715079915 8473.160538382692
858.7500231736467 8532.6562241565
859.690339621271 8427.864489074822
860.6304209209939 8473.34737161034
861.5702671429244 8280.29933377233
862.5098783571284 8495.08815864586
863.4492546336569 8443.227581057892
864.3883960425155 8367.397661224657
865.3273026536863 8476.632084450222
866.2659745371238 8326.57512814142
867.2044117627465 8485.618892884699
868.1426144004472 8374.543874457502
869.0805825200823 8479.375043842043
870.0183161914847 8421.553135913993
870.9558154844526 8522.528961188764
871.8930804687552 8585.944277576149
872.8301112141307 8378.185800412326
873.7669077902865 8488.88965810336
874.7034702669062 8610.927017390377
875.6397987136315 8511.22110669018
876.5758932000863 8513.53726137477
877.5117537958522 8581.659551756082
878.4473805704911 8472.125666685071
879.3827735935283 8550.86169008781
880.3179329344603 8599.021504431106
881.2528586627541 8613.327032088744
882.1875508478479 8637.135673400804
883.1220095591489 8458.02530384576
884.0562348660296 8543.565340223997
884.9902268378391 8552.154574646844
885.9239855438955 8465.47657693191
886.8575110534839 8418.765495576987
887.7908034358588 8443.449000310753
888.7238627602474 8474.565118112318
889.6566890958475 8485.264474057973
890.5892825118208 8282.165870003933
891.5216430773125 8362.79953567912
892.4537708614189 8377.504233886026
893.3856659332196 8331.488909219575
894.3173283617652 8174.18730443175
895.2487582160684 8358.977096268967
896.179955565116 8184.69463325814
897.110920477864 8220.094220840818
898.0416530232451 8176.564900652437
898.9721532701478 8086.826323194126
899.9024212874428 8199.028075918877
900.8324571439662 8146.183055903949
901.7622609085302 8071.225303307669
902.6918326499072 8036.26381867031
903.6211724368477 8086.6067235732235
904.5502803380696 8236.045331240386
905.4791564222614 8220.801024122795
906.4078007580792 8094.505785015795
907.3362134141571 8035.8431928161635
908.2643944590909 8158.78762654405
909.1923439614493 8029.706977907279
910.1200619897754 8050.981216820325
911.0475486125779 8176.10054536417
911.9748038983344 8135.251673420246
912.9018279155007 8067.346054079838
913.8286207324982 7982.649759132748
914.7551824177117 8100.158546705154
915.6815130395116 8010.466366044251
916.6076126662283 7922.1991402714
917.533481366163 8043.827542968005
918.4591192075914 8018.2652949615895
919.3845262587565 8067.400387639183
920.3097025878706 7920.871893359583
921.2346482631237 7907.132439635457
922.1593633526682 7988.836246244253
923.0838479246304 8028.9994550104775
924.0081020471061 8116.940981106231
924.9321257881656 7868.273980647372
925.8559192158464 7843.461075916847
926.7794823981512 7806.90406187114
927.7028154030686 7847.279316101487
928.6259182985414 7774.281738751927
929.5487911524906 7984.658208411175
930.4714340328119 7957.748696327915
931.3938470073608 7643.356072338678
932.3160301439748 7783.018551881697
933.2379835104548 7782.029009172205
934.1597071745709 7842.450927020283
935.0812012040769 7694.005882016803
936.002465666681 7892.653684052597
936.9235006300696 7875.805488414667
937.8443061619055 7820.89116520983
938.7648823298077 7664.069945119957
939.6852292013809 7739.476926485101
940.6053468441951 7810.252467108391
941.5252353257874 7686.034227808636
942.4448947136698 7729.699294262811
943.364325075323 7737.542244129928
944.2835264782043 7795.983321110207
945.2024989897309 7685.118730603657
946.1212426773054 7714.466172561408
947.0397576082851 7806.535547580455
947.9580438500125 7908.339980183164
948.8761014697939 7852.9543618463085
949.7939305349064 7797.0092552938495
950.7115311125999 7725.440771224132
951.6289032700952 7789.601854276376
952.5460470745875 7900.092801018104
953.4629625932339 7719.543950166575
954.3796498931715 7824.6449685201205
955.2961090415029 7778.212721220245
956.2123401053068 7842.4386426010215
957.1283431516276 7831.76172229387
958.0441182474842 7731.806604518868
958.9596654598663 7890.5015567201
959.8749848557309 7786.419468917006
960.7900765020167 7681.961747280102
961.7049404656209 7725.01782251447
962.6195768134185 7764.008967777622
963.5339856122537 7765.324586152308
964.4481669289453 7787.492035499379
965.3621208302793 7683.688833806844
966.2758473830145 7577.909969088987
967.1893466538822 7795.684750334028
968.1026187095813 7577.163516278497
969.0156636167867 7635.812474156519
969.9284814421426 7677.286741207825
970.8410722522622 7591.866324168774
971.753436113735 7537.373531387057
972.6655730931161 7542.478230293015
973.5774832569368 7587.044412768194
974.4891666716958 7485.393121339695
975.4006234038698 7487.842182060155
976.3118535198955 7407.1216436882505
977.2228570861935 7588.52697624458
978.1336341691494 7558.661068587219
979.0441848351202 7388.580011019441
979.9545091504333 7602.736538533715
980.864607181391 7510.794211489241
981.7744789942699 7474.954616839574
982.6841246553086 7424.697730174931
983.5935442307236 7495.7857583527775
984.5027377867027 7497.291556049105
985.4117053894024 7485.085400600515
986.3204471049557 7390.026663101564
987.2289629994648 7474.176107279313
988.1372531390007 7535.62516054732
989.0453175896091 7458.037200481775
989.9531564173067 7555.307103567917
990.860769688079 7398.343762141585
991.7681574678918 7453.634923905913
992.6753198226706 7480.472745858782
993.582256818323 7415.519343927512
994.4889685207218 7428.728275867914
995.3954549957143 7574.010381006563
996.301716309119 7559.260550571869
997.2077525267232 7539.084169184842
998.1135637142943 7459.559490109508
999.0191499375615 7617.350634374023
999.924511262232 7598.462465922149
1000.8296477539861 7518.396252096187
1001.7345594784656 7437.220801387613
1002.6392465012996 7490.884240129623
1003.5437088880753 7543.433674477512
1004.4479467043584 7518.381513178965
1005.3519600156869 7336.6764438540395
1006.2557488875718 7527.547396854163
1007.1593133854858 7421.681651987996
1008.0626535748888 7348.671039179919
1008.9657695212009 7285.498842417616
1009.8686612898182 7438.421516036074
1010.7713289461135 7456.791061927407
1011.6737725554212 7396.655350716935
1012.5759921830577 7393.877542059759
1013.4779878943027 7355.903807319561
1014.379759754418 7384.9187889479
1015.2813078286254 7238.2335252876055
1016.18263218213 7189.074539993651
1017.0837328801026 7323.481495176185
1017.9846099876886 7258.307751755773
1018.8852635700023 7180.540690135919
1019.7856936921362 7120.947231682905
1020.6859004191447 7260.602362165444
1021.5858838160675 7149.35879213012
1022.4856439479063 7131.785769395147
1023.3851808796389 7093.695955422421
1024.2844946762143 7277.670989349269
1025.183585402554 7222.987862546429
1026.082453123554 7043.310280516822
1026.9810979040776 7181.67998396288
1027.8795198089647 7085.240430926698
1028.777718903024 7100.922378283025
1029.6756952510368 7036.806947762445
1030.5734489177648 7042.276422263496
1031.4709799679313 7095.542758251635
1032.3682884662358 7260.411892061178
1033.2653744773506 6980.145431570005
1034.1622380659192 7017.370233713669
1035.058879296559 7144.949613609819
1035.9552982338591 7239.561869000479
1036.8514949423825 7088.322520135285
1037.7474694866614 7161.972080184192
1038.6432219312028 7177.318999020061
1039.5387523404825 7404.315468539224
1040.4340607789582 7248.745523357817
1041.3291473110476 7353.813321668034
1042.2240120011465 7422.075433890333
1043.1186549136273 7544.548756161731
1044.0130761128294 7511.5921470494195
1044.9072756630649 7517.76781803109
1045.8012536286205 7667.777919410028
1046.6950100737577 7744.413256273832
1047.588545062701 7813.982206782384
1048.481858659663 7715.653251181165
1049.3749509288118 7840.110456119799
1050.2678219343034 7787.189777503486
1051.1604717402515 7758.97448645736
1052.0529004107575 7732.874327515722
1052.9451080098825 7754.153696319308
1053.8370946016694 7705.796920575102
1054.7288602501267 7661.046636465148
1055.6204050192446 7628.318811633517
1056.511728972977 7600.673720576172
1057.402832175254 7575.726485310559
1058.2937146899785 7416.602253791102
1059.1843765810263 7352.941344059674
1060.0748179122456 7398.118600225799
1060.9650387474576 7240.750396177507
1061.855039150456 7302.940134981235
1062.7448191850071 7246.410523521605
1063.6343789148505 7207.521506548129
1064.5237184037014 7305.789542825866
1065.412837715241 7123.574749406189
1066.3017369131267 7187.880453869092
1067.190416060992 7104.953215811028
1068.0788752224398 7033.952288200727
1068.9671144610438 6985.088414143783
1069.8551338403558 7106.66543866417
1070.7429334239023 7049.614143405738
1071.6305132751695 7063.753620554338
1072.517873457633 7035.601140501349
1073.4050140347335 7009.752482304367
1074.2919350698776 7006.782039186745
1075.1786366264623 7012.267917520078
1076.0651187678395 7028.489706383439
1076.95138155735 6902.599827087152
1077.8374250582929 6979.814040043023
1078.7232493339507 7042.495435382554
1079.608854447577 6960.974580720527
1080.4942404623907 6952.473162967499
1081.3794074415982 7023.811089307574
1082.2643554483657 7083.008012028778
1083.149084545841 6931.232629030468
1084.033594797138 6943.527625927236
1084.9178862653516 7001.285057911012
1085.8019590135427 7139.745352471262
1086.6858131047484 6945.375948007354
1087.5694486019802 7170.475431722343
1088.4528655682225 7052.88716126402
1089.3360640664287 7193.698084956796
1090.2190441595321 7094.543836192065
1091.1018059104317 7076.910067914561
1091.98434938201 7197.665396370362
1092.866674637111 7190.658883614973
1093.748781738559 7132.509687402597
1094.6306707491512 7059.911530821742
1095.5123417316554 7194.6131723936605
1096.3937947488157 7090.286433228287
1097.2750298633455 7098.112045101887
1098.156047137938 7020.250277529412
1099.0368466352556 7091.2126058597905
1099.9174284179317 7139.762675151486
1100.7977925485757 6841.116876453602
1101.6779390897755 6898.296145714354
1102.5578681040806 6928.597401368305
1103.4375796540226 6952.534368303777
1104.3170738021054 6825.32644138817
1105.1963506108077 6675.770667913201
1106.0754101425773 6694.80229294327
1106.9542524598382 6762.610497866345
1107.8328776249855 6744.824707724959
1108.7112857003904 6632.772964647791
1109.5894767483987 6634.863657551221
1110.4674508313292 6705.698818160488
1111.3452080114657 6570.455772501948
1112.2227483510815 6667.41234069943
1113.1000719124077 6626.922767955167
1113.9771787576592 6721.353735474365
1114.854068949022 6646.473226114656
1115.7307425486542 6681.202105091655
1116.6071996186893 6692.2039613991265
1117.483440221229 6908.549343589933
1118.3594644183577 6701.357557329316
1119.235272272128 6611.588262722934
1120.1108638445658 6803.433913148021
1120.9862391976712 6886.92321449493
1121.8613983934229 6826.898501818034
1122.7363414937627 6877.484197566247
1123.6110685606182 6804.868328869385
1124.485579655884 7032.738040061922
1125.359874841426 6914.917745795644
1126.2339541790916 6876.99900561799
1127.1078177306936 7003.589494907095
1127.9814655580267 6988.406515774732
1128.854897722851 7042.4917845831105
1129.7281142869106 6945.771686291783
1130.6011153119125 6996.443512295989
1131.473900859548 7193.294360036982
1132.3464709914697 6931.469188385932
1133.2188257693178 6930.75886441099
1134.0909652546961 6843.824725608918
1134.96288950919 6875.882697097184
1135.8345985943506 6922.374813411991
1136.7060925717087 6812.254298182163
1137.57737150277 6907.4993627323
1138.4484354490069 6898.915890587949
1139.3192844718778 6710.250549960702
1140.1899186327992 6631.687916484244
1141.060337993178 6785.137997856989
1141.930542614382 6720.57449886267
1142.8005325577597 6621.848873273755
1143.670307884635 6557.11730252598
1144.5398686563003 6662.553597897473
1145.409214934025 6578.699815403868
1146.2783467790541 6362.568499372626
1147.1472642526023 6464.32025394072
1148.0159674158622 6534.739943308862
1148.8844563300026 6385.737883242616
1149.7527310561618 6400.09871812301
1150.6207916554504 6332.830992998908
1151.4886381889592 6211.246434158157
1152.3562707177498 6414.517095871737
1153.2236893028585 6345.8538987143165
1154.090894005296 6296.276370293939
1154.9578848860474 6318.567873489468
1155.8246620060709 6322.01951637841
1156.6912254262988 6171.122771743601
1157.5575752076438 6212.274470475785
1158.42371141098 6362.0736560394525
1159.2896340971656 6339.369795064924
1160.1553433270346 6255.580146420167
1161.0208391613887 6290.498062218549
1161.8861216610057 6202.145089382996
1162.75119088664 6341.604757632292
1163.6160468990201 6262.909613860357
1164.4806897588442 6168.153083869823
1165.3451195267917 6324.764173492161
1166.2093362635114 6249.56142973626
1167.0733400296285 6217.979922414669
1167.9371308857444 6191.805844772558
1168.8007088924278 6093.588954232925
1169.6640741102328 6222.014778135608
1170.5272265996773 6050.7036532668535
1171.390166421259 6006.816983249663
1172.252893635452 6193.846870882053
1173.1154083026995 6334.192746515929
1173.977710483421 6212.84316814905
1174.8398002380145 6122.347026615489
1175.7016776268483 6167.507551468176
1176.563342710264 6179.759588857253
1177.4247955485826 6083.854969544014
1178.2860362020947 6183.940798425742
1179.147064731069 6044.274805901098
1180.0078811957483 6153.247782883495
1180.8684856563486 6121.546481226325
1181.7288781730604 6180.1625640806915
1182.589058806052 6211.699177892143
1183.4490276154593 6355.410657668555
1184.3087846614017 6074.850171286284
1185.1683300039676 6179.881634829457
1186.027663703222 6286.430760720235
1186.8867858192025 6286.65835619451
1187.7456964119228 6270.472149450327
1188.6043955413716 6269.738023604751
1189.4628832675116 6273.410855370317
1190.3211596502842 6359.705422458161
1191.179224749596 6312.12100563465
1192.0370786253388 6209.696489679166
1192.8947213373758 6391.339763435516
1193.7521529455407 6522.197967351927
1194.6093735096438 6254.74453029012
1195.466383089477 6330.637929112507
1196.3231817447977 6320.4619359765
1197.1797695353398 6589.511324024863
1198.0361465208189 6254.720609531394
1198.8923127609214 6254.107788027399
1199.7482683153048 6400.707093398594
1200.6040132436028 6527.806092235944
1201.459547605431 6338.434781974919
1202.3148714603722 6410.045753070334
1203.1699848679855 6331.522645080642
1204.0248878878065 6437.741503632889
1204.8795805793507 6245.60629671451
1205.7340630020935 6312.795313833323
1206.5883352155033 6338.959023170732
1207.4423972790064 6300.631785306706
1208.2962492520237 6109.657108503618
1209.1498911939307 6144.723548253048
1210.0033231640937 6232.469461609908
1210.8565452218427 6297.0612551659515
1211.7095574264913 5934.559920467669
1212.5623598373222 6018.480756147938
1213.4149525135963 6025.967182829876
1214.2673355145507 6124.267674646671
1215.1195088993936 5924.469242693693
1215.9714727273113 5984.401854625774
1216.8232270574663 6091.9123991934675
1217.6747719489904 5835.883538463784
1218.5261074609934 5811.889510026598
1219.3772336525653 5964.671785588052
1220.2281505827668 5936.03475737549
1221.0788583106296 6033.920440481758
1221.9293568951707 5774.003136181552
1222.7796463953746 5756.913020688848
1223.629726870202 5903.63968227966
1224.4795983785934 5904.782257637668
1225.3292609794553 5790.839385687241
1226.1787147316809 5776.657419573964
1227.0279596941327 5910.061389653773
1227.8769959256424 5931.263451407701
1228.7258234850306 5904.168052100938
1229.5744424310833 5732.259725343121
1230.422852822563 5891.853723496131
1231.2710547182105 5957.66003660491
1232.119048176739 5739.419846178348
1232.9668332568417 5718.876464382561
1233.8144100171812 5826.144788271831
1234.6617785163999 5920.915569877095
1235.508938813111 5643.450525270286
1236.3558909659114 5666.202817001684
1237.2026350333617 5850.06814816563
1238.049171074008 5872.490557641783
1238.8954991463652 5776.789820940897
1239.741619308932 5734.255580830033
1240.587531620169 5777.3256343896755
1241.4332361385277 5818.990036670924
1242.2787329224248 5652.250230846123
1243.1240220302534 5675.427127229933
1243.9691035203869 5654.027565411099
1244.813977451171 5925.810587616308
1245.6586438809263 5685.8560833472875
1246.5031028679496 5604.217897404948
1247.3473544705157 5746.730379817989
1248.1913987468706 5789.847513660576
1249.0352357552383 5598.391646957973
1249.8788655538228 5778.35158437121
1250.7222882007918 5784.721824334406
1251.565503754302 5841.99222504526
1252.4085122724755 5632.988136301398
1253.2513138134182 5817.928691989732
1254.0939084352049 5792.180105281158
1254.9362961958905 5801.743275986609
1255.7784771535007 5824.029038011547
1256.6204513660432 5864.019624309034
1257.4622188915 5996.243472846845
1258.3037797878242 5808.512899125189
1259.1451341129468 5796.8073914866445
1259.9862819247755 5854.779859043107
1260.8272232811978 5832.230718288789
1261.6679582400666 6060.592293014021
1262.5084868592203 5784.574154311297
1263.34880919647 5667.174876537194
1264.1889253095997 5784.312107940651
1265.0288352563712 5920.758080160046
1265.8685390945266 5755.627104332543
1266.7080368817751 5928.774755678832
1267.5473286758115 5954.931014282012
1268.386414534294 5857.942911322085
1269.2252945148703 5736.815661334753
1270.0639686751547 5800.549701797056
1270.9024370727402 5816.7364123736525
1271.7406997651997 5748.32366175261
1272.5787568100714 5661.653518597484
1273.4166082648808 5722.343188619024
1274.2542541871244 5819.670580501053
1275.091694634275 5921.82822050476
1275.9289296637817 5624.952898061098
1276.7659593330663 5909.40936162251
1277.6027836995308 5780.281659367915
1278.4394028205552 5860.1154900751735
1279.2758167534867 5747.574817163804
1280.112025555658 5796.6169139046115
1280.9480292843746 5797.1365922780515
1281.7838279969128 5612.050251617386
1282.6194217505326 5712.003980770486
1283.4548106024686 5634.03420419396
1284.289994609926 5634.37224639887
1285.1249738300921 5875.61997073708
1285.959748320127 5688.461291059144
1286.7943181371702 5749.186375035402
1287.6286833383328 5754.860222600547
1288.4628439807038 5788.480185821512
1289.2968001213521 5674.689691376064
1290.1305518173194 5716.07827079728
1290.9640991256183 5902.765054232494
1291.7974421032523 5701.055060955989
1292.630580807183 5676.915080314671
1293.463515294361 5850.555390256636
1294.29624562171 6006.734182118736
1295.12877184613 5730.171775884785
1295.961094024493 5840.594448349992
1296.79321221365 5847.940497144116
1297.6251264704333 5892.391835721629
1298.4568368516466 6060.664677552257
1299.2883434140658 5920.601073248898
1300.1196462144526 5841.789841714967
1300.9507453095375 6078.5804996790175
1301.7816407560313 6032.156643187651
1302.6123326106172 6069.229204194006
1303.4428209299622 5958.541908595746
1304.2731057707024 6201.414807926651
1305.1031871894502 6018.774636119413
1305.933065242798 6041.90323107566
1306.7627399873181 6015.508619133211
1307.5922114795467 6319.050150505862
1308.4214797760123 6473.331472679434
1309.2505449332057 6125.694078200212
1310.0794070076026 6169.432037934041
1310.9080660556538 6314.942651084171
1311.736522133786 6386.673674988892
1312.5647752983987 6126.625571463441
1313.3928256058734 5992.816722569257
1314.2206731125661 6292.62375916101
1315.048317874809 6307.725399432891
1315.8757599489109 6253.3098333797525
1316.7029993911547 6314.34638051133
1317.5300362578055 6398.743567119097
1318.356870605101 6181.241902541124
1319.183502489257 6217.811876922474
1320.0099319664623 6389.146294127999
1320.836159092889 6403.961603604506
1321.66218392468 6394.660580145007
1322.4880065179532 6199.898267928818
1323.3136269288134 6341.566752682865
1324.1390452133292 6467.887300514782
1324.9642614275563 6471.9419153633235
1325.7892756275214 6298.821426436857
1326.6140878692295 6164.022877221588
1327.4386982086617 6635.274025780457
1328.2631067017755 6281.10320987459
1329.0873134045069 6312.810152487082
1329.911318372764 6188.784110593149
1330.735121662441 6169.662552849289
1331.558723329399 6079.060422120025
1332.3821234294774 5954.290982873954
1333.2053220185007 6008.146579544331
1334.0283191522612 6034.813404367113
1334.851114886529 6017.9026211955415
1335.6737092770582 5874.194983907239
1336.4961023795695 5805.45999133129
1337.3182942497697 5764.575726342939
1338.1402849433325 5861.7101480081765
1338.962074515921 5648.622264363319
1339.7836630231632 5606.451148314978
1340.6050505206676 5971.251422031819
1341.426237064028 5800.379643054151
1342.2472227088037 5596.2037619907005
1343.0680075105338 5538.529778023325
1343.888591524741 5559.909313676022
1344.7089748069138 5604.087824329615
1345.5291574125276 5555.054262098253
1346.3491393970307 5457.185571450196
1347.168920815846 5558.427470921948
1347.9885017243778 5584.471260866207
1348.8078821780036 5403.630503613169
1349.6270622320844 5446.096391023586
1350.4460419419447 5429.218849005043
1351.2648213629054 5506.543116678913
1352.0834005502438 5355.656686764665
1352.90177955923 5329.274173366287
1353.7199584451064 5482.509364800792
1354.5379372630887 5378.030299102178
1355.355716068374 5293.418085227471
1356.1732949161305 5249.140306051399
1356.9906738615155 5390.8801974198295
1357.8078529596478 5298.747438527607
1358.6248322656375 5476.303407547973
1359.441611834567 5221.6047228396255
1360.2581917214866 5326.092181784441
1361.0745719814367 5290.331104185799
1361.890752669433 5265.025005286256
1362.7067338404577 5197.404114498228
1363.5225155494845 5345.375946093939
1364.3380978514506 5464.406630119536
1365.1534808012839 5154.173985166782
1365.9686644538815 5070.792953111105
1366.783648864117 5409.768412891674
1367.5984340868417 5342.609185138428
1368.413020176893 5212.58231699803
1369.2274071890715 5128.877796288731
1370.0415951781652 5320.550491729856
1370.8555841989346 5358.09257887206
1371.6693743061223 5094.403222152297
1372.48296555444 5057.476960129061
1373.2963579985844 5252.577688628828
1374.1095516932255 5302.922589276257
1374.9225466930166 5021.185232561982
1375.7353430525782 5250.718255061926
1376.5479408265164 5158.200372266022
1377.36034006941 5204.472276277054
1378.1725408358216 5230.000953164226
1378.9845431802805 5017.651430392494
1379.796347157304 5441.685280717779
1380.6079528213813 5189.59277797427
1381.4193602269788 5052.347800193805
1382.230569428546 5005.499062272968
1383.0415804805016 5217.606245681922
1383.852393437246 5191.164622947341
1384.6630083531563 5150.739700073067
1385.4734252825892 5008.156451466619
1386.2836442798798 5105.087535589448
1387.0936653993322 5128.357905829904
1387.9034886952395 5040.171386857943
1388.713114221864 5223.65453065683
1389.5225420334482 5108.284572431642
1390.331772184214 5111.2625639296875
1391.1408047283585 5068.879260767321
1391.9496397200564 5133.706727974798
1392.758277213461 5149.953239111582
1393.5667172627054 5372.886773793615
1394.3749599218918 5059.078629240228
1395.1830052451114 5092.322862726263
1395.9908532864265 5166.595331734609
1396.7985040998774 5273.847048995759
1397.6059577394808 5049.094749709629
1398.4132142592352 5095.817473097886
1399.2202737131156 5098.306375484655
1400.027136155073 5221.771400801646
1400.8338016390353 4978.938689473078
1401.6402702189134 5019.786697480947
1402.446541948586 5105.15430352611
1403.2526168819204 5025.630120936683
1404.058495072757 5020.901642516521
1404.8641765749107 4995.840092428862
1405.6696614421799 5058.561797681346
1406.4749497283356 5421.689343184244
1407.280041487129 4949.725421996714
1408.084936772295 4850.168063396053
1408.8896356375335 5121.933225376132
1409.6941381365323 5110.749507268256
1410.498444322955 4907.912523469165
1411.3025542504402 4890.016205245251
1412.106467972606 5020.314528291399
1412.9101855430508 5075.76404323729
1413.7137070153458 4778.532483666175
1414.5170324430437 4960.498669910763
1415.320161879672 4970.369217133137
1416.1230953787435 5184.640483530014
1416.925832993742 4833.530214645145
1417.7283747781275 4846.633775211585
1418.5307207853439 5056.950827273116
1419.3328710688093 5059.557482150243
1420.134825681922 4795.920622501574
1420.9365846780584 4859.5385963346125
1421.7381481105713 5053.896279862155
1422.539516032788 5002.958527733093
1423.3406884980232 4828.755164597771
1424.1416655595604 4888.065853010511
1424.942447270665 4945.340352144299
1425.7430336845828 5107.007783579937
1426.5434248545298 4860.778944544858
1427.3436208337116 5059.94932289568
1428.143621675301 4958.979788470694
1428.9434274324558 5276.160130766306
1429.7430381583108 4937.408305911433
1430.5424539059713 5057.686986760362
1431.3416747285337 5358.094214547341
1432.1407006790632 5126.492573033898
1432.9395318106053 5026.72317809754
1433.7381681761835 4989.825411479103
1434.5366098288014 5202.143139973102
1435.3348568214424 5280.8500774692275
1436.1329092070573 5034.983803371332
1436.9307670385879 5119.630200137673
1437.7284303689503 5201.568784935849
1438.5258992510335 5406.207355066466
1439.3231737377118 5139.1509817936
1440.1202538818306 5141.078655520559
1440.9171397362225 5140.952515753951
1441.7138313536925 5179.149665378689
1442.5103287870243 4973.529058754636
1443.3066320889775 5071.668815469612
1444.1027413122956 5142.519023862911
1444.8986565096966 5208.219672409507
1445.694377733882 4976.631553994916
1446.4899050375207 4884.7548932531845
1447.2852384732687 5011.035600890473
1448.0803780937622 5045.403267842754
1448.8753239516063 4851.986191122093
1449.6700760993954 4785.750891228598
1450.464634589689 4887.360034176318
1451.2589994750397 5148.022632907033
1452.0531708079689 4730.962083928565
1452.8471486409799 4784.031661529059
1453.6409330265524 4978.001673457005
1454.4345240171442 4856.719937175997
1455.2279216651987 4741.6070980915865
1456.0211260231263 4720.091416116369
1456.8141371433194 5127.081951384753
1457.6069550781594 4825.4753167342415
1458.3995798799897 4661.500775028749
1459.1920116011424 4671.4151734529305
1459.98425029393 4677.8555475639805
1460.7762960106338 4669.719304911499
1461.5681488035225 4746.99157705708
1462.3598087248392 4672.931535251068
1463.1512758268036 4898.633338141467
1463.942550161617 4653.0645944075195
1464.7336317814625 4617.096417202281
1465.524520738496 4619.0156980869415
1466.3152170848552 4573.056679413975
1467.1057208726506 4604.154786443558
1467.8960321539817 4560.951602154755
1468.6861509809169 4467.2107362813695
1469.4760774055085 4442.81521722479
1470.265811479785 4511.872978806659
1471.055353255755 4382.708682841907
1471.844702785409 4338.320832221628
1472.6338601207044 4428.2097723300885
1473.4228253135934 4547.6548051709115
1474.2115984159936 4398.569261643573
1475.0001794798063 4169.7215815952695
1475.7885685569145 4350.614933234615
1476.576765699172 4358.424963372566
1477.3647709584238 4320.999575456706
1478.1525843864802 4376.543756273662
1478.9402060351367 4444.371665049215
1479.7276359561693 4378.12238817437
1480.514874201328 4239.539602020444
1481.3019208223468 4110.0442903473395
1482.0887758709323 4136.29396350971
1482.8754393987747 4420.84214140965
1483.6619114575406 4147.416846710589
1484.4481920988783 4176.771898438315
1485.2342813744108 4283.2511945367205
1486.0201793357446 4407.752127312962
1486.8058860344572 4090.344202952635
1487.591401522117 4183.096879878724
1488.3767258502594 4223.826942644087
1489.1618590704056 4321.079674384613
1489.9468012340494 4011.389696363896
1490.7315523926754 4216.268859919254
1491.5161125977356 4302.343502030075
1492.3004819006637 4349.734605905888
1493.084660352877 4073.5469759118146
1493.8686480057622 4221.4511091096365
1494.6524449106964 4311.611816275968
1495.4360511190262 4419.749893209859
1496.219466682087 4206.702608123608
1497.0026916511779 4171.477216535035
1497.7857260775945 4254.597457032506
1498.5685700125996 4258.831098054608
1499.3512235074395 4039.8035325536002
1500.133686613337 4070.9168049168693
1500.9159593814966 4171.067102564114
1501.698041863101 4416.591215013019
1502.4799341093094 4195.157659260838
1503.2616361712662 3949.0008926541145
1504.043148100087 4187.755021595729
1504.8244699468742 4215.4073544005505
1505.6056017626997 3982.065529394718
1506.3865435986281 4048.642592095823
1507.1672955056893 4254.894065543328
1507.9478575348967 4008.7192690695933
1508.7282297372512 4232.381452344943
1509.5084121637192 4099.308950848273
1510.2884048652577 4197.138994027248
1511.0682078927948 3950.371139905122
1511.8478212972423 4035.2763418534037
1512.6272451294917 4088.867500466152
1513.4064794404076 4139.048848265319
1514.1855242808433 4125.118752033083
1514.9643797016215 4049.54740486661
1515.743045753552 4214.716526656239
1516.5215224874191 4170.182216093055
1517.2998099539836 3976.6623738984053
1518.077908203999 4101.777054652512
1518.8558172881785 4032.3301438059775
1519.633537257234 4258.239722643213
1520.4110681618404 4178.34940764861
1521.1884100526604 4184.628958897322
1521.9655629803365 4060.8056540094303
1522.7425269954856 4313.60622232877
1523.5193021487103 4438.802792777079
1524.2958884905856 4031.0947111318083
1525.0722860716687 4133.414443673554
1525.848494942502 4068.926413257669
1526.624515153595 4202.592986660324
1527.4003467554485 4107.22374460512
1528.175989798534 4321.581171338118
1528.9514443333064 4202.716354558726
1529.726710410203 4371.780350263629
1530.5017880796331 4095.594180975838
1531.276677391992 4060.0148755383525
1532.0513783976457 4369.76788914707
1532.825891146953 4299.559690232782
1533.6002156902414 4218.062786583654
1534.3743520778207 4178.451637493826
1535.1483003599806 4254.440040433454
1535.9220605869923 4211.220262909435
1536.6956328091019 4230.040065045223
1537.4690170765407 4120.272678302537
1538.242213439511 4266.652958329696
1539.015221948208 4172.079256469677
1539.78804265279 4174.335147570615
1540.560675603405 4032.390331869068
1541.3331208501804 4362.828343362069
1542.1053784432224 4345.552090209327
1542.8774484326168 4252.639676057288
1543.649330868422 4162.54898975051
1544.4210258006842 4175.207623761198
1545.1925332794308 4143.047046785913
1545.9638533546604 4156.6751471897205
1546.7349860763552 4084.9845407258363
1547.5059314944829 4395.147957093348
1548.27668965898 4185.6987719705085
1549.0472606197673 4120.7789415946845
1549.817644426752 3969.7926299777196
1550.5878411298072 4169.562507435777
1551.3578507787988 4169.695714948154
1552.1276734235635 3886.623038107925
1552.8973091139233 4149.074825189329
1553.6667578996767 4197.681041450587
1554.436019830604 4063.3736412096323
1555.20509495646 3995.6774700968344
1555.9739833269869 4006.696664812351
1556.7426849919011 4030.768191365672
1557.511200000903 4238.15945831546
1558.2795284036674 4080.0410738752994
1559.0476702498509 3944.375616831004
1559.8156255890954 4269.006661370788
1560.5833944710157 4344.765042071866
1561.3509769452048 4006.175094128624
1562.1183730612447 4100.292061834646
1562.8855828686865 3992.6196476484074
1563.6526064170703 4321.284160923229
1564.4194437559127 4237.144798650641
1565.1860949347047 4027.881183786267
1565.9525600029283 4246.208312658276
1566.7188390100328 4436.755107799808
1567.4849320054564 4074.3838648876167
1568.250839038612 4167.919802942382
1569.0165601588997 4154.899036621274
1569.7820954156887 4240.4342572204805
1570.5474448583373 4063.1541673733627
1571.31260853618 4019.1679587285025
1572.0775864985299 3978.937237675568
1572.8423787946813 4180.102241638185
1573.6069854739108 4068.0352210357646
1574.371406585471 4138.569639503987
1575.1356421785986 4218.671906656053
1575.899692302506 4071.333777960311
1576.6635570063845 4140.150140810263
1577.4272363394157 4095.51465555154
1578.190730350747 4098.350221295894
1578.9540390895163 4217.490171112198
1579.7171626048384 3965.519555311861
1580.480100945806 4017.267929823282
1581.2428541614918 4096.051952843847
1582.0054223009538 4214.892836109754
1582.767805413223 4162.331738878519
1583.5300035473156 4098.112343850626
1584.292016752228 4248.577346324228
1585.0538450769309 4207.961699333151
1585.8154885703807 3995.044789056506
1586.5769472815136 3918.779670458651
1587.3382212592405 4109.251899189248
1588.099310552463 4212.822251344767
1588.8602152100484 4331.035928933174
1589.6209352808564 4105.330947644388
1590.3814708137234 3996.332632051839
1591.14182185746 4325.765636071703
1591.9019884608679 3928.53624094126
1592.6619706727215 3769.0972857850925
1593.4217685417734 4050.8293384379967
1594.1813821167616 4121.9140231688025
1594.9408114464022 3920.615379485998
1595.7000565793933 3975.812130162849
1596.459117564409 4011.271819106725
1597.2179944501113 3944.3838447407334
1597.9766872851324 3813.390639195209
1598.735196118092 4065.534768536446
1599.4935209975883 4075.221988682296
1600.2516619721973 4120.94617070721
1601.0096190904787 3777.544796893112
1601.7673924009723 3825.352854351781
1602.524981952196 3853.2892701588157
1603.2823877926476 3804.6637052952474
1604.0396099708087 3747.1049869723347
1604.7966485351371 3764.5172434588917
1605.5535035340745 3709.778219482558
1606.3101750160404 4081.017800543415
1607.0666630294363 3779.218186758129
1607.822967622642 3744.0698543923986
1608.5790888440224 3919.9067677943654
1609.3350267419137 3953.3658669615334
1610.0907813646445 3798.0207595382294
1610.8463527605145 3833.6691987192944
1611.601740977805 3854.4357074415275
1612.356946064785 3842.285332398684
1613.1119680696902 3626.5045074748327
1613.8668070407512 3642.431239197871
1614.6214630261748 3712.0455390638263
1615.375936074137 3891.6756616437633
1616.1302262328118 3758.846379357247
1616.8843335503425 3886.1220514479473
1617.638258074854 3644.2532704657287
1618.391999854457 3832.424062609209
1619.1455589372363 3844.825454482153
1619.8989353712623 3822.5029794144853
1620.65212920458 3560.678786922519
1621.4051404852235 3681.5760694503783
1622.1579692611976 3760.7755058140183
1622.9106155804966 3685.0897942038964
1623.663079491087 3709.39813636973
1624.4153610409248 3856.0681472999618
1625.1674602779385 3663.634129552721
1625.9193772500403 3600.4125202310825
1626.6711120051277 3912.2177194404453
1627.4226645910676 3722.3461257931967
1628.174035055721 3680.1181585183017
1628.9252234469168 3772.382998461087
1629.676229812474 3758.0565829377933
1630.4270542001905 4099.29452565809
1631.1776966578382 3743.719604446532
1631.9281572331747 3631.8699009994807
1632.678435973945 3989.2289418276355
1633.4285329278573 3741.750134747115
1634.1784481426203 3555.2825395150526
1634.9281816659113 3657.4402221420323
1635.677733545388 3979.972916177666
1636.4271038286934 3741.364034342646
1637.176292563452 3871.252585740186
1637.9252997972635 3886.0216361168896
1638.674125577716 3879.8476219367744
1639.4227699523672 4073.190996493757
1640.171232968767 3654.3655559947338
1640.9195146744423 3779.54041344772
1641.6676151168977 4019.6072057220526
1642.4155343436178 4142.368215289765
1643.1632724020765 3828.0712244441397
1643.9108293397167 3891.560509366444
1644.658205203974 3858.9246478444475
1645.4054000422566 4381.484157137658
1646.1524139019566 3900.682886822895
1646.8992468304423 3813.9135386234784
1647.6458988750728 3807.7707879669674
1648.3923700831765 3898.3745190716786
1649.1386605020743 3949.9012175822922
1649.8847701790564 4022.528544113788
1650.6306991614038 3955.213672118645
1651.3764474963682 4000.988635692077
1652.1220152311944 3710.5072141103665
1652.867402413096 3914.0941998861117
1653.6126090892776 4006.4889343404975
1654.3576353069184 4092.2177829298184
1655.1024811131829 3870.91154908262
1655.8471465552066 3827.471119254014
1656.5916316801213 4045.387615223304
1657.3359365350298 3897.1657114754416
1658.0800611670165 3793.57753196491
1658.824005623148 3917.2340445916843
1659.5677699504722 3755.7693384770087
1660.3113541960192 3863.1928394690817
1661.054758406799 3795.4226551397123
1661.7979826297997 3680.9894770470755
1662.5410269119966 3779.3862172327695
1663.283891300338 3841.8997891142985
1664.0265758417645 3672.229506737886
1664.7690805831826 3856.543233825488
1665.5114055714948 3774.4412730693293
1666.2535508535748 4073.4339586834562
1666.9955164762814 3613.1746678931945
1667.7373024864555 3696.4001965420853
1668.478908930916 3880.943268463982
1669.220335856462 3803.424763210531
1669.9615833098778 3491.8111780216145
1670.7026513379296 3674.630954625291
1671.44353998736 3648.5174990937257
1672.1842493048916 3694.4308374122593
1672.9247793372379 3546.1325522495426
1673.6651301310812 3658.936396049233
1674.4053017330934 3573.8274052891197
1675.1452941899242 3823.2044236919733
1675.885107548207 3398.0013224969866
1676.6247418545518 3477.416726484972
1677.3641971555535 3457.2526564704617
1678.1034734977893 3643.436941880136
1678.8425709278108 3533.1385743762635
1679.5814894921605 3570.426550947188
1680.320229237359 3560.0783556064052
1681.0587902098978 3722.235952123883
1681.7971724562685 3480.5298552686486
1682.5353760229264 3394.068847297406
1683.2734009563173 3654.9848780684324
1684.0112473028657 3402.588341557247
1684.7489151089794 3502.2121749958133
1685.4864044210462 3637.4546969692565
1686.2237152854377 3199.8257515582773
1686.960847748498 3681.1756573076696
1687.6978018565642 3318.572823319111
1688.434577655944 3412.7629804275907
1689.1711751929379 3275.8746144919824
1689.9075945138156 3360.9351078956133
1690.6438356648396 3351.675256141412
1691.3798986922448 3045.581034577492
1692.1157836422499 3348.0673885266865
1692.851490561059 3328.108799283045
1693.587019494853 3291.0895822169637
1694.3223704897991 3115.9106146475588
1695.0575435920364 3050.5230035238346
1695.792538847696 3525.2787356473177
1696.527356302886 3109.094767842448
1697.2619960036936 3019.200146907445
1697.9964579961907 3092.3365412557855
1698.730742326432 2900.754010167083
1699.4648490404488 2985.0163998281278
1700.1987781842563 3094.3357228129694
1700.9325298038548 3195.051731339541
1701.6661039452174 3368.545594822278
1702.3995006543082 3058.807565284783
1703.1327199770658 3152.6338228660143
1703.865761959416 3046.1471622448285
1704.598626647261 3224.973909224522
1705.3313140864866 2954.591020318282
1706.0638243229587 2988.0716128719264
1706.7961574025303 3155.1041757889247
1707.528313371029 3012.486950134923
1708.260292274268 2994.313666540226
1708.9920941580403 3060.912352522623
1709.7237190681226 3165.102895829933
1710.4551670502697 3036.1006549744257
1711.18643815022 2860.1434704743597
1711.9175324136959 3334.4277388084606
1712.6484498863938 3034.6564153524923
1713.379190614005 2773.996722606723
1714.109754642188 2882.852795876179
1714.8401420165883 2922.2687855222216
1715.570352782839 3475.7267481103686
1716.3003869865497 2980.234165157767
1717.0302446733076 2870.488629336342
1717.7599258886876 2893.215070997685
1718.4894306782444 3232.3154228106678
1719.2187590875183 2634.636052799803
1719.9479111620203 3156.3870314549836
1720.6768869472544 2851.585056307902
1721.4056864887025 3271.8426913944477
1722.1343098318284 3250.6926027845175
1722.8627570220742 3030.751078432304
1723.591028104871 2865.198718784409
1724.3191231256242 2790.188517015004
1725.0470421297232 2893.854715831723
1725.7747851625427 2983.9215056185544
1726.5023522694337 3013.63128736514
1727.2297434957363 2908.3144127960277
1727.9569588867635 2755.262050888906
1728.6839984878152 2904.433577007979
1729.4108623441734 2652.5025734703872
1730.1375505011038 2991.673584925401
1730.8640630038426 2728.027940380914
1731.5903998976264 2746.408474536352
1732.316561227657 2952.1681538957373
1733.0425470391274 2662.2366137068975
1733.7683573772065 2817.1892293499163
1734.4939922870508 2860.855629744851
1735.2194518137949 2832.2822798689494
1735.9447360025606 2802.726338625514
1736.669844898439 2851.4132044659086
1737.3947785465189 2679.463102010679
1738.1195369918605 2653.586587707098
1738.8441202795093 2760.4397822053425
1739.5685284544943 2951.3776227606763
1740.292761561821 2884.461834711858
1741.0168196464838 2882.419649507219
1741.7407027534518 2935.4902166462093
1742.464410927687 2836.0505717907427
1743.187944214118 2840.916985811934
1743.9113026576688 2834.4239939764957
1744.634486303241 2756.646961437744
1745.3574951957125 2704.31758188467
1746.0803293799509 2965.342277823515
1746.8029889008048 2847.187857836915
1747.5254738031017 2841.5052529885556
1748.2477841316504 2716.9782930493666
1748.969919931249 2810.120132822487
1749.6918812466665 2817.57807481509
1750.4136681226646 2897.071228578684
1751.1352806039777 2808.5725026468526
1751.856718735331 2496.518599362653
1752.5779825614281 2649.151841938289
1753.2990721269507 2835.6534330149916
1754.0199874765676 2806.9650510694437
1754.7407286549314 2548.2486048210985
1755.4612957066693 2734.323366205318
1756.1816886763954 2650.319417517532
1756.9019076087097 2825.364982478136
1757.6219525481865 2814.189189071367
1758.3418235393856 2719.696902369006
1759.061520626854 2733.7054768431035
1759.7810438551096 2943.427243570359
1760.5003932686614 2629.630956992626
1761.2195689119999 2843.3510241419754
1761.938570829594 2806.2958377659747
1762.657399065898 2781.9291168714003
1763.376053665348 2611.6146553576823
1764.0945346723602 2529.3259145169036
1764.812842131334 2879.7894950564432
1765.5309760866512 2574.3612952290487
1766.2489365826787 2630.274361731885
1766.9667236637597 2721.1262571639545
1767.684337374223 2508.277340050321
1768.401777758383 2596.246163870337
1769.1190448605284 2583.217076460111
1769.836138724937 2497.3621872912904
1770.5530593958665 2723.8331193717504
1771.2698069175603 2931.764911721541
1771.9863813342326 2820.586347010579
1772.702782690094 2677.1998709041286
1773.4190110293293 2742.816525896664
1774.1350663961111 2725.4108125683447
1774.8509488345844 2629.5398104249625
1775.5666583888924 2739.3264183466595
1776.2821951031437 2831.553217059714
1776.9975590214362 2627.1930755729236
1777.7127501878585 2776.2530260570693
1778.4277686464684 2779.890300146472
1779.1426144413108 2770.874688914807
1779.8572876164162 2782.8731417784816
1780.571788215797 2500.43778261657
1781.2861162834415 2620.9856304492496
1782.0002718633277 2582.571191261075
1782.7142549994132 2735.701731965467
1783.4280657356376 2706.081063368861
1784.141704115922 2609.285074479392
1784.855170184177 2597.715104832875
1785.5684639842839 2615.0415471355855
1786.2815855601148 2401.853060116064
1786.9945349555237 2676.235778382542
1787.707312214343 2471.763878567829
1788.4199173803918 2488.776909962361
1789.132350497468 2506.0356975147924
1789.8446116093583 2629.5079902507323
1790.556700759822 2471.387653919065
1791.2686179926077 2623.8534248962133
1791.9803633514493 2507.885295328301
1792.6919368800554 2464.208064905687
1793.4033386221236 2626.937608869422
1794.1145686213295 2798.946752141811
1794.8256269213307 2869.8205890750824
1795.536513565774 2728.6834575977246
1796.247228598284 2356.8540639347952
1796.9577720624693 2577.617299909866
1797.6681440019165 2581.904396373718
1798.3783444602013 2734.1525059951177
1799.0883734808776 2609.1715648416625
1799.7982311074884 2678.258203729733
1800.5079173835475 2563.413162000282
1801.2174323525633 2803.906248044352
1801.9267760580187 2621.7648559389313
1802.635948543386 2607.830915057248
1803.3449498521113 2568.1550783191005
1804.0537800276325 2616.084366781892
1804.7624391133668 2596.9988582698757
1805.47092715271 2342.629162056209
1806.1792441890484 2432.032057837405
1806.8873902657433 2655.1814729690514
1807.5953654261448 2609.732219968533
1808.3031697135812 2539.3329666241766
1809.0108031713662 2460.5112792357263
1809.71826584279 2487.1795122604926
1810.425557771141 2607.8622079749557
1811.1326789996747 2905.9833938494
1811.839629571632 2547.533953020308
1812.5464095302468 2582.9887465127063
1813.2530189187182 2534.1063801621453
1813.959457780249 2540.1920817162613
1814.6657261580076 2779.1994778524618
1815.371824095153 2488.0133164604795
1816.0777516348262 2654.570225661206
1816.78350882015 2286.283230977454
1817.4890956942272 2335.1206383881204
1818.1945123001533 2418.397421017283
1818.8997586809928 2265.666789991913
1819.6048348798067 2327.264593847614
1820.3097409396287 2573.316392538497
1821.0144769034796 2789.339315814911
1821.7190428143622 2507.824210204702
1822.423438715261 2628.8629596777614
1823.1276646491478 2567.6166277268385
1823.8317206589727 2423.8869164114494
1824.5356067876692 2462.3101231812893
1825.2393230781581 2411.60972539406
1825.942869573335 2262.5058697839645
1826.646246316086 2421.054021169901
1827.3494533492758 2408.979628065112
1828.052490715756 2577.78731618882
1828.7553584583547 2592.7726107172407
1829.458056619891 2556.502863932197
1830.1605852431585 2491.6809549568898
1830.8629443709433 2310.696393125297
1831.5651340460063 2386.6620834671503
1832.2671543110919 2298.4507035413876
1832.9690052089318 2658.145266647815
1833.6706867822395 2320.518231076566
1834.3721990737104 2556.951749735943
1835.0735421260233 2531.2132925113247
1835.774715981841 2418.7156380603583
1836.4757206838058 2654.6826020997837
1837.1765562745459 2349.856491941341
1837.8772227966747 2346.453225875295
1838.5777202927839 2407.592243985576
1839.2780488054523 2478.972642384243
1839.9782083772352 2367.902705955911
1840.6781990506806 2745.4249435119846
1841.378020868313 2428.6653902210246
1842.0776738726418 2489.9874079191045
1842.777158106157 2420.266979072675
1843.4764736113375 2338.8945679851854
1844.1756204306403 2445.799627940788
1844.8745986065078 2518.8219421875424
1845.5734081813607 2298.1025514519274
1846.2720491976124 2399.5529774291817
1846.970521697649 2328.9368045641163
1847.6688257238511 2462.036104131151
1848.3669613185684 2351.9428884153995
1849.0649285241452 2206.6211731185103
1849.7627273829057 2503.212886687363
1850.460357937156 2412.711646408417
1851.1578202291857 2187.4862062072234
1851.8551143012664 2334.8623943845487
1852.5522401956569 2353.5193665411994
1853.2491979545957 2696.4170467199356
1853.9459876203055 2257.064161486578
1854.6426092349902 2343.37823819082
1855.3390628408451 2414.5779328570043
1856.0353484800362 2568.9240798429064
1856.7314661947203 2595.876704031787
1857.4274160270397 2338.676995486448
1858.123198019115 2286.051326651481
1858.8188122130487 2236.803183317502
1859.5142586509319 2344.2265857632638
1860.209537374838 2286.2454711690057
1860.9046484268183 2313.1581759218197
1861.599591848917 2480.7154390127275
1862.294367683151 2358.3322467099447
1862.988975971528 2245.2889338535897
1863.6834167560355 2393.0567888321702
1864.3776900786452 2521.8620623697325
1865.0717959813119 2385.1201964295556
1865.7657345059724 2231.647534714743
1866.4595056945564 2398.2176684175993
1867.1531095889586 2455.101657624983
1867.846546231076 2083.0735839417666
1868.5398156627743 2432.0768319289173
1869.2329179259123 2266.0939903983026
1869.9258530623283 2549.292627016571
1870.618621113843 2220.847279928483
1871.3112221222636 2092.763280024559
1872.0036561293764 2198.9135044799077
1872.695923176956 2393.950999305702
1873.3880233067594 2445.0016426192597
1874.0799565605212 2142.2670840549413
1874.7717229799673 2361.5111727742224
1875.4633226068036 2539.7041220053466
1876.1547554827175 2451.757035156157
1876.8460216493859 2183.5310982900537
1877.5371211484617 2311.694512518863
1878.2280540215852 2500.194807733813
1878.9188203103804 2088.7808872135442
1879.6094200564548 2280.0017387428966
1880.299853301396 2288.8498220410193
1880.9901200867826 2456.5025626061874
1881.6802204541673 2336.691608799692
1882.3701544450942 2397.0469416141814
1883.059922101087 2154.2307507302744
1883.7495234636517 2461.84268880099
1884.4389585742792 2282.766160805668
1885.1282274744517 2146.186468795569
1885.8173302056166 2248.8158310139706
1886.506266809225 2351.585679899387
1887.195037326701 2201.4022055093433
1887.8836417994517 2260.1203349275925
1888.5720802688702 2616.711543955569
1889.260352776333 2503.237596862817
1889.9484593632042 2527.5520834977633
1890.63640007082 2221.2727121487223
1891.3241749405151 2197.9619949681414
1892.0117840135954 2420.597997738407
1892.6992273313572 2201.6135369679573
1893.3865049350788 2128.8080591805456
1894.0736168660223 2469.774951119382
1894.7605631654333 2333.898684049495
1895.4473438745408 2088.6619176822437
1896.133959034556 2471.5375155999486
1896.820408686679 2288.999988893181
1897.506692872088 2534.144326041989
1898.192811631945 2263.666128537196
1898.8787650073991 2331.8846916362236
1899.5645530395832 2496.1411107085555
1900.2501757696118 2430.84075747922
1900.9356332385796 2096.5952139674523
1901.620925487574 2226.5963559673946
1902.3060525576602 2356.996677775362
1902.9910144898859 2320.2352323964087
1903.6758113252872 2236.259634668813
1904.3604431048789 2350.616008224313
1905.0449098696663 2412.431061944109
1905.7292116606295 2200.745441295215
1906.4133485187394 2356.5955321481333
1907.0973204849488 2026.400671365709
1907.7811276001976 2003.8583899897662
1908.4647699053967 2354.0559474122015
1909.1482474414588 2264.2403085321394
1909.8315602492694 2174.1398299950993
1910.5147083696957 2444.344024081546
1911.1976918436012 2217.4424789979175
1911.880510711815 2177.782012353125
1912.5631650151681 2460.281517135272
1913.2456547944657 2153.3319561339367
1913.927980090495 2289.496162287686
1914.6101409440362 2155.457055677262
1915.2921373958416 2328.7808774065643
1915.9739694866603 2222.3617277890216
1916.655637257214 2498.7277055138693
1917.3371407482136 2350.6771985771366
1918.0184800003572 2482.125126103126
1918.6996550543154 2325.416726176133
1919.3806659507554 2290.830804616004
1920.0615127303208 2309.9142267799975
1920.7421954336423 2419.9199206297476
1921.4227141013343 2343.645369229815
1922.103068773993 2267.2497732381066
1922.783259492202 2385.683910990264
1923.4632862965227 2252.097737968754
1924.1431492275078 2169.684565502376
1924.8228483256917 2113.372169260602
1925.5023836315922 2253.8740971878788
1926.1817551857057 1984.9276908308452
1926.8609630285227 2404.0871977692536
1927.5400072005123 2346.2995113701113
1928.218887742125 2241.7459282969758
1928.8976046938005 2153.9972363553734
1929.5761580959588 2326.882899491182
1930.2545479890086 2237.4644843364767
1930.9327744133352 1970.338961584011
1931.6108374093164 2207.8896070744736
1932.2887370173066 2496.8720064243626
1932.9664732776473 2102.7347921128826
1933.6440462306673 2241.0635309755717
1934.3214559166754 2099.8376430779394
1934.9987023759659 2454.9863351361046
1935.675785648813 2338.19958052123
1936.3527057754836 1971.8012287617566
1937.029462796223 2046.0117899710567
1937.70605675126 2120.428702321463
1938.3824876808085 2114.208290067457
1939.058755625072 2135.636549152273
1939.7348606242267 2127.5927661871992
1940.4108027184448 2216.903379343901
1941.0865819478713 2354.1959724330327
1941.7621983526478 2038.3250365781746
1942.4376519728921 2014.7875760753413
1943.1129428487038 2167.589520419956
1943.7880710201734 2311.0833432636423
1944.4630365273733 2240.5352022131474
1945.1378394103576 2066.8352993444737
1945.8124797091714 1993.814570769816
1946.4869574638324 1920.5791394026596
1947.161272714353 2164.5507611293488
1947.8354255007234 2302.703470463087
1948.5094158629272 2108.5847263308706
1949.1832438409183 2142.4021897277803
1949.8569094746435 2378.6396373635057
1950.530412804037 2344.9087779405845
1951.2037538690092 2358.6398013513385
1951.8769327094578 2196.64162604684
1952.5499493652678 2092.605359691025
1953.222803876306 2360.7590527991374
1953.895496282421 2330.4547670902075
1954.5680266234522 2198.6971816188566
1955.2403949392155 2245.9793479547325
1955.9126012695142 2049.4602684395622
1956.5846456541403 2082.9614667074575
1957.2565281328643 2086.2626803554313
1957.9282487454457 2299.7085495119004
1958.5998075316202 2276.9224129831955
1959.27120453112 2040.874443809504
1959.9424397836501 2139.4507418951034
1960.613513328908 2228.412595449949
1961.2844252065697 2459.730872450653
1961.9551754563017 1986.5115640940724
1962.6257641177453 2042.9791900984626
1963.29619123054 1940.173114335869
1963.966456834296 2131.2502518624838
1964.6365609686181 2042.9509008769521
1965.306503673086 2282.4194696539294
1965.976284987275 1957.492807800245
1966.645904950734 2105.3735545875443
1967.315363603002 1902.203146616787
1967.9846609836077 2027.3392584478565
1968.6537971320486 2010.3354424395682
1969.3227720878222 2209.477115179175
1969.9915858904042 2207.210007535795
1970.660238579252 2178.306804140833
1971.3287301938108 2038.8098937508134
1971.997060773514 1972.566012561131
1972.665230357772 1936.1749134572958
1973.3332389859843 2018.7894487447218
1974.0010866975335 1977.8273178980326
1974.6687735317864 2074.773295359686
1975.3362995280932 2168.908437535205
1976.003664725793 2186.598859864488
1976.6708691642052 1911.817932182678
1977.3379128826364 2085.258006746488
1978.004795920373 2200.0406463859263
1978.6715183166925 1982.6266976650422
1979.3380801108524 2252.891822502491
1980.0044813420973 2105.128673528716
1980.6707220496555 1803.1019998591612
1981.3368022727373 2053.1196376644375
1982.0027220505417 2076.7867821636546
1982.66848142225 1695.456927376413
1983.3340804270283 1827.2722615951498
1983.999519104027 1976.4588504831634
1984.6647974923835 2172.130613503377
1985.329915631215 2292.838193720739
1985.99487355963 2019.5764901182417
1986.6596713167146 2177.4461932404106
1987.3243089415428 1907.4148107816595
1987.9887864731754 2234.6919460829317
1988.6531039506553 1873.3462169969985
1989.3172614130071 1927.9653990978445
1989.9812588992481 1982.709228622992
1990.645096448372 1771.0146827736996
1991.3087740993633 2124.9930927178316
1991.9722918911848 2076.2753860804223
1992.635649862792 2075.170284822851
1993.2988480531185 2026.3805176295496
1993.9618865010852 2450.1971757219594
1994.6247652455968 2062.0244225669885
1995.287484325545 1978.7060822426538
1995.9500437798033 1872.8650071443979
1996.6124436472292 2012.8984859468244
1997.2746839666706 2155.35498549705
1997.936764776954 1979.8977163323336
1998.598686116895 2032.4857114698207
1999.2604480252903 2266.7241777616628
1999.9220505409212 2157.369305976258
2000.5834937025593 1967.4557768501315
2001.2447775489582 1987.98977433877
2001.9059021188514 2124.812647769932
2002.5668674509616 1975.068899422146
2003.2276735839987 1991.0386185250086
2003.8883205566508 2278.4711897304846
2004.5488084075987 2023.7671909956662
2005.2091371755014 1988.9664854842608
2005.8693068990033 1748.2927691865534
2006.5293176167397 1826.8509102086741
2007.1891693673224 1905.7078174262992
2007.848862189354 1872.3155853385724
2008.5083961214223 2022.8537351815132
2009.1677712020955 1831.7721708208762
2009.8269874699254 1876.6861155503072
2010.4860449634598 1876.4812396757438
2011.1449437212177 1876.386444993554
2011.8036837817108 2153.9116887534733
2012.4622651834325 2065.963011250761
2013.1206879648653 2097.3516775769267
2013.7789521644736 2231.7818969717882
2014.4370578207036 1772.5129922479452
2015.0950049719922 1937.387621071873
2015.7527936567585 2211.3458718158554
2016.4104239134067 1958.9670554167594
2017.067895780323 1879.7915935794995
2017.725209295886 1800.336043694253
2018.3823644984514 2161.3432720074425
2019.0393614263648 2061.2593669856187
2019.6962001179545 2044.9008998740096
2020.3528806115355 2262.8002403392175
2021.0094029454067 2089.903758644053
2021.6657671578487 1808.7071606946934
2022.321973287133 2016.5994785838752
2022.9780213715148 1991.697590233578
2023.6339114492293 1780.1929778186252
2024.2896435585026 2130.0200246201853
2024.9452177375442 1982.8481867669889
2025.600634024544 2170.5042023174874
2026.2558924576842 2129.938044129798
2026.9109930751292 2116.301022548546
2027.565935915025 1903.2538648522282
2028.2207210155066 2235.370498527924
2028.8753484146964 2367.4369309977337
2029.529818150695 2272.801717705399
2030.1841302615903 2177.7129265467893
2030.8382847854573 1900.2681672497292
2031.4922817603601 1982.7914504884884
2032.1461212243357 1915.2471601484856
2032.7998032154192 1724.4788123021783
2033.4533277716218 1956.788031118229
2034.1066949309443 1771.822240020616
2034.7599047313688 1857.983223017669
2035.4129572108704 2148.864159442889
2036.0658524074006 2141.67413148982
2036.7185903589016 1986.8043478342988
2037.3711711032956 2098.7235262723007
2038.023594678496 1985.7682259955786
2038.675861122394 1989.9438608365435
2039.3279704728757 2226.664426917577
2039.9799227678031 1820.578815609912
2040.6317180450278 1862.7863843300674
2041.2833563423865 1885.1695057609224
2041.9348376977014 2270.0700667951114
2042.5861621487784 2052.452468603213
2043.2373297334088 1974.6022794870828
2043.8883404893695 1974.5088100077562
2044.5391944544208 2002.14587809865
2045.1898916663158 2201.78389514269
2045.8404321627804 2288.5520015390425
2046.4908159815368 1906.1564147161832
2047.1410431602853 1831.1647175476796
2047.7911137367173 1841.1465050063173
2048.441027748504 2208.7758157645903
2049.090785233302 1851.9045472665737
2049.7403862287592 1900.997383631759
2050.389830772503 2196.0785298564037
2051.0391189021466 1771.336443122429
2051.688250655294 1924.0361678274403
2052.337226069527 1841.9572330438277
2052.986045182417 2087.45266813096
2053.634708031521 1722.9660376541426
2054.283214654375 2049.0698110025323
2054.931565088511 1743.954055509534
2055.579759371436 1844.854646111388
2056.2277975406523 1930.0132222764155
2056.8756796336384 2173.4800586457377
2057.5234056878617 1748.130207247424
2058.1709757407752 1874.6288178986401
2058.8183898298194 2200.312440371835
2059.465647992416 2144.1412064440424
2060.1127502659747 2230.550204394775
2060.759696687888 1847.770916332643
2061.4064872955405 1970.376064648423
2062.053122126292 1831.827159086744
2062.699601217497 1693.3373189598144
2063.345924606485 1841.2298719271225
2063.992092330587 1984.7840071659255
2064.638104427102 1835.7394595798432
2065.283960933324 1904.0336777428013
2065.92966188653 1972.410655319244
2066.5752073239855 2108.4698457161257
2067.2205972829397 1751.3098643224985
2067.86583180062 1906.750592768961
2068.5109109142522 2011.1535332382093
2069.15583466104 1909.6408750150326
2069.8006030781708 1808.0356905424055
2070.445216202821 1823.6816445305406
2071.089674072153 2020.5659464933815
2071.7339767233116 2080.7834882512047
2072.3781241934303 2001.8809972947183
2073.0221165196253 1973.1703675909407
2073.6659537390024 1866.8395722691398
2074.3096358886505 1987.8624181019993
2074.953163005637 1849.556882452326
2075.596535127028 1804.9460565667032
2076.2397522898664 1762.5988109056045
2076.882814531182 1878.2907469489164
2077.5257218879924 2111.0495999122713
2078.1684743973 1917.3962781464809
2078.8110720960885 1716.583970747692
2079.453515021336 1827.8599146445413
2080.095803209997 1939.2149966722195
2080.7379366990135 1878.1743530230262
2081.37991552532 2075.835041896765
2082.0217397258275 1975.5964614074815
2082.6634093374414 1655.3546653855392
2083.3049243970418 1852.1268251028803
2083.9462849415067 2083.839799909042
2084.587491007689 2076.0731235723006
2085.2285426324324 1922.9864332483478
2085.869439852564 1945.3952132939455
2086.510182704902 1871.914072897127
2087.1507712262483 1859.6589849048037
2087.791205453381 1809.1169549474137
2088.4314854230743 2063.3836048160692
2089.0716111720867 1988.4877582809906
2089.7115827371617 2155.6304999126933
2090.351400155023 1734.9718948507111
2090.991063462385 1885.4771907615723
2091.6305726959527 1548.424984080552
2092.2699278924047 1663.669516051381
2092.9091290884153 1779.2189130708855
2093.548176320641 1790.4987819446949
2094.187069625721 2007.6569944647758
2094.8258090402887 1783.8917723893599
2095.464394600951 2021.447353454722
2096.102826344313 1898.1231666912768
2096.741104306955 2003.6055019325802
2097.379228525453 1792.9792828370387
2098.017199036358 1640.7448705906706
2098.6550158762147 2029.1419335598937
2099.2926790815527 2105.6952793342743
2099.9301886888825 1850.468024165078
2100.5675447347076 1803.959603961443
2101.2047472555114 2031.9573232488704
2101.841796287761 1772.243265097552
2102.47869186792 1935.462720718297
2103.1154340324265 1815.242109733506
2103.752022817709 1942.043205475169
2104.388458260184 1714.4859811675349
2105.024740396251 1784.2997401770135
2105.660869262292 1787.4986791981664
2106.296844894685 2094.0426176293045
2106.93266732978 1817.9336762524642
2107.5683366039284 1738.7133171520272
2108.2038527534532 1930.1829369144812
2108.8392158146726 1883.3835769085429
2109.4744258238843 1764.4185403508043
2110.1094828173755 1979.5939664306566
2110.744386831422 2120.6776322962965
2111.3791379022787 1909.9873027643298
2112.01373606619 2105.7486369141066
2112.648181359389 2114.5803961127176
2113.28247381809 1941.7641374087768
2113.916613478492 2088.5025064995048
2114.550600376786 2033.9970000842004
2115.1844345491445 1822.47424083818
2115.818116031729 1660.2445491768842
2116.451644860679 1918.961295977207
2117.085021072133 1588.0513314224863
2117.718244702204 1886.0767159888633
2118.3513157869984 1713.1103593063774
2118.984234362604 1812.3567399929216
2119.617000465092 1871.3245533765967
2120.249614130529 2142.1557117385555
2120.8820753949585 1844.8702107169076
2121.5143842944162 1712.7203888938227
2122.14654086492 1724.0665715098835
2122.7785451424734 1926.040974789553
2123.4103971630702 1522.27308703011
2124.042096962681 1856.6296742360453
2124.6736445772767 1968.8076446140144
2125.305040042802 1799.852744958039
2125.936283395191 1746.6610005860916
2126.567374670365 1918.568050528612
2127.198313904233 1889.9207977296387
2127.8291011326855 1887.0442087125587
2128.4597363916037 1883.9373549202853
2129.0902197168507 1819.6917463404584
2129.720551144279 1985.3563358767872
2130.3507307097225 2151.1184825961273
2130.980758449008 2103.908053843789
2131.6106343979427 1704.9675771647064
2132.2403585923203 2080.0832262135004
2132.8699310679276 1961.3215518377979
2133.499351860526 1963.5188640522279
2134.1286210058715 1830.8118202962055
2134.7577385397053 1561.7934686792216
2135.3867044977487 1971.5853581450697
2136.0155189157176 2031.6216821161306
2136.644181829308 2004.2193387647483
2137.2726932742025 1763.8750135935327
2137.901053286074 1698.824997619688
2138.5292619005777 1633.740209036946
2139.1573191533535 1816.07511755721
2139.7852250800315 2052.843408076219
2140.4129797162295 1946.5000100145342
2141.0405830975433 1661.1089359801022
2141.6680352595613 1715.0177591108466
2142.2953362378576 1769.049385896818
2142.9224860679915 1688.65323322833
2143.549484785508 1805.3846294220305
2144.1763324259373 1851.445442691264
2144.803029024799 1636.5325480649321
2145.429574617594 1702.6758434219948
2146.0559692398165 1735.8172997019901
2146.682212926942 1842.5381890262663
2147.308305714432 1824.7044423389882
2147.9342476377333 2008.9547987043456
2148.5600387322847 2220.096799569936
2149.185679033506 2195.9738055589787
2149.8111685768017 1727.2750425057457
2150.4365073975678 1629.1236353755974
2151.061695531187 1666.2687739759426
2151.686733013021 1746.436208060836
2152.311619878423 1826.878414035386
2152.9363561627342 1780.1415861208748
2153.560941901278 1761.431144459774
2154.1853771293663 1841.2877521594141
2154.809661882293 1883.8356150088057
2155.433796195348 1768.8488659092152
2156.0577801037944 1653.500460829493
2156.681613642895 1871.5138452937724
2157.3052968478896 1719.1669811115535
2157.928829754006 2047.8994002139311
2158.552212396462 1977.923312102033
2159.1754448104566 1786.974459346889
2159.7985270311783 1652.697114541268
2160.4214590938027 1370.142433447423
2161.0442410334927 1576.3721458036057
2161.6668728853874 1865.7207755622826
2162.289354684628 1580.430364905802
2162.911686466332 1773.3621844139925
2163.533868265602 1838.4073366927357
2164.1559001175337 2121.2452585314895
2164.7777820572046 2038.6656214128961
2165.399514119681 1836.450688650558
2166.021096340013 1814.4878283663286
2166.6425287532384 1929.0513616737292
2167.263811394385 1644.4040767048486
2167.8849442984574 2014.5686081532458
2168.505927500455 1738.932040420652
2169.126761035366 1686.1070986638183
2169.7474449381552 1633.3209853847022
2170.367979243778 1623.7072008390699
2170.9883639871823 2036.1420720148835
2171.608599203293 2119.6659661946096
2172.2286849270276 2203.3820628346266
2172.8486211932886 2110.252665345358
2173.4684080369625 1821.7877733634614
2174.0880454929265 1696.1135061631849
2174.7075335960417 1535.7501582401035
2175.3268723811543 1551.5528288014968
2175.9460618831 1567.4178581700248
2176.565102136701 1802.8046162903054
2177.1839931767627 1808.49001625176
2177.802735038078 1814.2164163838547
2178.421327755432 1656.8787410356115
2179.0397713635866 1381.7921427009358
2179.658065897298 1595.7677085746845
2180.276211391305 1846.2808806700348
2180.8942078803357 1679.8817824772782
2181.5120553991 1859.93161097792
2182.129753982299 1544.2103436228745
2182.7473036646206 1552.6512076036508
2183.3647044807367 1554.4307017116107
2183.9819564653044 1556.2735633177188
2184.599059652968 1709.0583784598698
2185.216014078367 1893.2627052045707
2185.832819776113 1539.0356953572618
2186.4494767808137 1603.6881292991727
2187.065985127063 1668.3463092202485
2187.682344849436 1644.23568769917
2188.298555982501 1941.3120442210213
2188.9146185608097 1645.7045794163078
2189.530532618901 1892.8683550998126
2190.1462981912937 1846.821571866165
2190.761915312507 1924.5609550038469
2191.377384017036 1787.371324475012
2191.9927043393654 1825.835405714576
2192.6078763139667 1998.8270929513826
2193.2228999753006 1638.250800292179
2193.837775357808 1824.4690989412843
2194.452502495922 1522.5422033663463
2195.0670814240602 1730.9343470405413
2195.6815121766285 1616.1305543401072
2196.2957947880186 1527.1670517905716
2196.9099292926057 1438.0292732003832
2197.523915724758 1842.4952052157573
2198.137754118825 1585.605216945471
2198.7514445091456 1600.4475011910142
2199.3649869300443 1615.3901371921534
2199.9783814158327 2122.968308363036
2200.5916280008096 2149.0792195814324
2201.2047267192593 1956.4742557709233
2201.8176776054515 1712.1021433853298
2202.430480693649 1593.4842366516968
2203.0431360180955 1955.6273111602218
2203.6556436130195 2102.9824034279563
2204.268003512645 1537.068425613254
2204.8802157511727 1664.8540112256783
2205.492280362796 1635.1050686624844
2206.1041973816937 1605.309254831864
2206.715966842032 1850.2279740880226
2207.3275887779655 1916.038973292684
2207.93906322363 1797.6634863145289
2208.550390213153 1791.3420579064364
2209.1615697806465 1915.739709859868
2209.7726019602105 1611.3663075568152
2210.3834867859277 1671.75447552563
2210.9942242918787 1737.6377134533566
2211.6048145121167 1794.943506775017
2212.2152574806914 2373.7016203177964
2212.825553231638 1717.282906281457
2213.435701798975 2298.089147490496
2214.045703216707 1896.08826666003
2214.655557518832 1499.4722560641637
2215.2652647393297 1483.7990108895942
2215.874824912169 1302.2673363595127
2216.4842380713 1666.0829952833483
2217.09350425067 1588.4783842066715
2217.7026234842033 1933.7711706405491
2218.311595805819 1986.1195643467695
2218.9204212494133 1731.4970691235926
2219.52909984888 1925.0262750542868
2220.137631638092 1459.126958648967
2220.7460166509154 1447.6988204636818
2221.354254921198 1436.1799058911909
2221.9623464827764 1779.0938928127366
2222.5702913694713 1724.7187032551337
2223.178089615096 2065.6569325241708
2223.7857412534486 1771.107445191075
2224.39324631831 1473.117768428595
2225.000604843457 1624.396238214341
2225.607816862641 1940.3802102251786
2226.214882409611 1817.7330818582413
2226.8218015180973 2040.1970266000244
2227.4285742218217 1671.3028569778417
2228.0352005544864 1614.4150062226556
2228.6416805497847 1415.4933565626757
2229.248014241399 1561.1021451552654
2229.8542016629945 1601.060220450469
2230.460242848223 1736.8039318536048
2231.0661378307304 1634.0569642697872
2231.671886644139 1531.2345255055802
2232.277489322065 1593.2123366198873
2232.8829458981127 1435.7717922703216
2233.48825640587 1769.8252479275961
2234.0934208789095 1813.1948193924752
2234.6984393507955 1856.6520989142082
2235.3033118550793 1712.1809497868999
2235.9080384252975 1671.1300722192336
2236.5126190949723 1529.3515111403715
2237.1170538976166 1499.8925626633943
2237.721342866729 1486.4957070330179
2238.32548603579 1591.613325243261
2238.9294834382763 1942.9306231736937
2239.533335107646 1910.7624291475338
2240.1370410773434 1664.3586901595845
2240.740601380803 1512.9848049795182
2241.3440160514474 1718.4007009144002
2241.9472851226783 1950.6437314076738
2242.550408627896 1737.406907818456
2243.1533866004793 1909.7270129215708
2243.756219073799 1638.6650603039507
2244.3589060812064 1492.5615315589935
2244.961447656049 1519.001370184799
2245.5638438316564 1725.8503010624513
2246.166094641343 1786.6623225983105
2246.7682001184166 1578.1084338120431
2247.3701602961664 1787.20273005909
2247.971975207871 1740.0051021054576
2248.5736448867974 2010.5334956245447
2249.175169366197 1697.228672567548
2249.7765486793123 1674.9044869118527
2250.3777828593684 1750.7143832889747
2250.9788719395783 1620.8657429113625
2251.579815953146 1706.9788483643038
2252.1806149332606 1470.8020430717231
2252.781268913097 1682.2402993951357
2253.381777925817 1677.2789821191825
2253.9821420045737 1808.3592513369463
2254.5823611825035 1751.1486757379753
2255.1824354927303 1930.407809757334
2255.782364968365 2035.0669184094138
2256.38214964251 1462.4102216920141
2256.9817895482483 1484.49665081567
2257.5812847186553 1419.596063148716
2258.180635186791 1498.8753969951736
2258.779840985704 1594.8772652590903
2259.37890214843 1737.7415020896588
2259.97781870799 1944.1523853989431
2260.5765906973957 1822.2657796793635
2261.175218149645 1728.8248320485284
2261.773701097718 1816.4362736754047
2262.3720395745895 1656.2358839492922
2262.970233613216 1495.709506346319
2263.568283246548 1557.440941424598
2264.1661885075137 1379.797783825316
2264.763949429038 1412.618756718352
2265.3615660440246 1897.631591008139
2265.959038385374 1413.0666486563598
2266.5563664859637 1948.9560311314883
2267.153550378669 1555.085056695619
2267.7505900963424 1911.0054229797177
2268.3474856718312 1548.6669711585114
2268.9442371379664 1650.8207131110805
2269.5408445275643 1626.5733568427509
2270.1373078734377 1643.5813310545777
2270.7336272083758 1527.549993783043
2271.32980256516 1513.8542038315315
2271.925833976562 1825.0564426430756
2272.5217214753357 2007.962704259462
2273.117465094223 1530.745986402981
2273.7130648659586 1404.641368399843
2274.308520823257 1498.3501056820649
2274.903832998827 1757.0644696909094
2275.4990014253563 1584.5263553841248
2276.094026135528 1792.8461283038032
2276.6889071620117 1493.250943601664
2277.2836445374614 1910.468233814168
2277.878238294519 1650.5160356712572
2278.472688465812 1574.3593800825204
2279.066995083962 1498.0347269420538
2279.6611581815705 1533.248989414087
2280.255177791232 1876.6265541380003
2280.8490539455233 1648.2284269198317
2281.442786677013 1986.2096290206343
2282.0363760182554 1986.4872241730773
2282.6298220017943 1455.7636844166059
2283.223124660155 1948.461233711497
2283.816284025859 1513.55555391183
2284.4093001314086 1913.8091070766968
2285.002173009292 1529.6022769885299
2285.5949026919952 1716.2435830357722
2286.1874892119777 1716.6584000515984
2286.7799326016993 1756.25046844285
2287.3722328936 1391.9006467893264
2287.964390120109 1286.2906361385133
2288.556404313642 1627.5839826855063
2289.1482755066027 1591.9293909083085
2289.7400037313873 1556.146770964006
2290.3315890203703 1562.104553540494
2290.9230314059205 1740.275960592339
2291.5143309203904 1540.9216691038805
2292.1054875961236 1806.5342361152132
2292.6965014654506 2053.727822898225
2293.287372560684 1561.104497789538
2293.878100914131 2191.2546834456307
2294.468686558086 1669.3035830615038
2295.059129524827 1601.1575200892905
2295.649429846617 1528.8664201006875
2296.239587555716 1456.375273775531
2296.8296026843636 1536.0437536810573
2297.419475264791 1540.714964286934
2298.0092053292137 1545.299264751862
2298.598792909839 1821.7915301955131
2299.1882380388597 1802.381983866719
2299.777540748455 2031.1877215977663
2300.3667010707904 1697.3835101562581
2300.9557190380256 1751.3202677241693
2301.544594682302 2007.501891480641
2302.1333280357503 1610.265604412679
2302.721919130485 1627.217692095732
2303.3103679986198 2006.0665108806988
2303.898674672242 1836.92054229002
2304.486839183437 1397.1931544280274
2305.0748615642697 1649.965053319962
2305.6627418468015 1517.7581595014435
2306.2504800630704 1430.6003773442071
2306.8380762451143 1747.5896057727714
2307.425530424949 1763.3617219920138
2308.012842634582 1779.1563034045398
2308.6000129060103 2021.3461930890583
2309.187041271214 2111.3803877323967
2309.773927762164 1453.473016770155
2310.3606724108213 1847.6474590550738
2310.9472752491274 1395.0077414761554
2311.5337363090184 1808.0985438925388
2312.120055622414 1478.5570805464015
2312.706233221221 1596.5931872553144
2313.2922691373424 1229.9060487860916
2313.8781634026564 1334.7690961976898
2314.463916049037 1439.8678699237973
2315.049527108342 1701.4239547819361
2315.6349966124235 1825.2691643651026
2316.2203245931123 1959.2585430841605
2316.8055110822315 1821.220535182414
2317.3905561115935 1682.835362680828
2317.9754597129977 1792.213530007923
2318.560221918229 1976.3599590234312
2319.1448427590603 1502.8763481748445
2319.729322267256 1318.7805325583827
2320.313660474563 1396.8512639617927
2320.8978574127195 2132.413753345595
2321.481913113452 1880.3782227322693
2322.0658276084705 1432.5255329394852
2322.6496009294806 1476.3230651835488
2323.233233108165 1714.336604911974
2323.8167241762058 1657.2684816653014
2324.4000741652617 1599.972959858665
2324.983283106987 1872.5244068443658
2325.5663510330232 1908.4220045232146
2326.1492779749933 1558.5842023391067
2326.7320639645204 1703.3494778238296
2327.3147090332004 1552.9558805084012
2327.897213212629 1673.0936360483502
2328.4795765343843 1793.2694483806804
2329.0617990300307 1491.8253883626487
2329.643880731124 2042.4277117475326
2330.22582166921 1588.5526832273365
2330.807621875816 1390.7367516839772
2331.3892813824623 1192.7241358889623
2331.9708002206517 1421.1663909133636
2332.5521784218818 1485.400547619611
2333.133416017634 1549.831592343247
2333.7145130393765 1350.6478352440722
2334.295469518571 1801.883078382256
2334.876285486658 1764.6220401158084
2335.456960975076 1774.2603138352847
2336.037496015242 1783.9508632912246
2336.6178906385667 1623.4196150364048
2337.198144876451 1680.1427617490851
2337.778258760278 1721.5705090383424
2338.3582323214214 1757.9377889785574
2338.938065591243 1794.3454580787063
2339.517758601087 2021.8398376787907
2340.0973113822965 1686.2924197684795
2340.676723966193 1734.62974576623
2341.255996384094 1577.5498805432935
2341.835128667295 2054.4787331388934
2342.4141208470883 1862.7833874176988
2342.992972954751 1601.425278854974
2343.5716850215467 1634.2527734131793
2344.1502570787306 1214.1497939611413
2344.7286891575386 1416.7817729046992
2345.3069812892045 1609.254711918354
2345.885133504944 1801.929222941615
2346.4631458359618 1672.642838216219
2347.04101831345 1393.2318099290817
2347.6187509685915 1163.9660379583888
2348.196343832553 1449.0230262717519
2348.7737969364935 1601.7667418813057
2349.351110311558 1567.8401527794904
2349.9282839888765 1385.3531062069967
2350.5053179995757 1290.132533418037
2351.0822123747585 1347.118889287949
2351.658967145526 1369.2324191972493
2352.2355823429643 1391.46317296475
2352.812057998144 1575.262829035669
2353.3883941421263 1546.9417804814955
2353.9645908059647 1645.2404648507472
2354.540648020693 1652.273637459126
2355.116565817336 1802.1030569777163
2355.6923442269126 1952.282848985788
2356.2679832804224 1592.373535431623
2356.8434830088518 1645.354092629236
2357.41884344318 1369.1894927550804
2357.994064614377 1703.6020455295718
