#exp_cfg={"servo_angle": 0.0, "laser_lim": 100.0, "servo_angle_to": 18.0, "laser_wup": 0.0, "bt_dev": "EnSpectr-25AE3", "laser_wdn_max": 0.0, "frames": 10.0, "servo_used": 0, "servo_calib_use": 0, "laser_wdn_min": 0.0, "servo_pix_from": 90.0, "cooler_tout": 300.0, "servo_angle_from": 0.0, "servo_calib": "[-1.9174921013161362e-09, 3.9322238269163779e-05, -0.27385609119055809, 653.59552119713567]", "laser_autoctl": 0, "servo_pix_to": 3682.0, "laser_pw": 100.0, "cooler_on": 0, "laser_volt": 4.0, "cooler_autoctl": 0, "cooler_curr": 70.0, "cooler_startup": 10.0, "laser_fixed_pw": 0, "gain": 1.3, "offset": 2.53059635486, "servo_calib_degree": 3.0, "laser_curr": 55.0, "shutter": 8200.0, "servo_calib_step": 1.0, "laser_fixed_curr": 0, "exp": 2000.0, "ccd_volt": 4.7, "bt_addr": "00:06:66:62:5A:E3", "servo_delay": 500.0, "laser_autooff": 1}
#proc_cfg={"flat_auto_wnd": 200.0, "flat_auto_fr": 200.0, "flat_auto_shift": 5.0, "yconv": 1, "flatten": 1, "flatten_strength": 100.0, "xfrom": 300.0, "auto_max_frame": 2000.0, "auto_signal": 48000.0, "flat_auto_tol": 0.1, "autoclip": 1, "xrel_range": 0.0, "flat_auto_to": 4000.0, "intensity_adj": 1.0, "xrel": 7852.0, "rmhot": 1, "flat_auto_slit": 4.999999999999997, "auto_ini_exp": 300.0, "auto_off": 0, "xto": 2860.0, "flat_auto_ref": "", "flat_auto_rank": 1, "autobackg": 0, "xrel_adj": 0.0, "auto_black_lvl": 1, "base_wnd": 100.0, "sub_baseline": 0, "xconv": 2, "auto_max_exp": 1000.0, "auto_total_exp": 10000.0, "auto_exp": 0, "rmripple": 0, "black_lvl": 8263.4, "shutter_clip_adj": 0.0, "auto_bckg": 0, "flat_auto_thr": 0.9, "subbackg": 1}
316.8218498245369 18487.46375013609
317.89969571804795 18294.787047065918
318.977263876126 18355.017777064604
320.05455438786703 18199.35854767982
321.1315673423287 18213.43909561674
322.2083028285215 18337.65811753298
323.2847609354267 18219.15918141415
324.3609417519747 18135.69447825058
325.43684536705587 18053.598085352703
326.5124718695279 18066.4765693717
327.58782134820103 18002.147376943696
328.66289389184385 17983.926160040293
329.7376895891921 17818.670452900966
330.8122085289342 17773.097817506954
331.88645079971866 17703.62809492732
332.9604164901575 17624.006564799303
334.03410568881554 17450.950420393692
335.1075184842266 17608.69478630747
336.18065496487543 17384.988457725172
337.2535152192122 17287.208801980854
338.32609933564163 17316.891279255862
339.39840740253203 17129.79852491343
340.4704395082099 17187.672722381605
341.5421957409617 17059.586072219572
342.6136761890357 17078.150438412536
343.6848809406365 16957.206007093606
344.75581008392874 16879.829548501322
345.82646370703696 16834.956121508174
346.8968418980512 16835.139874314198
347.96694474501055 16883.58298949383
349.0367723359268 16786.124408851938
350.106324758759 16777.05900956074
351.1756021014353 16622.091447561248
352.2446044518383 16721.31905983676
353.31333189781435 16734.795988279133
354.38178452716966 16640.74863599263
355.449962427665 16655.091254778243
356.51786568702846 16526.588315941623
357.58549439294256 16654.163672500352
358.6528486330535 16569.105421673175
359.71992849496564 16460.16422760252
360.7867340662433 16582.694637280823
361.8532654344144 16433.249508849825
362.9195226869597 16447.71984395781
363.9855059113288 16415.4991758429
365.05121519492604 16327.020242343953
366.11665062511565 16347.237172472838
367.1818122892273 16359.092249237478
368.2467002745434 16379.088761469957
369.31131466831175 16309.215404854735
370.375655557742 16399.69131431547
371.4397230299983 16378.375186105102
372.5035171722102 16330.020858133066
373.5670380714637 16262.06947750912
374.6302858148101 16419.141993357305
375.6932604892554 16284.693372733915
376.7559621817709 16277.4215845193
377.81839097928605 16184.951652923573
378.8805469686886 16155.241980163808
379.94243023683157 16233.39838382176
381.0040408705263 16194.386752695607
382.0653789565458 15976.484098064937
383.1264445816196 16078.20852549052
384.1872378324406 16032.102351219171
385.2477587956637 16002.813380198571
386.3080075579037 15902.02432768688
387.3679842057336 15809.20213775507
388.4276888256918 15845.22947020175
389.48712150426945 15820.750280007258
390.54628232792857 15699.693611873934
391.6051713830857 15783.769484934799
392.66378875611736 15703.814844255834
393.7221345333637 15645.192624681085
394.7802088011249 15558.734819843361
395.838011645661 15664.656651444171
396.89554315319765 15536.471416062568
397.9528034099112 15463.874135881308
399.00979250194723 15373.257572462007
400.06651051541485 15404.992562574695
401.1229575363741 15431.417229671846
402.17913365085224 15313.647330867989
403.23503894483656 15341.892474181626
404.2906735042761 15263.888577254716
405.3460374150818 15116.681865971714
406.401130763119 15154.94682193957
407.455953634224 15181.016967854148
408.5105061141876 15067.179487527896
409.56478828876243 14907.928376362965
410.6188002436629 14964.110064654955
411.6725420645689 14940.044894615445
412.72601383711117 14950.293790174168
413.77921564689314 14972.22669075052
414.8321475794728 14882.345545750995
415.88480972036814 14877.53642541436
416.93720215506437 14826.840833519465
417.9893249690049 14788.428196985635
419.04117824759123 14690.533673573247
420.09276207619223 14639.815295794662
421.144076540133 14652.76222099652
422.1951217247042 14662.168842999183
423.24589771515275 14632.623691188095
424.2964045966928 14534.486733886393
425.34664245449494 14566.290293881912
426.3966113736933 14514.616836006899
427.4463114393875 14404.361296146051
428.49574273662984 14389.150716153521
429.5449053504417 14365.80850341317
430.5937993658026 14446.25424136355
431.6424248676558 14294.712467165878
432.6907819409007 14325.089053480517
433.73887067040596 14310.935099535136
434.7866911409965 14333.80938364172
435.8342434374608 14363.443866601297
436.88152764455117 14208.517174526689
437.9285438469724 14261.166144384744
438.9752921294057 14156.669449142792
440.02177257648145 14174.124445914485
441.06798527279716 14050.078228750557
442.1139303029122 14196.352168139634
443.1596077513459 14131.265740207004
444.2050177025794 14086.118237533767
445.25016024105753 14157.603117663559
446.2950354511886 14086.14210799296
447.33964341733736 14165.342898864528
448.383984223834 14036.574691022231
449.4280579549686 14033.050264855274
450.471864694995 14023.000565813127
451.5154045281306 14031.863188535246
452.5586775385509 14031.225430788958
453.60168381039693 14026.746170730588
454.64442342776783 14110.997883832442
455.6868964747264 14003.07973493789
456.7291030353008 13913.971000378146
457.77104319347563 13999.87573270017
458.8127170332027 13924.403509124275
459.854124638392 14030.072294824617
460.895266092919 14041.531891065795
461.93614148061897 14034.076956703904
462.97675088529104 14124.043143738838
464.01709439069236 14038.343189092895
465.0571720805492 14066.10696456462
466.0969840385442 14099.421101126296
467.1365303483253 14215.702832993984
468.17581109350067 14065.067455063929
469.2148263576437 14023.522562991126
470.2535762242878 14132.315637237149
471.29206077693016 14244.093401496353
472.33028009902773 14263.42431446976
473.3682342740012 14284.958762394794
474.40592338523857 14237.876136239496
475.4433475160804 14328.113206225156
476.4805067498364 14360.442846831065
477.51740116978 14393.100605099195
478.5540308591426 14503.747739905486
479.59039590112116 14686.946691135527
480.6264963788726 14636.056321771961
481.6623323755193 14875.928185876424
482.6979039741436 14931.7638508907
483.7332112577915 15172.98024048954
484.76825430947247 15296.958314007885
485.80303321215797 15350.683568396873
486.837548048783 15522.838002443043
487.8717989022425 15651.852235045773
488.90578585539697 15685.938287170287
489.9395089910686 15920.275494324562
490.97296839203955 15770.233953233128
492.00616414106116 15626.89938062949
493.0390963208429 15648.117527608327
494.0717650140559 15613.553155322094
495.10417030333883 15440.850804060605
496.1363122712901 15425.038133489823
497.16819100046814 15144.966709054712
498.1998065734024 15002.710993765726
499.2311590725767 14893.921378895679
500.26224858044407 14703.201698922267
501.2930751794156 14516.336895371287
502.3236389518679 14491.30379183526
503.35393998014115 14302.258420058035
504.38397834653733 14250.863582383749
505.4137541333221 14208.237638797562
506.4432674227228 14031.424037957422
507.4725182969323 14035.165199971987
508.5015068381035 13973.941045214224
509.53023312835467 13904.690778198721
510.55869724976765 13830.16921342014
511.58689928438434 13697.078217656177
512.6148393142121 13761.168450905996
513.6425174212218 13774.449193735887
514.6699336873462 13728.290743221656
515.6970881944835 13748.62156419345
516.7239810244901 13654.566861069572
517.7506122591931 13625.954848523796
518.7769819803761 13653.23978861661
519.8030902697901 13642.262336090906
520.8289372091476 13655.97302537825
521.8545228801249 13727.737434562503
522.8798473643619 13531.558866681135
523.9049107434621 13549.50858159309
524.9297130989908 13649.042410368085
525.9542545124805 13574.336870905032
526.9785350654201 13564.584531171655
528.0025548392696 13541.304638157997
529.0263139154504 13434.588505706106
530.0498123753423 13455.245259554602
531.073050300296 13430.62343123597
532.0960277716204 13344.936144087715
533.1187448705896 13412.938736183776
534.1412016784416 13360.879761195252
535.1633982763833 13392.53693708403
536.1853347455726 13382.517184457238
537.2070111671401 13302.720081475145
538.2284276221817 13300.420677594342
539.2495841917516 13289.413542082784
540.2704809568677 13292.633477851045
541.2911179985167 13399.207337980803
542.3114953976419 13323.222809852965
543.3316132351592 13325.244628865254
544.3514715919409 13287.147212370193
545.3710705488247 13336.062661885673
546.3904101866156 13399.701836454467
547.4094905860784 13483.285536105052
548.4283118279418 13426.08158642141
549.4468739929034 13527.21459318909
550.4651771616191 13542.115396007945
551.4832214147063 13381.743951147291
552.501006832761 13573.318905499978
553.5185334963226 13510.899190738946
554.5358014859103 13605.922463230363
555.5528108820035 13572.577689994974
556.5695617650363 13577.824976300175
557.5860542154242 13589.73553495762
558.6022883135283 13469.189646313967
559.6182641396881 13452.739017352258
560.6339817741991 13426.00200930667
561.6494412973225 13405.681562195829
562.6646427892883 13571.66842257084
563.6795863302796 13350.802491995957
564.694272000459 13293.50500475187
565.7086998799423 13363.847778058494
566.7228700488104 13279.043607240354
567.7367825871115 13229.729850364083
568.7504375748576 13223.389506790074
569.7638350920224 13137.4794324101
570.7769752185486 13170.733933437426
571.7898580343353 13137.64895617716
572.802483619258 13058.526195206035
573.8148520531431 13230.411767343952
574.8269634157932 13266.42019548869
575.8388177869692 13177.556293636128
576.8504152463938 13234.89575231913
577.8617558737587 13270.524563377296
578.8728397487175 13336.569248855556
579.883666950891 13305.561006721047
580.8942375598654 13437.732861818082
581.9045516551851 13503.32673940245
582.9146093163617 13695.821600853411
583.924410622878 13541.404389290823
584.9339556541727 13561.275342178886
585.9432444896538 13672.556210232398
586.9522772086875 13549.049186569242
587.9610538906127 13625.187902884962
588.9695746147318 13545.75002328805
589.9778394603054 13533.694729169103
590.985848506567 13381.13466014461
591.9936018327098 13345.775656326947
593.0010995178891 13095.885165218957
594.0083416412344 13212.076069022656
595.0153282818283 13032.169544370567
596.0220595187293 12990.56461414006
597.0285354309508 12860.011283380249
598.0347560974806 12857.960868427384
599.0407215972609 12752.08994040827
600.0464320092051 12737.028109494557
601.0518874121954 12758.738738436798
602.0570878850685 12732.519334577419
603.062033506636 12695.878360517247
604.0667243556636 12734.137938262651
605.0711605108936 12617.522761563212
606.0753420510264 12745.366222600032
607.0792690547278 12674.223440414313
608.082941600629 12646.59591190513
609.0863597673306 12764.353866567304
610.0895236333909 12839.25866109777
611.0924332773357 12943.26841174969
612.0950887776617 12938.88139699955
613.0974902128219 13056.750294018231
614.0996376612384 13223.73878738191
615.1015312013005 13394.017849388993
616.1031709113595 13445.153657824627
617.1045568697336 13481.923077257452
618.1056891547069 13689.606496108163
619.1065678445229 13891.224702946343
620.1071930173985 14157.032128007053
621.1075647515099 14162.380303677095
622.1076831250048 14257.920256345082
623.1075482159849 14429.015301518806
624.1071601025305 14528.15728175186
625.1065188626781 14548.553954153514
626.105624574433 14790.502645326205
627.1044773157682 14871.007104259788
628.1030771646128 14844.961821331482
629.1014241988742 14988.20802536252
630.0995184964158 15123.27205066866
631.0973601350688 15195.371925451112
632.0949491926294 15328.145106191081
633.0922857468631 15189.78582018851
634.089369875499 15297.771602813906
635.0862016562278 15362.59894291718
636.0827811667077 15185.341374923748
637.0791084845641 15256.35080805924
638.0751836873878 15035.978987751523
639.0710068527369 15183.177151808302
640.0665780581294 14982.560255322236
641.0618973810506 14747.822735484859
642.0569648989604 14774.329196289598
643.0517806892676 14529.64504821503
644.0463448293649 14485.48057973378
645.040657396592 14318.124074412288
646.0347184682723 14166.18035713588
647.0285281216875 13905.518438037736
648.0220864340772 13883.125969655724
649.0153934826558 13679.330217951874
650.0084493446047 13630.946825173329
651.0012540970674 13499.654810532593
651.9938078171526 13347.070297969956
652.9861105819346 13284.022266277743
653.9781624684565 13328.28503246556
654.9699635537254 13012.937025068646
655.9615139147136 13071.015776471226
656.9528136283589 12865.134344185566
657.9438627715699 13078.180100912517
658.9346614212154 12877.84600916466
659.925209654135 12620.88711438912
660.9155075471263 12635.935710409485
661.9055551769616 12640.11948333848
662.895352620375 12716.073903031445
663.8848999540678 12537.491640668739
664.8741972547068 12342.887990341835
665.863244598926 12411.359775358433
666.8520420633213 12473.29839756282
667.8405897244611 12215.034120469674
668.8288876588758 12130.077383258393
669.8169359430613 12214.221893376223
670.8047346534822 12172.908221430702
671.7922838665672 12034.543683591397
672.7795836587156 12037.769011087603
673.766634106285 12144.545981008463
674.7534352856092 12038.69870885944
675.7399872729766 11945.177654050529
676.7262901446538 11974.703165209441
677.712343976862 11955.850405365234
678.6981488457986 12043.124134897495
679.6837048276229 11979.910308841807
680.6690119984596 11856.355467059622
681.6540704344043 11867.011775607847
682.6388802115107 11849.730308389788
683.6234414058108 11896.727271941178
684.6077540932874 11796.309043730513
685.591818349907 11858.699847573884
686.575634251587 11822.908729296594
687.5592018742263 11786.242806543041
688.5425212936734 11637.3760762329
689.5255925857564 11858.515163554704
690.5084158262707 11789.774653893835
691.4909910909646 11745.547829068786
692.4733184555644 11705.489221231179
693.4553979957618 11874.498125328977
694.4372297872123 11867.950974105694
695.4188139055404 11877.147843457687
696.4001504263324 11788.6702353057
697.3812394251509 11909.316445817161
698.3620809775111 11912.845041153476
699.3426751589104 11886.640661204201
700.3230220448004 11903.846897267116
701.3031217106054 11941.049449765438
702.2829742317172 12195.146068061089
703.2625796834873 11905.923848582748
704.2419381412474 11973.911315523977
705.22104968028 12089.177247082767
706.1999143758458 12044.288421734685
707.178532303169 12013.134388193546
708.1569035374378 12200.356527250398
709.1350281538107 12283.313756395493
710.1129062274158 12403.958516737799
711.0905378333373 12620.943650085343
712.0679230466376 12801.260173026943
713.0450619423427 13027.865564150812
714.0219545954424 13336.685142549884
714.9986010808989 13410.817870522802
715.9750014736292 13896.371105369068
716.9511558485392 14227.996619569638
717.9270642804786 14605.21009368638
718.9027268442787 14838.86127655051
719.8781436147328 15014.77232265437
720.8533146666014 15099.856664712448
721.828240074612 15147.247864259212
722.8029199134635 15246.717973344357
723.7773542578125 15097.161781951285
724.751543182294 14945.891888120575
725.7254867615029 14881.049532474615
726.6991850700015 14508.286091522168
727.6726381823228 14541.865080162184
728.6458461729599 14550.270137086434
729.6188091163858 14487.398022342648
730.5915270870246 14472.387912405993
731.5640001592856 14540.679201027888
732.536228407529 14831.39104872261
733.5082119060917 14973.952749542232
734.4799507292755 15013.132164874192
735.4514449513481 15200.95294297006
736.4226946465496 15425.414656556284
737.3936998890786 15440.674412686447
738.3644607531078 15203.635393685025
739.3349773127793 15050.391469860504
740.3052496421951 14947.630507479384
741.27527781543 14553.253838823084
742.2450619065221 14160.734271839805
743.2146019894826 13778.334773234954
744.183898138288 13455.93805862501
745.1529504268801 13055.080027538024
746.1217589291682 12623.204022793834
747.0903237190341 12376.283378628457
748.058644870318 12186.427349021546
749.0267224568397 11889.58062175499
749.994556552374 11594.067112388811
750.9621472306771 11575.089476638588
751.9294945654583 11336.62411769786
752.8965986304011 11325.27188331824
753.8634594991636 11124.17949298877
754.8300772453586 11177.438625048539
755.7964519425768 11051.003674614114
756.762583664371 11102.320774231619
757.7284724842611 11017.85422940586
758.6941184757416 10948.615394137973
759.6595217122667 10939.045942507271
760.6246822672638 10882.25035306782
761.5896002141235 10768.42231212356
762.5542756262093 10831.774336441129
763.5187085768503 10874.18826781892
764.4828991393406 10793.55536738864
765.4468473869474 10760.722274987846
766.4105533929032 10733.1681867055
767.3740172304078 10733.444341755592
768.3372389726283 10769.640251490493
769.3002186926988 10629.630176661132
770.2629564637282 10622.295368625772
771.2254523587872 10552.076934938434
772.1877064509154 10514.069343789248
773.1497188131179 10394.970739589993
774.1114895183728 10343.75902770463
775.0730186396268 10372.341245921782
776.0343062497905 10289.402819465167
776.9953524217381 10260.872557804258
777.9561572283274 10318.497252733629
778.9167207423689 10304.151035649282
779.8770430366476 10176.726460350992
780.8371241839159 10233.200081784857
781.7969642568951 10242.819367820553
782.7565633282757 10422.906527305566
783.7159214707099 10267.651425058288
784.6750387568281 10224.354708812223
785.6339152592227 10214.459879133185
786.5925510504512 10213.911502186598
787.5509462030477 10298.771396989488
788.5091007895098 10184.876915907744
789.4670148823006 10201.952534500957
790.4246885538596 10206.162464990743
791.3821218765861 10179.760309799205
792.3393149228505 10075.207293147963
793.2962677649975 10198.643056341116
794.2529804753303 10251.950427884713
795.20945312613 10193.877947899426
796.1656857896378 10080.383845230015
797.1216785380675 10117.707565500867
798.0774314435985 10215.295293336683
799.0329445783846 10353.566461668393
799.9882180145414 10336.740199898697
800.9432518241574 10356.4972853995
801.89804607929 10372.756908424699
802.852600851962 10446.429804526131
803.8069162141637 10443.406766916489
804.760992237856 10461.455768587526
805.714828994971 10613.02069034528
806.6684265574077 10558.802221519793
807.6217849970271 10449.541956191459
808.574904385674 10460.301558457526
809.527784795142 10529.863402684186
810.4804262972102 10549.65627135173
811.4328289636178 10335.14403815546
812.3849928660748 10225.690111559948
813.3369180762638 10234.17582545385
814.2886046658241 10290.609846905545
815.2400527063783 10115.637344332148
816.1912622695108 10104.692557467702
817.1422334267718 10110.701353225331
818.0929662496856 10006.097899272423
819.0434608097457 9881.20174202994
819.9937171784059 9839.007319710396
820.9437354271013 9817.32782653562
821.8935156272255 9845.59850672153
822.8430578501484 9678.730374380075
823.7923621672016 9593.216915170498
824.7414286496896 9736.372075911777
825.6902573688876 9723.217871215613
826.6388483960363 9669.192645207651
827.5872018023492 9604.939424625474
828.5353176590033 9606.989656985947
829.4831960371503 9483.77867073221
830.4308370079016 9601.708034772877
831.3782406423525 9485.13540506507
832.3254070115545 9465.4697653472
833.2723361865319 9454.162484842704
834.2190282382799 9397.247402250978
835.1654832377644 9464.334543787478
836.1117012559116 9391.488747747699
837.0576823636256 9571.603165271434
838.003426631778 9321.382861474483
838.9489341312074 9339.453542514111
839.8942049327197 9443.426502246686
840.8392391070975 9480.875751991161
841.7840367250865 9413.012910035704
842.7285978573982 9273.98023321161
843.672922574724 9405.784012490873
844.6170109477152 9300.60343562976
845.560863046996 9298.500794883319
846.5044789431595 9267.999053029831
847.4478587067697 9325.521426368523
848.3910024083561 9426.957636077237
849.333910118421 9293.271407938872
850.2765819074339 9356.933699814215
851.2190178458332 9370.215757398164
852.161218004032 9369.734584240607
853.1031824524016 9313.984391749542
854.0449112612987 9243.74594243229
854.9864045010327 9424.94256707354
855.9276622418947 9254.45139212867
856.8686845541379 9303.891054312266
857.8094715079915 9301.002566058154
858.7500231736467 9402.23265656863
859.690339621271 9309.758975178633
860.6304209209939 9350.619819913058
861.5702671429244 9246.165638029564
862.5098783571284 9346.071015630852
863.4492546336569 9382.023826353976
864.3883960425155 9239.020513841122
865.3273026536863 9310.017610951998
866.2659745371238 9261.316761660359
867.2044117627465 9465.49106598152
868.1426144004472 9297.74021914682
869.0805825200823 9453.516497850096
870.0183161914847 9461.395174749543
870.9558154844526 9430.39377880985
871.8930804687552 9424.024700267204
872.8301112141307 9337.85743689789
873.7669077902865 9559.503741354765
874.7034702669062 9648.378708843464
875.6397987136315 9531.729474122092
876.5758932000863 9554.848143342488
877.5117537958522 9680.34599084315
878.4473805704911 9572.072063005651
879.3827735935283 9554.684692778605
880.3179329344603 9708.827478857529
881.2528586627541 9827.982640115664
882.1875508478479 9857.895030699645
883.1220095591489 9589.776613802776
884.0562348660296 9607.755906809904
884.9902268378391 9710.386199643308
885.9239855438955 9652.584696651204
886.8575110534839 9577.853322968174
887.7908034358588 9636.208010622639
888.7238627602474 9581.570835622968
889.6566890958475 9656.926161864418
890.5892825118208 9507.483638678992
891.5216430773125 9575.350988497436
892.4537708614189 9474.488411517194
893.3856659332196 9439.604297021408
894.3173283617652 9429.3821961695
895.2487582160684 9432.933046918044
896.179955565116 9324.385750943333
897.110920477864 9313.547170426555
898.0416530232451 9246.856212883
898.9721532701478 9311.214260044451
899.9024212874428 9376.636988521088
900.8324571439662 9160.421491577365
901.7622609085302 9207.312342168201
902.6918326499072 9116.020752130655
903.6211724368477 9205.2032186274
904.5502803380696 9299.166905495582
905.4791564222614 9345.927862571942
906.4078007580792 9239.516957082862
907.3362134141571 9176.858628086806
908.2643944590909 9354.979944956604
909.1923439614493 9165.912172004184
910.1200619897754 9209.958279063268
911.0475486125779 9383.090054395849
911.9748038983344 9231.373458646645
912.9018279155007 9160.713993861416
913.8286207324982 9152.360014178897
914.7551824177117 9233.127181492635
915.6815130395116 9248.932703508133
916.6076126662283 9091.875565554084
917.533481366163 9150.277822415901
918.4591192075914 9170.735852172304
919.3845262587565 9162.225097059538
920.3097025878706 9096.139715960486
921.2346482631237 8957.363898663703
922.1593633526682 9040.33361137852
923.0838479246304 9131.028307784178
924.0081020471061 9079.636582528225
924.9321257881656 8896.107096427595
925.8559192158464 8917.677016257167
926.7794823981512 8862.245956891416
927.7028154030686 8789.731029936698
928.6259182985414 8735.669502227607
929.5487911524906 8967.379930768384
930.4714340328119 8849.897555386397
931.3938470073608 8689.313373443709
932.3160301439748 8724.951477614242
933.2379835104548 8760.504254423453
934.1597071745709 8782.909737337517
935.0812012040769 8711.689958780808
936.002465666681 8802.163368921376
936.9235006300696 8806.93075262356
937.8443061619055 8817.758821675032
938.7648823298077 8614.32568776743
939.6852292013809 8636.248833391195
940.6053468441951 8694.597244448174
941.5252353257874 8678.604640371277
942.4448947136698 8735.635293839947
943.364325075323 8696.893107061438
944.2835264782043 8726.962523015052
945.2024989897309 8736.451669126891
946.1212426773054 8754.144822425982
947.0397576082851 8811.37613502085
947.9580438500125 8922.915398364745
948.8761014697939 8913.117920744973
949.7939305349064 8914.477347959839
950.7115311125999 8835.328425328345
951.6289032700952 8893.933398729141
952.5460470745875 8990.26556975643
953.4629625932339 8845.629961609928
954.3796498931715 8878.76481272122
955.2961090415029 8897.443913131217
956.2123401053068 8911.466804727375
957.1283431516276 8853.86072791123
958.0441182474842 8893.473058085237
958.9596654598663 8931.883057542056
959.8749848557309 8834.095427780241
960.7900765020167 8809.56437539753
961.7049404656209 8795.962904327418
962.6195768134185 8832.586576403279
963.5339856122537 8869.307307804038
964.4481669289453 8848.914443363585
965.3621208302793 8690.34008117799
966.2758473830145 8704.020526841892
967.1893466538822 8808.92787348305
968.1026187095813 8689.118010371474
969.0156636167867 8723.061048525447
969.9284814421426 8762.401231746864
970.8410722522622 8632.674417217911
971.753436113735 8576.79114914312
972.6655730931161 8519.814481564097
973.5774832569368 8662.427994417278
974.4891666716958 8430.53615609837
975.4006234038698 8497.261906844271
976.3118535198955 8427.7525521158
977.2228570861935 8522.386103867153
978.1336341691494 8574.46465582163
979.0441848351202 8388.302152635337
979.9545091504333 8562.851648490776
980.864607181391 8439.325619015704
981.7744789942699 8503.95592170158
982.6841246553086 8475.571465828667
983.5935442307236 8436.623884785506
984.5027377867027 8462.441354357517
985.4117053894024 8482.693001660395
986.3204471049557 8372.185130746362
987.2289629994648 8477.575635626647
988.1372531390007 8518.988722548209
989.0453175896091 8469.430174630641
989.9531564173067 8495.380686741079
990.860769688079 8386.343340914893
991.7681574678918 8424.81082529364
992.6753198226706 8509.676912695504
993.582256818323 8405.576605319327
994.4889685207218 8394.504274528872
995.3954549957143 8652.094768681973
996.301716309119 8581.04755815416
997.2077525267232 8505.88422706693
998.1135637142943 8490.08462916214
999.0191499375615 8595.275174825287
999.924511262232 8601.266096503168
1000.8296477539861 8613.767589181009
1001.7345594784656 8537.23779127985
1002.6392465012996 8561.519586148042
1003.5437088880753 8690.541859498917
1004.4479467043584 8546.6980537083
1005.3519600156869 8458.91955821962
1006.2557488875718 8575.79716217143
1007.1593133854858 8551.551959167258
1008.0626535748888 8478.456624438903
1008.9657695212009 8424.274503395498
1009.8686612898182 8680.329642969264
1010.7713289461135 8607.19324720426
1011.6737725554212 8469.85134252339
1012.5759921830577 8436.181168960464
1013.4779878943027 8444.371296084173
1014.379759754418 8484.34832888959
1015.2813078286254 8396.087321015906
1016.18263218213 8303.963984223501
1017.0837328801026 8461.875281043544
1017.9846099876886 8473.032208314715
1018.8852635700023 8228.601842218131
1019.7856936921362 8236.257228455299
1020.6859004191447 8411.349318555518
1021.5858838160675 8213.323563001826
1022.4856439479063 8127.155151875927
1023.3851808796389 8236.38574984965
1024.2844946762143 8314.639563562592
1025.183585402554 8207.633443836818
1026.082453123554 8003.285358973713
1026.9810979040776 8140.297415962579
1027.8795198089647 8059.587086474506
1028.777718903024 8238.484027135899
1029.6756952510368 8088.932832755464
1030.5734489177648 8115.134339943221
1031.4709799679313 8097.227690433554
1032.3682884662358 8285.046613093116
1033.2653744773506 8004.177060602815
1034.1622380659192 8006.663882779787
1035.058879296559 8151.647259198408
1035.9552982338591 8187.755892893474
1036.8514949423825 8220.81109572134
1037.7474694866614 8196.044409062784
1038.6432219312028 8158.031228058448
1039.5387523404825 8319.024592925172
1040.4340607789582 8298.286558721667
1041.3291473110476 8302.6504238236
1042.2240120011465 8480.145649480786
1043.1186549136273 8532.678587934042
1044.0130761128294 8522.361219633352
1044.9072756630649 8565.249969848206
1045.8012536286205 8712.392593698556
1046.6950100737577 8817.41656762626
1047.588545062701 8882.608881594624
1048.481858659663 8860.88919940344
1049.3749509288118 9072.42687220498
1050.2678219343034 9004.558585061002
1051.1604717402515 9075.12007068703
1052.0529004107575 8952.037155622567
1052.9451080098825 8987.419126836958
1053.8370946016694 8957.004194816518
1054.7288602501267 8984.780441439465
1055.6204050192446 8883.100201207611
1056.511728972977 8902.998098931293
1057.402832175254 8852.023814292352
1058.2937146899785 8724.599468221568
1059.1843765810263 8663.681384758236
1060.0748179122456 8721.969855473228
1060.9650387474576 8654.149005648893
1061.855039150456 8694.292589850269
1062.7448191850071 8626.885143784104
1063.6343789148505 8567.419822018875
1064.5237184037014 8732.89920321877
1065.412837715241 8478.919471351732
1066.3017369131267 8450.7954598317
1067.190416060992 8341.928975048668
1068.0788752224398 8311.163949409658
1068.9671144610438 8295.909854974361
1069.8551338403558 8345.642265616541
1070.7429334239023 8297.770756654132
1071.6305132751695 8210.987570904628
1072.517873457633 8268.529899681205
1073.4050140347335 8182.184317175888
1074.2919350698776 8267.049628019711
1075.1786366264623 8178.324932588548
1076.0651187678395 8194.334394556707
1076.95138155735 8105.977640359587
1077.8374250582929 8193.560485337512
1078.7232493339507 8256.53171298149
1079.608854447577 8167.160197862953
1080.4942404623907 8176.561879815988
1081.3794074415982 8286.546908802167
1082.2643554483657 8306.437555598382
1083.149084545841 8161.032016090858
1084.033594797138 8252.037544442783
1084.9178862653516 8338.964328719174
1085.8019590135427 8449.875437965715
1086.6858131047484 8308.99303460771
1087.5694486019802 8417.106627658108
1088.4528655682225 8447.149204536407
1089.3360640664287 8647.832193275955
1090.2190441595321 8530.429143755195
1091.1018059104317 8603.787580189197
1091.98434938201 8617.77004555073
1092.866674637111 8750.66965405483
1093.748781738559 8702.63873310445
1094.6306707491512 8499.886716098998
1095.5123417316554 8710.624646375913
1096.3937947488157 8638.715683698147
1097.2750298633455 8633.284196344704
1098.156047137938 8491.625793478792
1099.0368466352556 8624.67984605645
1099.9174284179317 8723.257898755097
1100.7977925485757 8398.630811372464
1101.6779390897755 8442.515510903511
1102.5578681040806 8427.281900662532
1103.4375796540226 8353.797792269812
1104.3170738021054 8228.987103147021
1105.1963506108077 8244.648864196077
1106.0754101425773 8165.541153187568
1106.9542524598382 8139.777453482721
1107.8328776249855 8108.690942158876
1108.7112857003904 8023.79371116039
1109.5894767483987 7906.218532420981
1110.4674508313292 8172.917270300296
1111.3452080114657 7875.622751315616
1112.2227483510815 7997.436800611943
1113.1000719124077 7938.36317260518
1113.9771787576592 8036.405592909721
1114.854068949022 7900.116340488907
1115.7307425486542 7938.862464253909
1116.6071996186893 7970.521125799642
1117.483440221229 8253.020828535024
1118.3594644183577 8004.91131857578
1119.235272272128 8000.6181968452165
1120.1108638445658 8103.034018043269
1120.9862391976712 8223.695191869694
1121.8613983934229 8287.91674693978
1122.7363414937627 8241.864826973073
1123.6110685606182 8254.522827046063
1124.485579655884 8512.091470031743
1125.359874841426 8395.667127093617
1126.2339541790916 8410.845135021864
1127.1078177306936 8573.297496124203
1127.9814655580267 8466.722288836952
1128.854897722851 8507.056160733437
1129.7281142869106 8512.437272707039
1130.6011153119125 8558.788970583166
1131.473900859548 8714.880244021877
1132.3464709914697 8481.687832533562
1133.2188257693178 8487.26938480393
1134.0909652546961 8479.573899574843
1134.96288950919 8401.88347831483
1135.8345985943506 8445.189328382152
1136.7060925717087 8283.339890006
1137.57737150277 8337.676261660368
1138.4484354490069 8393.563870913293
1139.3192844718778 8146.203202231727
1140.1899186327992 8004.285808534788
1141.060337993178 8154.041848704082
1141.930542614382 8073.651141200302
1142.8005325577597 7889.902052929126
1143.670307884635 7894.308527892528
1144.5398686563003 8067.746052029722
1145.409214934025 7936.335728257247
1146.2783467790541 7721.742819127343
1147.1472642526023 7739.40129877292
1148.0159674158622 7891.315730253502
1148.8844563300026 7695.920509321435
1149.7527310561618 7791.818572065562
1150.6207916554504 7603.887660820255
1151.4886381889592 7642.112951274478
1152.3562707177498 7765.060237240749
1153.2236893028585 7618.422435124216
1154.090894005296 7575.140379782203
1154.9578848860474 7654.631786097578
1155.8246620060709 7605.714284759376
1156.6912254262988 7558.3596343897025
1157.5575752076438 7479.909304646278
1158.42371141098 7728.269951334705
1159.2896340971656 7695.289817674425
1160.1553433270346 7461.546006682608
1161.0208391613887 7537.775415537658
1161.8861216610057 7518.599163393973
1162.75119088664 7550.671791660503
1163.6160468990201 7466.612714021122
1164.4806897588442 7410.171999629332
1165.3451195267917 7525.16309012306
1166.2093362635114 7474.281344613177
1167.0733400296285 7461.066522089575
1167.9371308857444 7403.465471597529
1168.8007088924278 7409.956522844537
1169.6640741102328 7410.933258278936
1170.5272265996773 7285.81953947828
1171.390166421259 7310.126027085571
1172.252893635452 7361.906883433027
1173.1154083026995 7534.66815438013
1173.977710483421 7431.145624569988
1174.8398002380145 7341.721185094914
1175.7016776268483 7444.281182143175
1176.563342710264 7477.303920791272
1177.4247955485826 7372.774226170537
1178.2860362020947 7534.529874101536
1179.147064731069 7386.249243381669
1180.0078811957483 7523.496053482855
1180.8684856563486 7412.110096238883
1181.7288781730604 7484.948262226625
1182.589058806052 7626.630119922513
1183.4490276154593 7692.572126973049
1184.3087846614017 7490.491571381783
1185.1683300039676 7595.896163554606
1186.027663703222 7761.020566029739
1186.8867858192025 7638.1555057939595
1187.7456964119228 7646.776270714843
1188.6043955413716 7674.3302026450565
1189.4628832675116 7786.574564465127
1190.3211596502842 7851.906100297341
1191.179224749596 7895.7691738542635
1192.0370786253388 7795.558538830788
1192.8947213373758 7977.637543133775
1193.7521529455407 8111.154406224933
1194.6093735096438 7847.740915248585
1195.466383089477 7939.650961371901
1196.3231817447977 7969.408756388756
1197.1797695353398 8123.1165760630565
1198.0361465208189 7853.09521298688
1198.8923127609214 7836.438783767304
1199.7482683153048 8039.943593746703
1200.6040132436028 8074.319835789471
1201.459547605431 7878.863889801042
1202.3148714603722 7903.960952115085
1203.1699848679855 7974.850976287834
1204.0248878878065 8020.67492781767
1204.8795805793507 7761.400564820028
1205.7340630020935 7837.367172380631
1206.5883352155033 7875.931431096578
1207.4423972790064 7989.771275559909
1208.2962492520237 7695.388538669368
1209.1498911939307 7690.271986052445
1210.0033231640937 7727.186655972582
1210.8565452218427 7712.827761844412
1211.7095574264913 7488.333680135931
1212.5623598373222 7485.674389382933
1213.4149525135963 7400.5799430949355
1214.2673355145507 7501.498681991749
1215.1195088993936 7293.079075268101
1215.9714727273113 7377.9916530607825
1216.8232270574663 7468.283245284454
1217.6747719489904 7290.26165009563
1218.5261074609934 7254.417748061594
1219.3772336525653 7328.678896607814
1220.2281505827668 7353.829387936721
1221.0788583106296 7378.8589375202355
1221.9293568951707 7110.467744167935
1222.7796463953746 7116.459305244694
1223.629726870202 7250.110078890097
1224.4795983785934 7235.854927610519
1225.3292609794553 7079.763044182027
1226.1787147316809 7140.595922906492
1227.0279596941327 7196.441475514599
1227.8769959256424 7291.83442957512
1228.7258234850306 7095.528926414925
1229.5744424310833 6979.378649308489
1230.422852822563 7192.2311989097125
1231.2710547182105 7227.944388341306
1232.119048176739 7058.554962060092
1232.9668332568417 6970.601854023609
1233.8144100171812 7172.196157475558
1234.6617785163999 7175.28092739768
1235.508938813111 6962.299442002359
1236.3558909659114 7005.816537761059
1237.2026350333617 7152.957564517294
1238.049171074008 7258.742477478676
1238.8954991463652 7018.576930514534
1239.741619308932 7099.214268084992
1240.587531620169 5925.829823379418
1241.4332361385277 7200.9197126908475
1242.2787329224248 7056.622331232796
1243.1240220302534 6999.875411886054
1243.9691035203869 6962.032390645681
1244.813977451171 7258.686322143624
1245.6586438809263 7096.167318153627
1246.5031028679496 6949.075407459818
1247.3473544705157 7165.730413988937
1248.1913987468706 7224.27916323894
1249.0352357552383 6984.372384604829
1249.8788655538228 7174.585988253358
1250.7222882007918 7264.962119032398
1251.565503754302 7267.394001953298
1252.4085122724755 7121.783545151469
1253.2513138134182 7283.05437894622
1254.0939084352049 7303.952381354536
1254.9362961958905 7288.821406938914
1255.7784771535007 7281.808183768944
1256.6204513660432 7381.644111716712
1257.4622188915 7516.5720919132145
1258.3037797878242 7374.332708439458
1259.1451341129468 7284.861954137961
1259.9862819247755 7438.31750930975
1260.8272232811978 7438.814615248161
1261.6679582400666 7511.746222853808
1262.5084868592203 7424.763566648519
1263.34880919647 7433.931042938672
1264.1889253095997 7527.215663523964
1265.0288352563712 7650.200044510564
1265.8685390945266 7444.454974961909
1266.7080368817751 7514.01898664131
1267.5473286758115 7604.015864982977
1268.386414534294 7508.968434874618
1269.2252945148703 7285.659771830191
1270.0639686751547 7421.529738253186
1270.9024370727402 7410.014825028671
1271.7406997651997 7432.290743237235
1272.5787568100714 7301.712118264963
1273.4166082648808 7312.623890723194
1274.2542541871244 7479.361541874244
1275.091694634275 7616.347395668874
1275.9289296637817 7305.082340898911
1276.7659593330663 7494.349015061263
1277.6027836995308 7398.800407589933
1278.4394028205552 7501.549100539318
1279.2758167534867 7463.733751377998
1280.112025555658 7396.572878342112
1280.9480292843746 7487.869523075705
1281.7838279969128 7288.306376010454
1282.6194217505326 7343.610092908455
1283.4548106024686 7270.544706267273
1284.289994609926 7413.649294870762
1285.1249738300921 7591.721747115482
1285.959748320127 7463.78362046774
1286.7943181371702 7477.386047559108
1287.6286833383328 7533.661315333482
1288.4628439807038 7653.723753462675
1289.2968001213521 7493.283789543124
1290.1305518173194 7651.2201101816245
1290.9640991256183 7729.3351006150815
1291.7974421032523 7691.028595473431
1292.630580807183 7636.794378815788
1293.463515294361 7869.854488976269
1294.29624562171 7914.569041469865
1295.12877184613 7969.216561888372
1295.961094024493 7884.737714677676
1296.79321221365 7918.173812812092
1297.6251264704333 8130.205009208049
1298.4568368516466 8300.534722116805
1299.2883434140658 8263.120762088816
1300.1196462144526 8164.663320856094
1300.9507453095375 8240.318929920095
1301.7816407560313 8497.530893171233
1302.6123326106172 8326.579133498726
1303.4428209299622 8331.548320192318
1304.2731057707024 8629.00726357216
1305.1031871894502 8534.457969929634
1305.933065242798 8575.925658605895
1306.7627399873181 8499.406686929367
1307.5922114795467 8805.702695213817
1308.4214797760123 8811.015514259354
1309.2505449332057 8772.512718606034
1310.0794070076026 8850.557927038346
1310.9080660556538 9074.519081118931
1311.736522133786 9072.569629830363
1312.5647752983987 8899.492691138212
1313.3928256058734 8773.761075248443
1314.2206731125661 9048.403251220767
1315.048317874809 9051.885968265138
1315.8757599489109 8979.795766727448
1316.7029993911547 8955.039695363632
1317.5300362578055 9143.347391621131
1318.356870605101 8992.559253311718
1319.183502489257 8845.225893621397
1320.0099319664623 9040.375425464043
1320.836159092889 9052.282316779076
1321.66218392468 9100.454512926171
1322.4880065179532 8917.699675230511
1323.3136269288134 8894.281391427316
1324.1390452133292 8998.069217903674
1324.9642614275563 8964.322104885618
1325.7892756275214 8744.16273243644
1326.6140878692295 8656.48198049744
1327.4386982086617 9002.46441285215
1328.2631067017755 8692.712714756033
1329.0873134045069 8656.395816411303
1329.911318372764 8446.21484306064
1330.735121662441 8569.928063802437
1331.558723329399 8319.64230404764
1332.3821234294774 8228.562053381826
1333.2053220185007 8258.165656815048
1334.0283191522612 8056.880173531228
1334.851114886529 8179.252073219858
1335.6737092770582 7886.903304449831
1336.4961023795695 7765.484473483091
1337.3182942497697 7779.8984499447615
1338.1402849433325 7783.225370902292
1338.962074515921 7480.373860889666
1339.7836630231632 7456.575517824361
1340.6050505206676 7682.503860687217
1341.426237064028 7567.153048862466
1342.2472227088037 7382.431626277005
1343.0680075105338 7158.137299887862
1343.888591524741 7377.891594989963
1344.7089748069138 7416.748667391801
1345.5291574125276 7149.416043578805
1346.3491393970307 6994.180376916959
1347.168920815846 7205.586380041568
1347.9885017243778 7178.35119903429
1348.8078821780036 7009.620960060162
1349.6270622320844 6989.292485921697
1350.4460419419447 7088.043813530276
1351.2648213629054 6967.577658042191
1352.0834005502438 6817.211402498348
1352.90177955923 6877.43246114873
1353.7199584451064 6947.767919701165
1354.5379372630887 6936.351098094672
1355.355716068374 6875.979978171972
1356.1732949161305 6725.221871311452
1356.9906738615155 6838.907186537219
1357.8078529596478 6840.854677883435
1358.6248322656375 6793.1910408919985
1359.441611834567 6765.057274869949
1360.2581917214866 6718.08598500987
1361.0745719814367 6560.572299755606
1361.890752669433 6598.679904236744
1362.7067338404577 6643.082687602499
1363.5225155494845 6773.432886116259
1364.3380978514506 6848.352770796341
1365.1534808012839 6592.22613136992
1365.9686644538815 6566.7102778405515
1366.783648864117 6822.205408538239
1367.5984340868417 6780.575856141217
1368.413020176893 6729.650449771953
1369.2274071890715 6489.414273022794
1370.0415951781652 6692.140266231273
1370.8555841989346 6689.65868666757
1371.6693743061223 6514.560954674216
1372.48296555444 6412.473105739204
1373.2963579985844 6667.450074043039
1374.1095516932255 6698.335641476324
1374.9225466930166 6410.44267640113
1375.7353430525782 6641.292796560154
1376.5479408265164 6505.275437473019
1377.36034006941 6692.785129938762
1378.1725408358216 6649.196688242411
1378.9845431802805 6473.516874322791
1379.796347157304 6783.9337674631
1380.6079528213813 6687.881348806186
1381.4193602269788 6482.43251730913
1382.230569428546 6518.966306211292
1383.0415804805016 6748.59430853445
1383.852393437246 6798.710627320771
1384.6630083531563 6723.262563983502
1385.4734252825892 6557.42076235025
1386.2836442798798 6697.70203658107
1387.0936653993322 6720.242955723057
1387.9034886952395 6593.0914206759235
1388.713114221864 6726.764974602226
1389.5225420334482 6759.190523132687
1390.331772184214 6682.121814553175
1391.1408047283585 6684.675927786678
1391.9496397200564 6726.490128354523
1392.758277213461 6874.012883836103
1393.5667172627054 6922.751470005731
1394.3749599218918 6697.046554949389
1395.1830052451114 6650.949817308729
1395.9908532864265 6748.488096751958
1396.7985040998774 6893.603435668822
1397.6059577394808 6693.760379000128
1398.4132142592352 6719.974456271947
1399.2202737131156 6685.197111450529
1400.027136155073 6913.8435486498465
1400.8338016390353 6568.3730240527075
1401.6402702189134 6564.615297186918
1402.446541948586 6679.796713417316
1403.2526168819204 6626.501740251541
1404.058495072757 6565.070858525102
1404.8641765749107 6534.431030059723
1405.6696614421799 6630.817491555278
1406.4749497283356 6900.155395776928
1407.280041487129 6472.201201517463
1408.084936772295 6468.562964047825
1408.8896356375335 6675.701759532989
1409.6941381365323 6563.642165323169
1410.498444322955 6303.001493084327
1411.3025542504402 6488.634509240719
1412.106467972606 6567.798555953373
1412.9101855430508 6466.075454856013
1413.7137070153458 6274.121289230647
1414.5170324430437 6417.423780122959
1415.320161879672 6525.670630888047
1416.1230953787435 6674.732771840436
1416.925832993742 6308.447710326531
1417.7283747781275 6295.239142666214
1418.5307207853439 6392.373050750977
1419.3328710688093 6470.79125946154
1420.134825681922 6373.924060550506
1420.9365846780584 6388.53125665763
1421.7381481105713 6640.9313502517425
1422.539516032788 6506.650302717428
1423.3406884980232 6556.963532005904
1424.1416655595604 6538.046328049046
1424.942447270665 6653.990855714581
1425.7430336845828 6806.403961602034
1426.5434248545298 6689.337749306191
1427.3436208337116 6785.946728318877
1428.143621675301 6911.734138962331
1428.9434274324558 7162.62350488287
1429.7430381583108 6875.750209582859
1430.5424539059713 6979.551911472112
1431.3416747285337 7323.595026670111
1432.1407006790632 7307.865823791927
1432.9395318106053 7211.5771134672705
1433.7381681761835 7136.994222656225
1434.5366098288014 7321.648434937668
1435.3348568214424 7306.473987367722
1436.1329092070573 7133.276567841851
1436.9307670385879 7224.469250775355
1437.7284303689503 7411.525598896961
1438.5258992510335 7308.115766707709
1439.3231737377118 7213.820038830892
1440.1202538818306 7184.945262115271
1440.9171397362225 7214.334694190312
1441.7138313536925 7252.567781550572
1442.5103287870243 7016.239946940647
1443.3066320889775 7024.245256453852
1444.1027413122956 7188.719750783655
1444.8986565096966 6996.956430034891
1445.694377733882 6872.61901586389
1446.4899050375207 6693.2240984849295
1447.2852384732687 6744.913159884127
1448.0803780937622 6817.593538524522
1448.8753239516063 6616.49176411401
1449.6700760993954 6504.521214838178
1450.464634589689 6588.476802112344
1451.2589994750397 6808.374256506223
1452.0531708079689 6446.7421100254405
1452.8471486409799 6359.127910333786
1453.6409330265524 6599.841590599787
1454.4345240171442 6370.504181703327
1455.2279216651987 6242.579972256925
1456.0211260231263 6309.499621857398
1456.8141371433194 6668.999174747191
1457.6069550781594 6573.072256205361
1458.3995798799897 6236.439867370989
1459.1920116011424 6249.28816668804
1459.98425029393 6238.91932717883
1460.7762960106338 6227.297397194122
1461.5681488035225 6283.022461597129
1462.3598087248392 6265.921811140304
1463.1512758268036 6441.464405767608
1463.942550161617 6184.695017625771
1464.7336317814625 6124.088168551452
1465.524520738496 6087.32971269984
1466.3152170848552 6068.050921030361
1467.1057208726506 6107.15795654731
1467.8960321539817 5905.290935632793
1468.6861509809169 5817.642902716052
1469.4760774055085 5810.992124991777
1470.265811479785 5925.855793597473
1471.055353255755 5833.099639834809
1471.844702785409 5642.191553482351
1472.6338601207044 5764.913689151057
1473.4228253135934 5815.741687510253
1474.2115984159936 5579.8412078298825
1475.0001794798063 5466.84345610449
1475.7885685569145 5742.657395657212
1476.576765699172 5639.09698330904
1477.3647709584238 5538.440120385228
1478.1525843864802 5704.4417310208155
1478.9402060351367 5562.70495200397
1479.7276359561693 5514.850289323074
1480.514874201328 5443.02109761496
1481.3019208223468 5373.795987252727
1482.0887758709323 5343.356197107084
1482.8754393987747 5468.288158818474
1483.6619114575406 5260.435052012655
1484.4481920988783 5338.884768903766
1485.2342813744108 5475.008466185597
1486.0201793357446 5568.207187593266
1486.8058860344572 5294.774783354709
1487.591401522117 5284.49521913252
1488.3767258502594 5453.553875842707
1489.1618590704056 5498.769690957077
1489.9468012340494 5238.01452684545
1490.7315523926754 5439.549573363218
1491.5161125977356 5464.53489688055
1492.3004819006637 5416.196309383422
1493.084660352877 5123.3829951275275
1493.8686480057622 5360.151121849343
1494.6524449106964 5487.963525994954
1495.4360511190262 5442.185915655311
1496.219466682087 5455.484625149423
1497.0026916511779 5315.804286437596
1497.7857260775945 5375.068212888506
1498.5685700125996 5455.923914471212
1499.3512235074395 5172.338796532652
1500.133686613337 5196.927017477281
1500.9159593814966 5265.993755176967
1501.698041863101 5551.79241440453
1502.4799341093094 5197.30712280836
1503.2616361712662 5122.440821435082
1504.043148100087 5337.4887718512
1504.8244699468742 5352.892856865621
1505.6056017626997 5141.673056358923
1506.3865435986281 5273.8728408174775
1507.1672955056893 5249.708674742294
1507.9478575348967 5186.362180462055
1508.7282297372512 5375.5892091585865
1509.5084121637192 5237.627639842152
1510.2884048652577 5315.348777611607
1511.0682078927948 5226.577850896629
1511.8478212972423 5241.460296419057
1512.6272451294917 5150.112163175071
1513.4064794404076 5324.785465889695
1514.1855242808433 5490.067301362827
1514.9643797016215 5308.642396517686
1515.743045753552 5398.269019192289
1516.5215224874191 5508.76438815765
1517.2998099539836 5243.409792996274
1518.077908203999 5369.188631342522
1518.8558172881785 5460.781935534726
1519.633537257234 5487.626255768801
1520.4110681618404 5658.847392585356
1521.1884100526604 5505.642718229594
1521.9655629803365 5453.157190930931
1522.7425269954856 5639.7727002143465
1523.5193021487103 5944.1542131393635
1524.2958884905856 5532.694147811652
1525.0722860716687 5641.034309594685
1525.848494942502 5579.482652722288
1526.624515153595 5738.166140423429
1527.4003467554485 5672.7490208576855
1528.175989798534 5674.222474312834
1528.9514443333064 5771.015202467672
1529.726710410203 5913.428410932688
1530.5017880796331 5587.1310136801785
1531.276677391992 5670.881743732638
1532.0513783976457 5824.956347034784
1532.825891146953 5727.229546279839
1533.6002156902414 5732.410400658946
1534.3743520778207 5746.191737114034
1535.1483003599806 5716.732316661643
1535.9220605869923 5684.911477716163
1536.6956328091019 5673.729577374876
1537.4690170765407 5660.389638921684
1538.242213439511 5711.8496059320605
1539.015221948208 5604.798994443606
1539.78804265279 5554.847469680633
1540.560675603405 5614.82053715111
1541.3331208501804 5642.969219708849
1542.1053784432224 5621.671375792421
1542.8774484326168 5575.744560530352
1543.649330868422 5495.2488015510735
1544.4210258006842 5593.596192878303
1545.1925332794308 5537.41749737318
1545.9638533546604 5428.381788432701
1546.7349860763552 5377.712542514345
1547.5059314944829 5778.481222055687
1548.27668965898 5482.647740618163
1549.0472606197673 5529.306615911277
1549.817644426752 5350.196190155793
1550.5878411298072 5515.490595824284
1551.3578507787988 5469.105893695731
1552.1276734235635 5286.658388457064
1552.8973091139233 5550.404161462977
1553.6667578996767 5628.678223155181
1554.436019830604 5387.162516867024
1555.20509495646 5314.346559496049
1555.9739833269869 5396.030921171734
1556.7426849919011 5356.683983034279
1557.511200000903 5599.851279720007
1558.2795284036674 5501.542429288641
1559.0476702498509 5344.56913871343
1559.8156255890954 5654.20398487603
1560.5833944710157 5782.270203759463
1561.3509769452048 5464.398693371753
1562.1183730612447 5530.448189477176
1562.8855828686865 5526.483833566517
1563.6526064170703 5754.110065952937
1564.4194437559127 5618.541817005977
1565.1860949347047 5623.901083269438
1565.9525600029283 5741.081584973296
1566.7188390100328 5847.497900990869
1567.4849320054564 5475.655995020568
1568.250839038612 5553.849051558051
1569.0165601588997 5509.335677753357
1569.7820954156887 5729.47630964671
1570.5474448583373 5511.5736832775565
1571.31260853618 5557.983559407996
1572.0775864985299 5574.170648342729
1572.8423787946813 5627.797278702101
1573.6069854739108 5625.729448683987
1574.371406585471 5575.7330609302135
1575.1356421785986 5712.063852041928
1575.899692302506 5524.320143901099
1576.6635570063845 5583.846085332041
1577.4272363394157 5603.210344093794
1578.190730350747 5591.18342936351
1578.9540390895163 5690.896504059502
1579.7171626048384 5451.908677199288
1580.480100945806 5429.313396942266
1581.2428541614918 5548.12709618001
1582.0054223009538 5626.639326045209
1582.767805413223 5498.233159277644
1583.5300035473156 5512.762788099941
1584.292016752228 5584.385119542327
1585.0538450769309 5532.145164918302
1585.8154885703807 5369.755567896652
1586.5769472815136 5305.43045312204
1587.3382212592405 5423.988024799622
1588.099310552463 5485.096374790352
1588.8602152100484 5409.877890017413
1589.6209352808564 5430.474613357246
1590.3814708137234 5248.754513687307
1591.14182185746 5365.966419048871
1591.9019884608679 5236.554164270253
1592.6619706727215 5189.8849136461085
1593.4217685417734 5299.249663227092
1594.1813821167616 5388.911665423694
1594.9408114464022 5256.33240486999
1595.7000565793933 5140.7352323611585
1596.459117564409 5323.527086772471
1597.2179944501113 5129.252002755324
1597.9766872851324 5107.486777575991
1598.735196118092 5115.688314975935
1599.4935209975883 5171.2
1600.2516619721973 5312.591478328029
1601.0096190904787 5041.853559336376
1601.7673924009723 5056.249538432194
1602.524981952196 5038.082895908676
1603.2823877926476 5112.831207418558
1604.0396099708087 4993.075427552396
1604.7966485351371 5006.742156952465
1605.5535035340745 5130.15877415137
1606.3101750160404 5269.539512031834
1607.0666630294363 4959.801533039837
1607.822967622642 4934.704602750948
1608.5790888440224 5087.827341536775
1609.3350267419137 5149.3031221353895
1610.0907813646445 5042.666999993124
1610.8463527605145 4876.078956300242
1611.601740977805 5030.411332828326
1612.356946064785 4965.745158564659
1613.1119680696902 4818.637179039989
1613.8668070407512 4898.602286776756
1614.6214630261748 4939.159376736475
1615.375936074137 5119.2166150629555
1616.1302262328118 4823.155637539772
1616.8843335503425 4930.631086898409
1617.638258074854 4809.164475290053
1618.391999854457 4896.93968960648
1619.1455589372363 4966.683971994435
1619.8989353712623 4926.5736080523875
1620.65212920458 4700.806505201328
1621.4051404852235 4838.4495667264855
1622.1579692611976 4837.042606689737
1622.9106155804966 4801.2876631989275
1623.663079491087 4881.888709278839
1624.4153610409248 4925.839748088632
1625.1674602779385 4814.887158236843
1625.9193772500403 4815.68798745338
1626.6711120051277 5022.389097317155
1627.4226645910676 4901.781664684789
1628.174035055721 4722.125241189922
1628.9252234469168 4953.959078139461
1629.676229812474 4829.007326928289
1630.4270542001905 5113.111773943711
1631.1776966578382 4914.942227529347
1631.9281572331747 4833.7033373140885
1632.678435973945 5088.53809538234
1633.4285329278573 4962.96205964884
1634.1784481426203 4844.139483884531
1634.9281816659113 4936.364645317405
1635.677733545388 5119.3789932557065
1636.4271038286934 5004.450784269203
1637.176292563452 5064.964917493872
1637.9252997972635 5142.902086809065
1638.674125577716 5076.261524529249
1639.4227699523672 5396.727716624065
1640.171232968767 5005.957327466727
1640.9195146744423 5212.788039201232
1641.6676151168977 5305.948474958856
1642.4155343436178 5429.247900137228
1643.1632724020765 5187.6217845645815
1643.9108293397167 5166.756022305611
1644.658205203974 5266.542882015762
1645.4054000422566 5662.321796425997
1646.1524139019566 5357.975254541114
1646.8992468304423 5167.597985955397
1647.6458988750728 5176.464778742894
1648.3923700831765 5239.997110396613
1649.1386605020743 5313.554506260956
1649.8847701790564 5337.840168387608
1650.6306991614038 5347.436089416567
1651.3764474963682 5446.821084289074
1652.1220152311944 5109.015072806457
1652.867402413096 5389.386630125484
1653.6126090892776 5370.711037326927
1654.3576353069184 5393.126809525386
1655.1024811131829 5268.327912735747
1655.8471465552066 5140.687708582808
1656.5916316801213 5387.159076303386
1657.3359365350298 5264.848472460006
1658.0800611670165 5077.69929311863
1658.824005623148 5207.174382405454
1659.5677699504722 5081.013250615009
1660.3113541960192 5269.44410614437
1661.054758406799 4974.028055747972
1661.7979826297997 5002.457054925229
1662.5410269119966 4951.244929908978
1663.283891300338 5056.802706629028
1664.0265758417645 4954.912452945404
1664.7690805831826 5004.358646241964
1665.5114055714948 5026.032598940507
1666.2535508535748 5227.191634123926
1666.9955164762814 4740.382074947895
1667.7373024864555 4822.445612641755
1668.478908930916 5048.31333272492
1669.220335856462 4914.80243442104
1669.9615833098778 4704.116071355203
1670.7026513379296 4756.86092458345
1671.44353998736 4829.6317607942
1672.1842493048916 4859.2592742484385
1672.9247793372379 4644.139460491982
1673.6651301310812 4782.825800682946
1674.4053017330934 4589.548181962745
1675.1452941899242 4746.337920271074
1675.885107548207 4416.507626015587
1676.6247418545518 4331.57796317736
1677.3641971555535 4586.062805611398
1678.1034734977893 4653.500000160353
1678.8425709278108 4477.298392314816
1679.5814894921605 4591.504409959796
1680.320229237359 4613.539744030322
1681.0587902098978 4758.419153363367
1681.7971724562685 4526.020934269217
1682.5353760229264 4271.609243042192
1683.2734009563173 4512.158452734899
1684.0112473028657 4526.48943065694
1684.7489151089794 4510.610705428032
1685.4864044210462 4524.448273131041
1686.2237152854377 4182.145963290291
1686.960847748498 4429.86252887609
1687.6978018565642 4143.170611087311
1688.434577655944 4235.179347993807
1689.1711751929379 4117.893973031109
1689.9075945138156 4300.285481019286
1690.6438356648396 4235.212858214948
1691.3798986922448 3887.7272365955987
1692.1157836422499 4152.351479101506
1692.851490561059 4129.380882767988
1693.587019494853 4128.646685380218
1694.3223704897991 4082.3781346182027
1695.0575435920364 3919.735490172557
1695.792538847696 4207.998559144226
1696.527356302886 3909.039418126364
1697.2619960036936 3970.8260851769105
1697.9964579961907 3985.9229865851166
1698.730742326432 3763.3343754882308
1699.4648490404488 3823.8974226485307
1700.1987781842563 3832.601725739335
1700.9325298038548 3971.851374539749
1701.6661039452174 3975.679441928468
1702.3995006543082 3894.524532243081
1703.1327199770658 3954.399020095804
1703.865761959416 3764.721934559691
1704.598626647261 3985.2809261876296
1705.3313140864866 3693.445763279526
1706.0638243229587 3727.5624814751636
1706.7961574025303 3901.880665799894
1707.528313371029 3846.9830060225477
1708.260292274268 3741.6227977014432
1708.9920941580403 3799.9268807574563
1709.7237190681226 3726.393961987348
1710.4551670502697 3684.328172104717
1711.18643815022 3619.815569562361
1711.9175324136959 3995.988204082124
1712.6484498863938 3772.957584527764
1713.379190614005 3535.763279232572
1714.109754642188 3725.3279949542875
1714.8401420165883 3587.1130249307294
1715.570352782839 3819.934946939867
1716.3003869865497 3677.5012371351695
1717.0302446733076 3519.977533742441
1717.7599258886876 3555.220329713486
1718.4894306782444 3909.8303009910646
1719.2187590875183 3489.7421413728453
1719.9479111620203 3789.467767123651
1720.6768869472544 3561.5121856477977
1721.4056864887025 3789.9445084329227
1722.1343098318284 3809.7113085024102
1722.8627570220742 3536.251293107254
1723.591028104871 3484.4919079442598
1724.3191231256242 3426.5250580306943
1725.0470421297232 3673.547846338789
1725.7747851625427 3673.115668973006
1726.5023522694337 3648.2904980814455
1727.2297434957363 3590.028584446889
1727.9569588867635 3405.6621729033204
1728.6839984878152 3614.729855187436
1729.4108623441734 3291.508126769893
1730.1375505011038 3648.4526238922576
1730.8640630038426 3353.5807554445455
1731.5903998976264 3465.5528819997917
1732.316561227657 3497.9459475167155
1733.0425470391274 3332.1774063416196
1733.7683573772065 3587.3373034116194
1734.4939922870508 3578.7523312570897
1735.2194518137949 3504.6272441877677
1735.9447360025606 3488.7732085743473
1736.669844898439 3472.6258489609963
1737.3947785465189 3380.6368105655324
1738.1195369918605 3309.5609819737206
1738.8441202795093 3442.930405684519
1739.5685284544943 3583.883977465178
1740.292761561821 3551.06728873537
1741.0168196464838 3481.2763407786797
1741.7407027534518 3472.633678543538
1742.464410927687 3365.084372561266
1743.187944214118 3399.4423585838113
1743.9113026576688 3422.5096277790544
1744.634486303241 3422.0130401583447
1745.3574951957125 3550.9488370813865
1746.0803293799509 3607.9886470108277
1746.8029889008048 3418.0218178344903
1747.5254738031017 3505.4421336059413
1748.2477841316504 3407.8262558680954
1748.969919931249 3277.571972880041
1749.6918812466665 3438.6519145451866
1750.4136681226646 3479.2825664170255
1751.1352806039777 3389.0534488543317
1751.856718735331 3252.1856156764757
1752.5779825614281 3119.804711786039
1753.2990721269507 3418.0350030938084
1754.0199874765676 3364.3196126919174
1754.7407286549314 3267.558677600721
1755.4612957066693 3375.6025078568164
1756.1816886763954 3344.552963418889
1756.9019076087097 3437.346639211262
1757.6219525481865 3405.5101689160247
1758.3418235393856 3377.9248014475934
1759.061520626854 3346.8680284709203
1759.7810438551096 3518.489069698312
1760.5003932686614 3176.7317673800885
1761.2195689119999 3531.862519334568
1761.938570829594 3383.728010024989
1762.657399065898 3390.295181284405
1763.376053665348 3276.915068839503
1764.0945346723602 3186.4436276334022
1764.812842131334 3476.053917227341
1765.5309760866512 3338.8354841915307
1766.2489365826787 3262.2553799593265
1766.9667236637597 3361.59716354539
1767.684337374223 3027.7877394268157
1768.401777758383 3313.901680530237
1769.1190448605284 3212.231473126959
1769.836138724937 3100.141312430489
1770.5530593958665 3267.0235541935103
1771.2698069175603 3431.110741359228
1771.9863813342326 3355.4634684002535
1772.702782690094 3274.7136437783925
1773.4190110293293 3508.991144758974
1774.1350663961111 3292.984664737821
1774.8509488345844 3291.737025343094
1775.5666583888924 3251.9083393311475
1776.2821951031437 3488.3269367244693
1776.9975590214362 3246.83482836023
1777.7127501878585 3321.911720572123
1778.4277686464684 3326.749863565989
1779.1426144413108 3419.943144387259
1779.8572876164162 3426.8831438037037
1780.571788215797 3036.661617404532
1781.2861162834415 3160.139440721596
1782.0002718633277 3210.7438024116905
1782.7142549994132 3242.915185416038
1783.4280657356376 3287.121327431253
1784.141704115922 3111.7920176593607
1784.855170184177 3262.104887384728
1785.5684639842839 3222.5718613824515
1786.2815855601148 2916.0305245949394
1786.9945349555237 3190.7798062923403
1787.707312214343 3142.9690774017245
1788.4199173803918 3535.331456149676
1789.132350497468 3158.120035766456
1789.8446116093583 3198.613940126489
1790.556700759822 3038.663829280097
1791.2686179926077 3231.630923848313
1791.9803633514493 3175.8163357564945
1792.6919368800554 2973.044144663133
1793.4033386221236 3234.3040351615773
1794.1145686213295 3253.3145909617806
1794.8256269213307 3375.396230787518
1795.536513565774 3228.237388913077
1796.247228598284 3009.429106423155
1796.9577720624693 3143.8723720233984
1797.6681440019165 3207.0721706438353
1798.3783444602013 3183.1283705638166
1799.0883734808776 3214.9805165317402
1799.7982311074884 3308.506274397839
1800.5079173835475 3147.1877586060396
1801.2174323525633 3224.7346038405676
1801.9267760580187 3075.930878843342
1802.635948543386 3252.3768051146735
1803.3449498521113 2978.2639643416815
1804.0537800276325 3202.694198996477
1804.7624391133668 3087.927168324598
1805.47092715271 3036.0146690871698
1806.1792441890484 2977.475013925316
1806.8873902657433 3182.7438921735056
1807.5953654261448 3127.7042417575876
1808.3031697135812 2991.216473934736
1809.0108031713662 3026.6148900663475
1809.71826584279 3074.4750048177166
1810.425557771141 3158.9150120263257
1811.1326789996747 3379.9016072252116
1811.839629571632 3070.8863765674196
1812.5464095302468 3099.0966024651566
1813.2530189187182 3064.630482424395
1813.959457780249 3196.1310407614374
1814.6657261580076 3141.5109047691626
1815.371824095153 3048.4401692911324
1816.0777516348262 3272.0688243703794
1816.78350882015 2870.6299277827943
1817.4890956942272 2894.669203127923
1818.1945123001533 2999.170587205691
1818.8997586809928 3111.3796488387443
1819.6048348798067 2851.713423949406
1820.3097409396287 3082.96025274581
1821.0144769034796 3300.0803974534124
1821.7190428143622 3224.3828739720457
1822.423438715261 3121.5714587464126
1823.1276646491478 3017.6659426108918
1823.8317206589727 3109.263647920037
1824.5356067876692 3076.4435608141575
1825.2393230781581 3093.9554574712965
1825.942869573335 2895.404402577524
1826.646246316086 2937.2239575755075
1827.3494533492758 3062.337959357982
1828.052490715756 3121.9541496078864
1828.7553584583547 3064.726007488166
1829.458056619891 2990.7222611125662
1830.1605852431585 2938.6723329262013
1830.8629443709433 2983.566045349104
1831.5651340460063 3041.2800694249663
1832.2671543110919 2829.466259425348
1832.9690052089318 3056.187048832752
1833.6706867822395 2827.673361135237
1834.3721990737104 3144.6991122170484
1835.0735421260233 3039.1570210144005
1835.774715981841 3067.6303172032735
1836.4757206838058 3226.4628370528244
1837.1765562745459 3042.9777223914307
1837.8772227966747 3060.3763615451635
1838.5777202927839 2961.1798207159077
1839.2780488054523 2882.7434888460275
1839.9782083772352 2838.583949115584
1840.6781990506806 3278.2177866926613
1841.378020868313 2943.825433482968
1842.0776738726418 3111.433700496604
1842.777158106157 2780.3223070552317
1843.4764736113375 2868.9481573975513
1844.1756204306403 2998.850050334919
1844.8745986065078 2943.0998485180276
1845.5734081813607 2796.8781652733396
1846.2720491976124 3022.843708205503
1846.970521697649 2933.6946247805404
1847.6688257238511 2955.66456230327
1848.3669613185684 2961.7678488086767
1849.0649285241452 2752.045968537306
1849.7627273829057 2989.550466390651
1850.460357937156 2865.963611058299
1851.1578202291857 2813.628157883067
1851.8551143012664 2928.937579273938
1852.5522401956569 2949.244203227322
1853.2491979545957 3070.0494172020435
1853.9459876203055 2842.673534556277
1854.6426092349902 2968.024195463774
1855.3390628408451 2856.8104946726135
1856.0353484800362 3205.5742332937525
1856.7314661947203 2929.0895807497905
1857.4274160270397 2882.9786035201596
1858.123198019115 2834.243170384659
1858.8188122130487 2661.673546642911
1859.5142586509319 2841.3178141626554
1860.209537374838 2755.1202769357405
1860.9046484268183 2835.307578075831
1861.599591848917 2983.2933470564462
1862.294367683151 2952.5033977839166
1862.988975971528 2947.695643304375
1863.6834167560355 2921.965295648133
1864.3776900786452 3005.0022093464045
1865.0717959813119 2794.5471348559704
1865.7657345059724 2694.553375594797
1866.4595056945564 2974.02330670996
1867.1531095889586 2864.576332794152
1867.846546231076 2630.086587853267
1868.5398156627743 2890.339364679201
1869.2329179259123 2779.9017228776706
1869.9258530623283 3064.4190553008193
1870.618621113843 2607.503357118539
1871.3112221222636 2707.0332379056476
1872.0036561293764 2784.679294242379
1872.695923176956 2887.870257526767
1873.3880233067594 3031.650303148785
1874.0799565605212 2792.737671521724
1874.7717229799673 2851.2673369576382
1875.4633226068036 3102.1419604368625
1876.1547554827175 2928.1781298233495
1876.8460216493859 2855.501451701949
1877.5371211484617 2803.033166971797
1878.2280540215852 2919.400070791468
1878.9188203103804 2615.4298585910337
1879.6094200564548 2829.210958389086
1880.299853301396 2794.152236392253
1880.9901200867826 2846.8434705068817
1881.6802204541673 2878.271749641287
1882.3701544450942 2963.903392498198
1883.059922101087 2588.1113417975894
1883.7495234636517 3041.9601850031113
1884.4389585742792 2707.452605125431
1885.1282274744517 2619.274175796928
1885.8173302056166 3262.995325205952
1886.506266809225 2861.8859065239844
1887.195037326701 2740.620190600263
1887.8836417994517 2748.7874558188155
1888.5720802688702 3067.284840391604
1889.260352776333 2844.9847251061633
1889.9484593632042 3005.672570839364
1890.63640007082 2683.641117988344
1891.3241749405151 2785.3744852836517
1892.0117840135954 2962.716350590264
1892.6992273313572 2729.8098782650136
1893.3865049350788 2685.3147433594418
1894.0736168660223 3094.2207151645266
1894.7605631654333 3031.7718761473507
1895.4473438745408 2624.8242820212026
1896.133959034556 2988.22131048033
1896.820408686679 2900.757316038609
1897.506692872088 2890.739391206095
1898.192811631945 2785.794357287095
1898.8787650073991 2882.341457411572
1899.5645530395832 2948.3455031658127
1900.2501757696118 2883.349373236173
1900.9356332385796 2646.3612701006796
1901.620925487574 2985.7740386384494
1902.3060525576602 2947.63525144916
1902.9910144898859 2821.531835060515
1903.6758113252872 2694.4331731740385
1904.3604431048789 2871.173752071675
1905.0449098696663 2797.798159724568
1905.7292116606295 2764.4149448982876
1906.4133485187394 2776.6048932786275
1907.0973204849488 2591.3085673165565
1907.7811276001976 2554.7278354995974
1908.4647699053967 2694.7911457156997
1909.1482474414588 2176.6074570223523
1909.8315602492694 2733.078147680525
1910.5147083696957 2855.868891842703
1911.1976918436012 2776.429235676836
1911.880510711815 2623.104098701043
1912.5631650151681 2911.4616699641547
1913.2456547944657 2696.071137181658
1913.927980090495 2685.0656744416656
1914.6101409440362 2567.918211822515
1915.2921373958416 2877.2963356426867
1915.9739694866603 2772.2047721000813
1916.655637257214 3017.5377077575877
1917.3371407482136 2779.1722030035
1918.0184800003572 2897.0477080591163
1918.6996550543154 2953.8435344085437
1919.3806659507554 2726.746095902832
1920.0615127303208 2800.8681697514958
1920.7421954336423 2935.306559518486
1921.4227141013343 2844.9092633127443
1922.103068773993 2738.5620627130743
1922.783259492202 2807.94891672995
1923.4632862965227 2724.8672352170893
1924.1431492275078 2573.830080828957
1924.8228483256917 2693.9349941054397
1925.5023836315922 2762.1120388777645
1926.1817551857057 2360.084041260904
1926.8609630285227 2882.3007641621807
1927.5400072005123 2812.766339065175
1928.218887742125 2726.4145562071512
1928.8976046938005 2527.6713234254485
1929.5761580959588 2766.579731075384
1930.2545479890086 2737.723010162087
1930.9327744133352 2489.0316036202717
1931.6108374093164 2620.876575339643
1932.2887370173066 2858.5387061523716
1932.9664732776473 2405.4074152417625
1933.6440462306673 2712.1365250189124
1934.3214559166754 2604.5052001818285
1934.9987023759659 2997.0892337773503
1935.675785648813 2813.618103767116
1936.3527057754836 2364.2770218160667
1937.029462796223 2899.238452051478
1937.70605675126 2467.1822785510894
1938.3824876808085 2527.9301136594777
1939.058755625072 2636.4832567247713
1939.7348606242267 2629.9658858792477
1940.4108027184448 2590.046122947477
1941.0865819478713 2734.4579277955863
1941.7621983526478 2594.095972776301
1942.4376519728921 2413.1597704654237
1943.1129428487038 2622.9810815388732
1943.7880710201734 2802.493022529322
1944.4630365273733 2743.0430571672405
1945.1378394103576 2554.475683106851
1945.8124797091714 2887.3299626267267
1946.4869574638324 2461.2352392752796
1947.161272714353 2527.2387333894476
1947.8354255007234 2690.8327889761686
1948.5094158629272 2520.2619425671883
1949.1832438409183 2653.1227207609845
1949.8569094746435 2736.8335012406383
1950.530412804037 2881.7410995525956
1951.2037538690092 2717.473631202739
1951.8769327094578 2587.8285373535077
1952.5499493652678 2588.0945677042314
1953.222803876306 2925.695343303437
1953.895496282421 2717.7284921531964
1954.5680266234522 2670.0030970519665
1955.2403949392155 2612.350389283249
1955.9126012695142 2672.5386103255328
1956.5846456541403 2597.1456947864694
1957.2565281328643 2720.880524297868
1957.9282487454457 2826.3001587965446
1958.5998075316202 2628.8682011728515
1959.27120453112 2491.9217624518506
1959.9424397836501 2691.7269919414366
1960.613513328908 2582.172635549005
1961.2844252065697 2874.590520869814
1961.9551754563017 2498.8766907773015
1962.6257641177453 2566.525609343807
1963.29619123054 2331.3657870503057
1963.966456834296 2407.600851358297
1964.6365609686181 2469.073180021024
1965.306503673086 2691.0539246194767
1965.976284987275 2485.571233109724
1966.645904950734 2517.39090780753
1967.315363603002 2462.3599938948587
1967.9846609836077 2507.810152241348
1968.6537971320486 2478.1551705442525
1969.3227720878222 2683.3773097901153
1969.9915858904042 2556.8053051996985
1970.660238579252 2671.288127990021
1971.3287301938108 2572.5132654286895
1971.997060773514 2563.8907929763827
1972.665230357772 2621.8700283075173
1973.3332389859843 2445.5339839429207
1974.0010866975335 2407.8948114203013
1974.6687735317864 2506.2066116331594
1975.3362995280932 2490.515476264534
1976.003664725793 2758.865502683325
1976.6708691642052 2399.9958743611755
1977.3379128826364 2541.9251568669606
1978.004795920373 2643.048208800968
1978.6715183166925 2840.818512686626
1979.3380801108524 2375.9342800391983
1980.0044813420973 2539.930938789681
1980.6707220496555 2187.288854392219
1981.3368022727373 2566.430758993555
1982.0027220505417 2670.484658070676
1982.66848142225 2265.674221790572
1983.3340804270283 2404.045361910259
1983.999519104027 2479.6269550996058
1984.6647974923835 2608.576214339838
1985.329915631215 2551.929788526212
1985.99487355963 2470.9617016596985
1986.6596713167146 2751.0244425950614
1987.3243089415428 2299.1846427010687
1987.9887864731754 2632.8484454710233
1988.6531039506553 2370.7232321944443
1989.3172614130071 2845.3679092755165
1989.9812588992481 2402.1066213722447
1990.645096448372 2146.272524339637
1991.3087740993633 2514.7671250619
1991.9722918911848 2426.8820204679732
1992.635649862792 2519.432985273622
1993.2988480531185 2536.0536130596442
1993.9618865010852 2874.9954260214863
1994.6247652455968 2411.969540601471
1995.287484325545 2415.6103947846827
1995.9500437798033 2486.6798469935675
1996.6124436472292 2431.4175111584273
1997.2746839666706 2538.6016082368924
1997.936764776954 2288.900942655313
1998.598686116895 2518.0972544175693
1999.2604480252903 2576.4640799726317
1999.9220505409212 2694.4329472468135
2000.5834937025593 2394.065578356044
2001.2447775489582 2597.1999973622123
2001.9059021188514 2443.064539107632
2002.5668674509616 2329.679149129163
2003.2276735839987 2448.0733626296515
2003.8883205566508 2615.0209901735952
2004.5488084075987 2442.17256563543
2005.2091371755014 2392.1493402160922
2005.8693068990033 2225.235107455061
2006.5293176167397 2717.882458456489
2007.1891693673224 2395.900592409806
2007.848862189354 2263.391823309651
2008.5083961214223 2451.7413107011926
2009.1677712020955 2395.289395442597
2009.8269874699254 2254.534956580771
2010.4860449634598 2314.2313073578953
2011.1449437212177 2374.2205650737224
2011.8036837817108 2640.9426757009146
2012.4622651834325 2541.138429285921
2013.1206879648653 2488.3200455900947
2013.7789521644736 2668.4919388520366
2014.4370578207036 2404.426689706751
2015.0950049719922 2297.496599630146
2015.7527936567585 2575.157290958278
2016.4104239134067 2278.9479584835867
2017.067895780323 2262.63864705136
2017.725209295886 2246.216136886898
2018.3823644984514 2609.9602256199314
2019.0393614263648 2524.295891453403
2019.6962001179545 2394.758303034952
2020.3528806115355 2613.1302298934124
2021.0094029454067 2436.4435826279287
2021.6657671578487 2360.770668189926
2022.321973287133 2481.7474988512
2022.9780213715148 2210.118953308531
2023.6339114492293 2436.5863440091107
2024.2896435585026 2429.694678484377
2024.9452177375442 2404.6120080550895
2025.600634024544 2597.288736481038
2026.2558924576842 2562.849537479163
2026.9109930751292 2498.041004479538
2027.565935915025 2347.409635846527
2028.2207210155066 2773.625790930032
2028.8753484146964 2740.2664597384655
2029.529818150695 2143.691552451547
2030.1841302615903 2581.202653342959
2030.8382847854573 2260.6732708967547
2031.4922817603601 2480.4377841242963
2032.1461212243357 2408.058093950364
2032.7998032154192 2238.697257922687
2033.4533277716218 2402.385754353377
2034.1066949309443 2326.6068256002827
2034.7599047313688 2335.159279739267
2035.4129572108704 2465.739429353695
2036.0658524074006 2434.559116689061
2036.7185903589016 2389.0285551363054
2037.3711711032956 2457.1514749317084
2038.023594678496 2446.0872139591797
2038.675861122394 2281.6319179109178
2039.3279704728757 2559.606145307992
2039.9799227678031 2363.263329092538
2040.6317180450278 2319.645246394497
2041.2833563423865 2506.9658978569432
2041.9348376977014 2755.898139928174
2042.5861621487784 2595.658666392395
2043.2373297334088 2597.5779439707126
2043.8883404893695 2382.813856366286
2044.5391944544208 2522.541858895855
2045.1898916663158 2531.4855579331443
2045.8404321627804 2620.752140839745
2046.4908159815368 2370.6954513985393
2047.1410431602853 2164.9248386974004
2047.7911137367173 2315.1986471331625
2048.441027748504 2540.6458889906276
2049.090785233302 2125.588131059888
2049.7403862287592 2266.8436215696
2050.389830772503 2631.7148173226456
2051.0391189021466 2272.3467309872717
2051.688250655294 2424.1900230368005
2052.337226069527 2213.062195765695
2052.986045182417 2535.346822541886
2053.634708031521 2065.3205298136627
2054.283214654375 2338.724098638576
2054.931565088511 2306.9134257130363
2055.579759371436 2200.513937631599
2056.2277975406523 2415.942545021436
2056.8756796336384 2455.0441994635994
2057.5234056878617 2121.537157318605
2058.1709757407752 2271.987851968133
2058.8183898298194 2557.0261134634525
2059.465647992416 2508.8618772845834
2060.1127502659747 2564.729086055164
2060.759696687888 2157.0547642293336
2061.4064872955405 2421.356882953711
2062.053122126292 2524.8724486429983
2062.699601217497 2077.5940885940545
2063.345924606485 2265.284007108429
2063.992092330587 2347.7228273660535
2064.638104427102 2312.2997497010456
2065.283960933324 2642.4729146910513
2065.92966188653 2432.327470831134
2066.5752073239855 2441.322596368584
2067.2205972829397 2054.7518290495327
2067.86583180062 2387.7384873960973
2068.5109109142522 2227.259027457533
2069.15583466104 2208.9426841644345
2069.8006030781708 2190.6115442809073
2070.445216202821 2205.294683696459
2071.089674072153 2378.414573150044
2071.7339767233116 2569.9393791831776
2072.3781241934303 2266.5023687045887
2073.0221165196253 2531.2769474471825
2073.6659537390024 2209.3861466868048
2074.3096358886505 2457.4390294054647
2074.953163005637 2238.233950826416
2075.596535127028 2056.5745001550968
2076.2397522898664 2155.2017042822
2076.882814531182 2384.557190178153
2077.5257218879924 2360.870748181262
2078.1684743973 2186.875550170433
2078.8110720960885 2152.6522514904927
2079.453515021336 2633.981594585358
2080.095803209997 2413.7129406398276
2080.7379366990135 2191.969876768208
2081.37991552532 2515.172436820611
2082.0217397258275 2348.4034394703585
2082.6634093374414 1960.4172002333482
2083.3049243970418 2297.913201520419
2083.9462849415067 2147.1720447095413
2084.587491007689 2403.627482132729
2085.2285426324324 2272.7318457044357
2085.869439852564 2213.3943831110746
2086.510182704902 2209.5351492158575
2087.1507712262483 2315.639323419352
2087.791205453381 2061.5939749546833
2088.4314854230743 2370.5650019086906
2089.0716111720867 2304.0436061284117
2089.7115827371617 2181.6885290550144
2090.351400155023 2603.1843190765235
2090.991063462385 2249.5568010254824
2091.6305726959527 2114.327223961453
2092.2699278924047 2362.4631714971547
2092.9091290884153 2223.768362737486
2093.548176320641 2165.436031976748
2094.187069625721 2338.562958709371
2094.8258090402887 2088.2319923158243
2095.464394600951 2280.4100407948117
2096.102826344313 2368.5837228432183
2096.741104306955 2388.835185649702
2097.379228525453 2198.6303717104342
2098.017199036358 1986.8038501578035
2098.6550158762147 2580.6625048429446
2099.2926790815527 2400.5988102601614
2099.9301886888825 2277.981800912065
2100.5675447347076 2241.3883993669233
2101.2047472555114 2540.8714143662146
2101.841796287761 2286.438208247251
2102.47869186792 2247.3638800710078
2103.1154340324265 1989.730383508282
2103.752022817709 2164.2733389045143
2104.388458260184 2096.4332919395647
2105.024740396251 2244.113232189077
2105.660869262292 2157.1794678437464
2106.296844894685 2514.299014374283
2106.93266732978 2192.055908763606
2107.5683366039284 2052.2382940122
2108.2038527534532 2126.646648343534
2108.8392158146726 2264.8748668557337
2109.4744258238843 2168.0167042109447
2110.1094828173755 2294.689990483482
2110.744386831422 2400.0469859864475
2111.3791379022787 2464.7112968065867
2112.01373606619 2443.824776592158
2112.648181359389 2234.223714686112
2113.28247381809 2405.447544919244
2113.916613478492 2345.454541893882
2114.550600376786 2274.268111582397
2115.1844345491445 2106.7753612623405
2115.818116031729 2031.2408464853947
2116.451644860679 2106.4425205703
2117.085021072133 2008.570249862209
2117.718244702204 2327.7374625433117
2118.3513157869984 2186.9217843226274
2118.984234362604 2075.095751409988
2119.617000465092 2217.4668371526795
2120.249614130529 2364.9111335028956
2120.8820753949585 2255.2753356331345
2121.5143842944162 2086.6737934142275
2122.14654086492 2226.0051484160495
2122.7785451424734 2405.132340777593
2123.4103971630702 1929.324697767633
2124.042096962681 2118.860720588844
2124.6736445772767 2410.182473577627
2125.305040042802 2085.010788548638
2125.936283395191 2291.864671019455
2126.567374670365 2261.440319298971
2127.198313904233 2210.8989835537714
2127.8291011326855 2101.033315652055
2128.4597363916037 1990.6881116587422
2129.0902197168507 2348.0068963690164
2129.720551144279 2047.4910680493508
2130.3507307097225 2476.019707718724
2130.980758449008 2456.4282907136844
2131.6106343979427 2136.2350819451954
2132.2403585923203 2424.2690984769215
2132.8699310679276 2500.3612895595443
2133.499351860526 2454.125457260095
2134.1286210058715 2246.7066845485674
2134.7577385397053 1906.6628377008662
2135.3867044977487 2319.14898645202
2136.0155189157176 2449.473504717812
2136.644181829308 2359.751101982564
2137.2726932742025 2307.6359681881468
2137.901053286074 2487.5707737130224
2138.5292619005777 1890.9683923382108
2139.1573191533535 2239.3548823108167
2139.7852250800315 2412.3778461724096
2140.4129797162295 2298.8144666885464
2141.0405830975433 2061.6237315688204
2141.6680352595613 2018.8222560032423
2142.2953362378576 1975.9617438388207
2142.9224860679915 2201.502889537037
2143.549484785508 2131.57420851426
2144.1763324259373 2127.3188833657546
2144.803029024799 1991.222825950485
2145.429574617594 2126.165138245741
2146.0559692398165 2160.9267462380913
2146.682212926942 2096.4925046960216
2147.308305714432 2104.2488451509557
2147.9342476377333 2340.8130832889246
2148.5600387322847 2506.33769595355
2149.185679033506 2571.5192280578126
2149.8111685768017 2053.3788368377436
2150.4365073975678 2003.928862710077
2151.061695531187 2032.4650373231684
2151.686733013021 2381.8886072542255
2152.311619878423 2227.0525420901226
2152.9363561627342 2105.2074407010596
2153.560941901278 2047.1010950048324
2154.1853771293663 2099.0039090245655
2154.809661882293 2238.027516902336
2155.433796195348 2428.33390872687
2156.0577801037944 2046.6746935974115
2156.681613642895 2293.146870036427
2157.3052968478896 2045.7813757742413
2157.928829754006 2243.393134680281
2158.552212396462 2293.203612278063
2159.1754448104566 2196.412306148872
2159.7985270311783 2072.676427100118
2160.4214590938027 1710.4618956547201
2161.0442410334927 1786.6249946785672
2161.6668728853874 2205.3022977042974
2162.289354684628 1984.95008871131
2162.911686466332 2109.6783415037235
2163.533868265602 2327.834525430121
2164.1559001175337 2388.162814739435
2164.7777820572046 2373.254542894286
2165.399514119681 2140.1457901624003
2166.021096340013 2109.323830550081
2166.6425287532384 2307.3365621367507
2167.263811394385 2036.025682666558
2167.8849442984574 2315.3780725970446
2168.505927500455 2058.309426605324
2169.126761035366 2402.6985361729794
2169.7474449381552 1993.9847920503748
2170.367979243778 1966.5261871723967
2170.9883639871823 2349.287584176477
2171.608599203293 2051.996110064644
2172.2286849270276 2454.307739490102
2172.8486211932886 2419.4131520954243
2173.4684080369625 2176.1478126358134
2174.0880454929265 1983.6364908977994
2174.7075335960417 1864.5800088083397
2175.3268723811543 2291.4542337350185
2175.9460618831 1963.28646180437
2176.565102136701 2154.100413314053
2177.1839931767627 2131.0375381922295
2177.802735038078 2107.9443192837784
2178.421327755432 2044.1826749273848
2179.0397713635866 1945.5560055766884
2179.658065897298 2036.1261891583624
2180.276211391305 1854.2152280718103
2180.8942078803357 2184.1807884563955
2181.5120553991 2106.298463579775
2182.129753982299 1832.4193619512728
2182.7473036646206 2015.694653770545
2183.3647044807367 2172.557554294327
2183.9819564653044 1961.1939787167685
2184.599059652968 2231.677619523049
2185.216014078367 2227.690221080719
2185.832819776113 1890.074932880068
2186.4494767808137 2337.085182423186
2187.065985127063 1970.0901123329463
2187.682344849436 1976.0803503880695
2188.298555982501 2227.347499963881
2188.9146185608097 2188.4766443418284
2189.530532618901 2331.4929308824267
2190.1462981912937 2223.271400964471
2190.761915312507 2065.9652524400667
2191.377384017036 2007.8779001208914
2191.9927043393654 2106.5169239486677
2192.6078763139667 2332.988144793225
2193.2228999753006 1875.7860705439834
2193.837775357808 2051.3102274272405
2194.452502495922 1943.9311167460783
2195.0670814240602 2008.9214785491295
2195.6815121766285 1928.6784455098161
2196.2957947880186 1844.1472931323399
2196.9099292926057 1759.451915597913
2197.523915724758 2103.7316953086324
2198.137754118825 1995.8179635632428
2198.7514445091456 2527.3080171407464
2199.3649869300443 1848.5134442306153
2199.9783814158327 2403.342427668933
2200.5916280008096 2335.733899566802
2201.2047267192593 2322.0255690228746
2201.8176776054515 1917.2527849461821
2202.430480693649 1816.9469264119693
2203.0431360180955 2216.916359621023
2203.6556436130195 2311.714500483135
2204.268003512645 1870.149288957516
2204.8802157511727 2024.9238416589858
2205.492280362796 2363.3620285482284
2206.1041973816937 1997.2301178206312
2206.715966842032 1966.5134965667007
2207.3275887779655 2226.2522997830033
2207.93906322363 2081.5744612036797
2208.550390213153 2203.679756826359
2209.1615697806465 2196.0467566781067
2209.7726019602105 1982.1691768212022
2210.3834867859277 1819.8433097773727
2210.9942242918787 2011.4767091286114
2211.6048145121167 1958.722169100037
2212.2152574806914 2695.8304366197613
2212.825553231638 2066.412512266742
2213.435701798975 1947.1960249856959
2214.045703216707 1828.0612125841897
2214.655557518832 1820.914206812126
2215.2652647393297 1894.8430579167543
2215.874824912169 1752.0560342670924
2216.4842380713 2009.831384300609
2217.09350425067 1929.8065224004145
2217.7026234842033 2383.7855923138745
2218.311595805819 2138.6305855565943
2218.9204212494133 2162.631093499228
2219.52909984888 2246.578747156783
2220.137631638092 2242.533421245896
2220.7460166509154 2238.337551664348
2221.354254921198 1946.5408546026806
2221.9623464827764 1929.69884622771
2222.5702913694713 2218.790906483296
2223.178089615096 2205.0388999106226
2223.7857412534486 2022.8763501727822
2224.39324631831 1844.6834101780637
2225.000604843457 1974.6696309769698
2225.607816862641 2280.8531717200212
2226.214882409611 2157.0348325139735
2226.8218015180973 2236.6651277624724
2227.4285742218217 1974.9213695029127
2228.0352005544864 2003.5930326526886
2228.6416805497847 1823.7078132468741
2229.248014241399 1815.974117003779
2229.8542016629945 2012.6035372721549
2230.460242848223 2134.0699601029705
2231.0661378307304 1901.6838985333093
2231.671886644139 2126.4323003539325
2232.277489322065 1870.612524034327
2232.8829458981127 1620.3087186151529
2233.48825640587 1973.3924281448926
2234.0934208789095 2353.1502259702143
2234.6984393507955 2439.211517417298
2235.3033118550793 1975.9227742858395
2235.9080384252975 1955.4865749607386
2236.5126190949723 1825.605201432269
2237.1170538976166 1974.6241731155428
2237.721342866729 1793.4635589894856
2238.32548603579 1835.9070381340061
2238.9294834382763 1875.4690256386416
2239.533335107646 2152.516291000077
2240.1370410773434 2000.1825241385734
2240.740601380803 1696.3963650252463
2241.3440160514474 2116.459215313456
2241.9472851226783 2132.8790333666593
2242.550408627896 2212.641502455722
2243.1533866004793 2292.5745327683276
2243.756219073799 1974.6715527659157
2244.3589060812064 1973.4529430924267
2244.961447656049 1733.0349208871048
2245.5638438316564 1888.3473934277686
2246.166094641343 2095.7820899332733
2246.7682001184166 1869.7576816092128
2247.3701602961664 1960.549350481099
2247.971975207871 2027.7801704261715
2248.5736448867974 2176.7937916197225
2249.175169366197 1908.2440188612577
2249.7765486793123 2098.8850286015327
2250.3777828593684 1948.6819267900723
2250.9788719395783 1976.9495111650194
2251.579815953146 1973.8282773730948
2252.1806149332606 1813.9270092391848
2252.781268913097 2004.6712454957785
2253.381777925817 1843.0272391763895
2253.9821420045737 2153.605062729424
2254.5823611825035 2113.065201300266
2255.1824354927303 1913.8486267425506
2255.782364968365 1851.482125558146
2256.38214964251 1789.086995749673
2256.9817895482483 1713.912042033678
2257.5812847186553 1827.8354861996127
2258.180635186791 1776.7335789090139
2258.779840985704 2060.9347996385736
2259.37890214843 1945.341128327175
2259.97781870799 2239.305786281543
2260.5765906973957 1911.126914762497
2261.175218149645 2232.758878837142
2261.773701097718 2136.5451710890466
2262.3720395745895 1867.776793485086
2262.970233613216 1814.8408493681186
2263.568283246548 1835.9406795830978
2264.1661885075137 1720.627723700904
2264.763949429038 1767.3371255897323
2265.3615660440246 2219.2142359411027
2265.959038385374 1765.2419564578206
2266.5563664859637 1761.2021049280506
2267.153550378669 1757.2404115172533
2267.7505900963424 2149.857320296894
2268.3474856718312 1828.8665836089908
2268.9442371379664 1681.22204133429
2269.5408445275643 1963.813052821585
2270.1373078734377 1886.4417218083138
2270.7336272083758 1782.9064860470626
2271.32980256516 1865.9511576750142
2271.925833976562 1990.509066078487
2272.5217214753357 1845.986918248657
2273.117465094223 1701.1381929667143
2273.7130648659586 1922.6617280279424
2274.308520823257 1927.6180811384172
2274.903832998827 2152.8612935210094
2275.4990014253563 2013.0866705765104
2276.094026135528 1982.5872417426053
2276.6889071620117 1732.5997790593472
2277.2836445374614 2180.9487895271604
2277.878238294519 2024.8947755097336
2278.472688465812 1921.1520555304282
2279.066995083962 1817.187993803173
2279.6611581815705 1930.179992805836
2280.255177791232 1718.9961318039648
2280.8490539455233 1892.77356812675
2281.442786677013 2066.9522276761545
2282.0363760182554 2176.2275832429723
2282.6298220017943 1712.6688845754547
2283.223124660155 2200.960136209571
2283.816284025859 1774.1399863276158
2284.4093001314086 2216.889114183923
2285.002173009292 1772.019106336092
2285.5949026919952 2038.834718580716
2286.1874892119777 1989.4379094351546
2286.7799326016993 1953.9733812773757
2287.3722328936 1795.718823144367
2287.964390120109 1666.9075947451624
2288.556404313642 1943.9875686290245
2289.1482755066027 2210.400164668565
2289.7400037313873 1958.2450022298228
2290.3315890203703 1779.836317444995
2290.9230314059205 1977.1375304017697
2291.5143309203904 1926.5967540411925
2292.1054875961236 1964.6776853404524
2292.6965014654506 2463.859625186249
2293.287372560684 1724.3099762622667
2293.878100914131 2586.3550638966926
2294.468686558086 1842.3908016978035
2295.059129524827 1752.1669745171828
2295.649429846617 1703.9267008556094
2296.239587555716 1655.5334467319742
2296.8296026843636 1947.630078277975
2297.419475264791 2347.2094696953923
2298.0092053292137 2332.536618106312
2298.598792909839 2317.689224686651
2299.1882380388597 1879.1408390375007
2299.777540748455 2324.3188951071174
2300.3667010707904 2051.631397061582
2300.9557190380256 2035.1853586394977
2301.544594682302 2163.105861180115
2302.1333280357503 1934.5872705302058
2302.721919130485 1906.7231134697856
2303.3103679986198 2218.2099035502283
2303.898674672242 2219.7715498723096
2304.486839183437 1735.2692101637822
2305.0748615642697 1822.3359292651598
2305.6627418468015 1778.2478157135515
2306.2504800630704 1734.1864983515486
2306.8380762451143 1985.217319085194
2307.425530424949 1952.6908727923733
2308.012842634582 1920.0745597555083
2308.6000129060103 2224.0893461239316
2309.187041271214 2328.9762409068953
2309.773927762164 1760.7781594262033
2310.3606724108213 1994.1035950901212
2310.9472752491274 1880.7639068243539
2311.5337363090184 2101.8303861150093
2312.120055622414 1891.9687500898094
2312.706233221221 1858.3280986061377
2313.2922691373424 1618.1303477826004
2313.8781634026564 1701.3230613925539
2314.463916049037 1784.6929216187946
2315.049527108342 2030.2179158395306
2315.6349966124235 2220.308533064935
2316.2203245931123 2191.571510517896
2316.8055110822315 1699.0013521384021
2317.3905561115935 1748.8147341836532
2317.9754597129977 1828.4960856102286
2318.560221918229 2121.963606648626
2319.1448427590603 1794.520972475974
2319.729322267256 1740.2218809762458
2320.313660474563 1654.3080880035238
2320.8978574127195 1825.332030258228
2321.481913113452 1996.899611105146
2322.0658276084705 1679.3436968984138
2322.6496009294806 1923.981643514421
2323.233233108165 1904.9694968696738
2323.8167241762058 1833.9278983574136
2324.4000741652617 1932.0685401360533
2324.983283106987 1953.0574459858722
2325.5663510330232 2042.8756645312126
2326.1492779749933 1745.3827816201272
2326.7320639645204 1959.4312700680925
2327.3147090332004 1660.8088245518563
2327.897213212629 1759.0799718649353
2328.4795765343843 1857.3524906017494
2329.0617990300307 1686.0943934043503
2329.643880731124 2197.9194395179816
2330.22582166921 1696.7621248934415
2330.807621875816 2238.326123790356
2331.3892813824623 1636.737890864148
2331.9708002206517 1556.7932983882324
2332.5521784218818 1670.4122065092051
2333.133416017634 1784.3357966694189
2333.7145130393765 1650.0708669193016
2334.295469518571 2123.7772129969326
2334.876285486658 2126.0956016739033
2335.456960975076 2107.9612642360385
2336.037496015242 2089.822903152452
2336.6178906385667 1868.0342322183958
2337.198144876451 1883.9229832665173
2337.778258760278 1877.5603639798533
2338.3582323214214 1678.8316618276724
2338.938065591243 1909.433731261261
2339.517758601087 2131.8931607577206
2340.0973113822965 1968.7770932295043
2340.676723966193 1882.865662511324
2341.255996384094 1876.1598490385252
2341.835128667295 2189.189795302328
2342.4141208470883 1895.5491697460143
2342.992972954751 1888.8245025510641
2343.5716850215467 2031.1675001743831
2344.1502570787306 1496.9163218204137
2344.7286891575386 1576.4818486091294
2345.3069812892045 2137.668328667777
2345.885133504944 2003.6539488653748
2346.4631458359618 1914.5611875561444
2347.04101831345 1652.7340299588614
2347.6187509685915 1591.0005729479906
2348.196343832553 1576.262294267172
2348.7737969364935 1891.4201065247375
2349.351110311558 1889.1152934026654
2349.9282839888765 1761.0217178018447
2350.5053179995757 1386.220187788013
2351.0822123747585 1732.0881414728033
2351.658967145526 1699.3328305101957
2352.2355823429643 1666.6217827705846
2352.812057998144 1838.391608234706
2353.3883941421263 1799.788261705689
2353.9645908059647 1863.1771276295738
2354.540648020693 1923.2517949409364
2355.116565817336 1629.2941279716022
2355.6923442269126 1982.1636042142497
2356.2679832804224 1894.2688369292998
2356.8434830088518 1963.4853507003959
2357.41884344318 1854.0139835246325
2357.994064614377 2033.0064446879285
