#exp_cfg={"servo_angle": 0.0, "laser_lim": 100.0, "servo_angle_to": 18.0, "laser_wup": 0.0, "bt_dev": "EnSpectr-25AE3", "laser_wdn_max": 0.0, "frames": 10.0, "servo_used": 0, "servo_calib_use": 0, "laser_wdn_min": 0.0, "servo_pix_from": 90.0, "cooler_tout": 300.0, "servo_angle_from": 0.0, "servo_calib": "[-1.9174921013161362e-09, 3.9322238269163779e-05, -0.27385609119055809, 653.59552119713567]", "laser_autoctl": 0, "servo_pix_to": 3682.0, "laser_pw": 100.0, "cooler_on": 0, "laser_volt": 4.0, "cooler_autoctl": 0, "cooler_curr": 70.0, "cooler_startup": 10.0, "laser_fixed_pw": 0, "gain": 1.3, "offset": 2.53059635486, "servo_calib_degree": 3.0, "laser_curr": 55.0, "shutter": 8200.0, "servo_calib_step": 1.0, "laser_fixed_curr": 0, "exp": 2000.0, "ccd_volt": 4.7, "bt_addr": "00:06:66:62:5A:E3", "servo_delay": 500.0, "laser_autooff": 1}
#proc_cfg={"flat_auto_wnd": 200.0, "flat_auto_fr": 200.0, "flat_auto_shift": 5.0, "yconv": 1, "flatten": 1, "flatten_strength": 100.0, "xfrom": 300.0, "auto_max_frame": 2000.0, "auto_signal": 48000.0, "flat_auto_tol": 0.1, "autoclip": 1, "xrel_range": 0.0, "flat_auto_to": 4000.0, "intensity_adj": 1.0, "xrel": 7852.0, "rmhot": 1, "flat_auto_slit": 4.999999999999997, "auto_ini_exp": 300.0, "auto_off": 0, "xto": 2860.0, "flat_auto_ref": "", "flat_auto_rank": 1, "autobackg": 0, "xrel_adj": 0.0, "auto_black_lvl": 1, "base_wnd": 100.0, "sub_baseline": 0, "xconv": 2, "auto_max_exp": 1000.0, "auto_total_exp": 10000.0, "auto_exp": 0, "rmripple": 0, "black_lvl": 8261.0875, "shutter_clip_adj": 0.0, "auto_bckg": 0, "flat_auto_thr": 0.9, "subbackg": 1}
316.8218498245369 10358.785309863131
317.89969571804795 10258.513848467312
318.977263876126 10255.468786045327
320.05455438786703 10199.154055695715
321.1315673423287 10106.405295079032
322.2083028285215 10219.633521278663
323.2847609354267 10121.095062549788
324.3609417519747 10124.356011059486
325.43684536705587 10051.098569654792
326.5124718695279 10043.632370070052
327.58782134820103 9937.518669878413
328.66289389184385 9993.566003996526
329.7376895891921 9770.129752589444
330.8122085289342 9835.416176876157
331.88645079971866 9880.468614948208
332.9604164901575 9743.63172412686
334.03410568881554 9701.845575387819
335.1075184842266 9782.387090313427
336.18065496487543 9622.248176521429
337.2535152192122 9679.905770800975
338.32609933564163 9648.073980317717
339.39840740253203 9589.737591517867
340.4704395082099 9586.873456743906
341.5421957409617 9518.605842593166
342.6136761890357 9520.923745486773
343.6848809406365 9437.781459490086
344.75581008392874 9434.40346869923
345.82646370703696 9373.096404406813
346.8968418980512 9408.51793303259
347.96694474501055 9454.689192037482
349.0367723359268 9322.402891642583
350.106324758759 9347.022252511595
351.1756021014353 9202.468920706178
352.2446044518383 9286.312464169623
353.31333189781435 9355.86321287723
354.38178452716966 9188.908220919488
355.449962427665 9213.594699647287
356.51786568702846 9196.442120561967
357.58549439294256 9306.291179625308
358.6528486330535 9275.08417839508
359.71992849496564 9149.939510511984
360.7867340662433 9155.984819766767
361.8532654344144 9239.332053789909
362.9195226869597 9225.42328155255
363.9855059113288 9204.41890442403
365.05121519492604 9129.761661293782
366.11665062511565 9156.674910185055
367.1818122892273 9137.947721138133
368.2467002745434 9205.978386936025
369.31131466831175 9149.993820034597
370.375655557742 9080.714896665364
371.4397230299983 9164.50015788166
372.5035171722102 9125.039004928884
373.5670380714637 9111.06704458517
374.6302858148101 9225.312747715328
375.6932604892554 9177.131658082606
376.7559621817709 9088.17305062032
377.81839097928605 9018.085595249247
378.8805469686886 9046.088393751195
379.94243023683157 9111.265642139799
381.0040408705263 9064.482290482825
382.0653789565458 8897.035524894201
383.1264445816196 8955.24591012069
384.1872378324406 8926.182944453194
385.2477587956637 8957.047442740608
386.3080075579037 8909.071796644925
387.3679842057336 8802.216633547267
388.4276888256918 8887.70025470706
389.48712150426945 8811.62122271934
390.54628232792857 8784.197909087294
391.6051713830857 8747.097066381291
392.66378875611736 8776.18417676922
393.7221345333637 8724.807617236564
394.7802088011249 8743.475718049356
395.838011645661 8783.674582102001
396.89554315319765 8684.487518202994
397.9528034099112 8584.813702431851
399.00979250194723 8601.53486042424
400.06651051541485 8573.422765283245
401.1229575363741 8577.853985615802
402.17913365085224 8532.561856108783
403.23503894483656 8538.231784328951
404.2906735042761 8494.489827928239
405.3460374150818 8452.387738109068
406.401130763119 8508.867265494113
407.455953634224 8455.70302937406
408.5105061141876 8406.039401240288
409.56478828876243 8327.279764387862
410.6188002436629 8348.682246668632
411.6725420645689 8313.19967409071
412.72601383711117 8324.131737913523
413.77921564689314 8391.209459897416
414.8321475794728 8304.140337748806
415.88480972036814 8269.52734335456
416.93720215506437 8275.771796587798
417.9893249690049 8211.765428235838
419.04117824759123 8156.36186876905
420.09276207619223 8170.351071331221
421.144076540133 8245.313998050757
422.1951217247042 8171.932979070717
423.24589771515275 8172.39815221861
424.2964045966928 8189.441956240982
425.34664245449494 8130.853591904813
426.3966113736933 8170.428822220252
427.4463114393875 8107.280410642734
428.49574273662984 8058.385700822347
429.5449053504417 8013.255938263195
430.5937993658026 8116.108265297534
431.6424248676558 8010.854800144696
432.6907819409007 8010.816242652081
433.73887067040596 7986.0199456642495
434.7866911409965 8008.810738932293
435.8342434374608 8009.922336040477
436.88152764455117 7970.821403903613
437.9285438469724 7958.45331201991
438.9752921294057 7862.60427842222
440.02177257648145 7908.6626334380735
441.06798527279716 7817.094013072054
442.1139303029122 8008.68453039921
443.1596077513459 7936.408802881866
444.2050177025794 7866.34752402457
445.25016024105753 7874.664177427873
446.2950354511886 7859.2205994009855
447.33964341733736 7886.651497240613
448.383984223834 7867.431639624793
449.4280579549686 7774.008067114916
450.471864694995 7783.791917825333
451.5154045281306 7769.861657805004
452.5586775385509 7846.696359342738
453.60168381039693 7763.199257756348
454.64442342776783 7895.441609090881
455.6868964747264 7766.089737549359
456.7291030353008 7785.411762982914
457.77104319347563 7842.254414808907
458.8127170332027 7775.141201354063
459.854124638392 7751.619565280188
460.895266092919 7904.693806113112
461.93614148061897 7862.916851219808
462.97675088529104 7883.164100697684
464.01709439069236 7836.408437172625
465.0571720805492 7843.009196547988
466.0969840385442 7827.027568327445
467.1365303483253 7886.333941733598
468.17581109350067 7798.527627861729
469.2148263576437 7770.218218413005
470.2535762242878 7868.05387273658
471.29206077693016 7951.927609513012
472.33028009902773 7933.450517612863
473.3682342740012 8002.683543227579
474.40592338523857 7896.651601755708
475.4433475160804 7903.992951834941
476.4805067498364 8021.182905536832
477.51740116978 7978.239275325718
478.5540308591426 8047.600513673841
479.59039590112116 8195.116164446652
480.6264963788726 8192.096626647086
481.6623323755193 8215.967732870686
482.6979039741436 8270.545634458587
483.7332112577915 8411.13264797744
484.76825430947247 8571.490842253985
485.80303321215797 8529.894252281914
486.837548048783 8653.499354446902
487.8717989022425 8717.555201318544
488.90578585539697 8766.174443190042
489.9395089910686 8833.832381334872
490.97296839203955 8746.582258461602
492.00616414106116 8652.524940467598
493.0390963208429 8656.676823230056
494.0717650140559 8598.779728041129
495.10417030333883 8539.87935444168
496.1363122712901 8553.62164114208
497.16819100046814 8328.83599407431
498.1998065734024 8271.91702182333
499.2311590725767 8211.348146747161
500.26224858044407 8093.555913181357
501.2930751794156 8049.330510415428
502.3236389518679 8076.828909754513
503.35393998014115 7889.013206652005
504.38397834653733 7895.778974104984
505.4137541333221 7884.352901633547
506.4432674227228 7740.580894774865
507.4725182969323 7704.946480703811
508.5015068381035 7698.785803081757
509.53023312835467 7727.9102402524395
510.55869724976765 7584.735039099881
511.58689928438434 7611.664850321402
512.6148393142121 7473.264795998334
513.6425174212218 7585.410871262071
514.6699336873462 7556.401923025781
515.6970881944835 7587.376917877778
516.7239810244901 7446.928541970781
517.7506122591931 7514.581374020726
518.7769819803761 7516.314173766716
519.8030902697901 7582.250987974416
520.8289372091476 7493.578166855053
521.8545228801249 7576.889692710259
522.8798473643619 7466.162666703846
523.9049107434621 7483.906625430192
524.9297130989908 7577.064552486918
525.9542545124805 7505.1726574748145
526.9785350654201 7473.102872375295
528.0025548392696 7536.379966858422
529.0263139154504 7417.930085062084
530.0498123753423 7505.658684329444
531.073050300296 7469.409247281949
532.0960277716204 7366.611037639748
533.1187448705896 7418.76946909863
534.1412016784416 7400.039170529351
535.1633982763833 7372.377885686391
536.1853347455726 7343.809313839568
537.2070111671401 7432.182977342139
538.2284276221817 7349.97963482334
539.2495841917516 7323.157741169134
540.2704809568677 7281.5053402694175
541.2911179985167 7274.3288708128775
542.3114953976419 7264.602469097643
543.3316132351592 7219.231681553794
544.3514715919409 7295.784139512146
545.3710705488247 7256.909654654026
546.3904101866156 7210.45913704297
547.4094905860784 7235.851421753296
548.4283118279418 7327.148825630347
549.4468739929034 7285.793427363875
550.4651771616191 7291.5568659627215
551.4832214147063 7206.972975594219
552.501006832761 7337.594916446838
553.5185334963226 7287.10714113121
554.5358014859103 7326.701491225487
555.5528108820035 7323.475549472807
556.5695617650363 7408.182778241443
557.5860542154242 7301.37665015909
558.6022883135283 7260.507217539658
559.6182641396881 7212.649858929835
560.6339817741991 7255.685523358474
561.6494412973225 7247.994825798329
562.6646427892883 7357.473459699466
563.6795863302796 7184.924408960915
564.694272000459 7174.136135476403
565.7086998799423 7277.685573834281
566.7228700488104 7180.095211562109
567.7367825871115 7153.71119910041
568.7504375748576 7187.415519225154
569.7638350920224 7153.164346803327
570.7769752185486 7120.034933029152
571.7898580343353 7133.473577688319
572.802483619258 7056.128583535836
573.8148520531431 7246.135575150952
574.8269634157932 7221.732182047468
575.8388177869692 7181.5863993785215
576.8504152463938 7186.770297596476
577.8617558737587 7329.787389234676
578.8728397487175 7160.668765867244
579.883666950891 7233.550769782892
580.8942375598654 7356.511152243482
581.9045516551851 7371.0288238391295
582.9146093163617 7555.13742730873
583.924410622878 7311.252098436702
584.9339556541727 7411.805716396603
585.9432444896538 7468.833789100987
586.9522772086875 7398.995135201671
587.9610538906127 7444.135488133625
588.9695746147318 7412.130197827809
589.9778394603054 7420.3065915297675
590.985848506567 7314.896974131613
591.9936018327098 7292.2399376409685
593.0010995178891 7144.156237249593
594.0083416412344 7221.355372069821
595.0153282818283 7082.029941172359
596.0220595187293 7028.861708686805
597.0285354309508 6972.055765555109
598.0347560974806 7004.249073194204
599.0407215972609 6954.076249304557
600.0464320092051 6928.062858966514
601.0518874121954 6905.160870640202
602.0570878850685 6957.679285887202
603.062033506636 6982.081244395658
604.0667243556636 6933.618535216233
605.0711605108936 6811.562119471353
606.0753420510264 7102.778555116667
607.0792690547278 6940.130458744774
608.082941600629 6863.868947158253
609.0863597673306 6942.6753525859
610.0895236333909 6992.190356874824
611.0924332773357 7170.948536228793
612.0950887776617 7038.095218617231
613.0974902128219 7059.3195402679385
614.0996376612384 7283.042066838791
615.1015312013005 7409.021970468004
616.1031709113595 7435.08905557964
617.1045568697336 7339.087112270693
618.1056891547069 7433.7069655437035
619.1065678445229 7533.571397721718
620.1071930173985 7754.06242848698
621.1075647515099 7835.492609227124
622.1076831250048 7834.482388717957
623.1075482159849 7907.654962267962
624.1071601025305 7933.016979167362
625.1065188626781 8053.706416090694
626.105624574433 8215.891794306039
627.1044773157682 8248.778363475967
628.1030771646128 8156.628433224486
629.1014241988742 8313.167264360998
630.0995184964158 8402.610671785707
631.0973601350688 8432.733210844632
632.0949491926294 8571.434877834263
633.0922857468631 8369.763698824732
634.089369875499 8432.11262754081
635.0862016562278 8434.660448172615
636.0827811667077 8261.375672798931
637.0791084845641 8301.517239180766
638.0751836873878 8201.275308990713
639.0710068527369 8252.741295073709
640.0665780581294 8072.719678551095
641.0618973810506 7981.496730858661
642.0569648989604 8013.201996538434
643.0517806892676 7772.10834356255
644.0463448293649 7858.472030495138
645.040657396592 7716.548919561991
646.0347184682723 7620.104091373582
647.0285281216875 7449.053170976316
648.0220864340772 7394.137273359434
649.0153934826558 7323.015398360796
650.0084493446047 7303.6377622801565
651.0012540970674 7267.683852633348
651.9938078171526 7221.297646450199
652.9861105819346 7153.827719034559
653.9781624684565 7254.965170273108
654.9699635537254 7046.497016024592
655.9615139147136 7105.457371937109
656.9528136283589 6880.4055695105735
657.9438627715699 7012.8617358316305
658.9346614212154 6963.676446892797
659.925209654135 6762.49803273794
660.9155075471263 6796.505944068593
661.9055551769616 6796.771821836095
662.895352620375 6858.557942284029
663.8848999540678 6727.126150573201
664.8741972547068 6576.898564273617
665.863244598926 6614.844567256916
666.8520420633213 6621.510358778056
667.8405897244611 6546.903898489984
668.8288876588758 6454.220037346784
669.8169359430613 6532.354045448706
670.8047346534822 6507.931199979297
671.7922838665672 6380.845147136727
672.7795836587156 6511.471444183277
673.766634106285 6599.329170368923
674.7534352856092 6384.348913926491
675.7399872729766 6391.411166642117
676.7262901446538 6424.277509931179
677.712343976862 6449.129982523136
678.6981488457986 6469.368120829715
679.6837048276229 6388.027408383273
680.6690119984596 6441.788578148311
681.6540704344043 6398.356668632126
682.6388802115107 6354.242013838362
683.6234414058108 6364.908880792286
684.6077540932874 6308.320707123339
685.591818349907 6336.158821799812
686.575634251587 6370.904962830298
687.5592018742263 6264.4310139024055
688.5425212936734 6165.8132278834255
689.5255925857564 6409.4220069789235
690.5084158262707 6302.499633075358
691.4909910909646 6191.616403221845
692.4733184555644 6264.520155941192
693.4553979957618 6374.7974479725
694.4372297872123 6292.3036059096285
695.4188139055404 6277.463009710858
696.4001504263324 6324.848099218011
697.3812394251509 6368.931047781092
698.3620809775111 6308.042600785446
699.3426751589104 6263.948724994372
700.3230220448004 6297.392561756823
701.3031217106054 6304.243721512545
702.2829742317172 6538.459777666867
703.2625796834873 6273.704884764344
704.2419381412474 6342.745598414394
705.22104968028 6363.607347924137
706.1999143758458 6399.90548321279
707.178532303169 6440.223238020093
708.1569035374378 6469.206389485297
709.1350281538107 6551.457141820184
710.1129062274158 6592.787334608559
711.0905378333373 6797.354859976147
712.0679230466376 6834.619462548339
713.0450619423427 7046.508489025194
714.0219545954424 7273.2103916576325
714.9986010808989 7313.16252148272
715.9750014736292 7455.991694892453
716.9511558485392 7669.180383776091
717.9270642804786 7903.836775693938
718.9027268442787 8081.510968764422
719.8781436147328 8047.449608872166
720.8533146666014 8087.858082329129
721.828240074612 8180.662918341821
722.8029199134635 8079.257124575692
723.7773542578125 8022.965617740165
724.751543182294 7867.686592297503
725.7254867615029 7822.864551783273
726.6991850700015 7609.535828350185
727.6726381823228 7575.62822525793
728.6458461729599 7511.408440606555
729.6188091163858 7425.586188474493
730.5915270870246 7533.883437912549
731.5640001592856 7461.3880548927045
732.536228407529 7510.43688842689
733.5082119060917 7573.276039880171
734.4799507292755 7637.436911403539
735.4514449513481 7717.095873660005
736.4226946465496 7753.3119642467045
737.3936998890786 7802.861756425113
738.3644607531078 7598.700279521368
739.3349773127793 7600.27946704002
740.3052496421951 7515.510091634511
741.27527781543 7324.042349579347
742.2450619065221 7117.699189223131
743.2146019894826 7050.402062734775
744.183898138288 6964.63734964335
745.1529504268801 6701.852452857385
746.1217589291682 6533.328495680898
747.0903237190341 6391.159750492086
748.058644870318 6417.272175901145
749.0267224568397 6271.799816117897
749.994556552374 6048.909529358167
750.9621472306771 6133.491196746001
751.9294945654583 6073.1537063521855
752.8965986304011 6045.9095242890635
753.8634594991636 5963.119511590414
754.8300772453586 5976.193431933062
755.7964519425768 5912.202570337304
756.762583664371 5952.916848320177
757.7284724842611 5951.676811233389
758.6941184757416 5858.551311967022
759.6595217122667 5865.396172243953
760.6246822672638 5868.553091913192
761.5896002141235 5670.315233567627
762.5542756262093 5782.785485816036
763.5187085768503 5785.751940825943
764.4828991393406 5770.434205896425
765.4468473869474 5774.14805659339
766.4105533929032 5754.613396960429
767.3740172304078 5702.445369229965
768.3372389726283 5758.287568516314
769.3002186926988 5603.049375981017
770.2629564637282 5669.43488532933
771.2254523587872 5628.243717613389
772.1877064509154 5582.025392346386
773.1497188131179 5468.678566733985
774.1114895183728 5508.9894262434755
775.0730186396268 5533.379647080476
776.0343062497905 5495.892065219456
776.9953524217381 5409.521929427141
777.9561572283274 5539.237259138783
778.9167207423689 5435.5124802114
779.8770430366476 5377.063974422184
780.8371241839159 5332.270401893766
781.7969642568951 5425.510529715548
782.7565633282757 5596.192535319554
783.7159214707099 5410.187906132524
784.6750387568281 5495.51256252995
785.6339152592227 5404.257241226708
786.5925510504512 5338.6458604619065
787.5509462030477 5453.060007049693
788.5091007895098 5396.625613633509
789.4670148823006 5395.467010847864
790.4246885538596 5397.047100143294
791.3821218765861 5359.021463041389
792.3393149228505 5296.422655194831
793.2962677649975 5446.662033045701
794.2529804753303 5396.049734184646
795.20945312613 5415.548184409102
796.1656857896378 5376.466339653015
797.1216785380675 5284.014987410225
798.0774314435985 5469.502343529385
799.0329445783846 5600.9752456272145
799.9882180145414 5512.892033296936
800.9432518241574 5463.435726383201
801.89804607929 5553.7085798200715
802.852600851962 5574.50492978382
803.8069162141637 5526.823694880177
804.760992237856 5559.712312654999
805.714828994971 5616.052488112745
806.6684265574077 5654.20132987967
807.6217849970271 5570.651936614286
808.574904385674 5501.88701389194
809.527784795142 5582.3068538153175
810.4804262972102 5709.415571995737
811.4328289636178 5438.050995282901
812.3849928660748 5363.310373498895
813.3369180762638 5396.441929062637
814.2886046658241 5551.781461632314
815.2400527063783 5341.283010494623
816.1912622695108 5313.073806814397
817.1422334267718 5426.700259946111
818.0929662496856 5311.525429993717
819.0434608097457 5197.59993242529
819.9937171784059 5207.34339089491
820.9437354271013 5125.877828839104
821.8935156272255 5274.820303730589
822.8430578501484 5097.085995730928
823.7923621672016 5010.985140843119
824.7414286496896 5093.138267571182
825.6902573688876 5116.721763313717
826.6388483960363 5095.331882019677
827.5872018023492 5063.229095459338
828.5353176590033 5112.161408369103
829.4831960371503 4980.677208431395
830.4308370079016 4982.751176227344
831.3782406423525 5058.052129424776
832.3254070115545 5046.038678905892
833.2723361865319 4924.22693362002
834.2190282382799 4902.200408171476
835.1654832377644 4960.687485379819
836.1117012559116 4848.7468433775675
837.0576823636256 5046.766645565709
838.003426631778 4932.960561808142
838.9489341312074 4918.802268404719
839.8942049327197 5016.526883897556
840.8392391070975 5042.178910927401
841.7840367250865 4901.263423107102
842.7285978573982 4921.48937000605
843.672922574724 4958.066319771516
844.6170109477152 4872.382602298729
845.560863046996 4895.986961355657
846.5044789431595 4880.065865675127
847.4478587067697 4924.579098292386
848.3910024083561 4991.239450920443
849.333910118421 4904.045246871037
850.2765819074339 4827.51705329214
851.2190178458332 4991.291477564986
852.161218004032 4988.100524169469
853.1031824524016 4923.7477333246115
854.0449112612987 4962.878863276036
854.9864045010327 4954.942891122801
855.9276622418947 4888.25189206603
856.8686845541379 4929.848725646639
857.8094715079915 4890.155231757987
858.7500231736467 5037.541494788185
859.690339621271 4972.686290162119
860.6304209209939 4965.02430465014
861.5702671429244 4913.614285338861
862.5098783571284 4981.2539589344715
863.4492546336569 4952.400267332992
864.3883960425155 4890.841807104485
865.3273026536863 4935.668086611096
866.2659745371238 4786.039503580861
867.2044117627465 5106.319445380077
868.1426144004472 4936.829508466606
869.0805825200823 5037.768784920421
870.0183161914847 5012.94667675021
870.9558154844526 5042.523180202957
871.8930804687552 5052.301265309312
872.8301112141307 4903.274565932148
873.7669077902865 5122.844144805031
874.7034702669062 5180.100446481605
875.6397987136315 5083.529012365767
876.5758932000863 5117.653467334841
877.5117537958522 5148.783207535806
878.4473805704911 5124.929486109414
879.3827735935283 5125.034276327167
880.3179329344603 5142.090964983019
881.2528586627541 5250.821236236338
882.1875508478479 5279.0861575078425
883.1220095591489 5233.778140666563
884.0562348660296 5079.537645382401
884.9902268378391 5229.0202404795355
885.9239855438955 5178.887626422808
886.8575110534839 5133.663118660852
887.7908034358588 5104.989158832959
888.7238627602474 5085.107162656167
889.6566890958475 5146.565900529832
890.5892825118208 4966.5584638650225
891.5216430773125 5112.539478129598
892.4537708614189 5136.312392868885
893.3856659332196 5018.655422375168
894.3173283617652 4961.916009922827
895.2487582160684 5067.1660956932465
896.179955565116 4961.904912216155
897.110920477864 4892.468480121197
898.0416530232451 4871.920874616958
898.9721532701478 4862.93741687695
899.9024212874428 4969.638551659471
900.8324571439662 4801.794951066275
901.7622609085302 4782.700197704546
902.6918326499072 4788.353495732864
903.6211724368477 4868.320013735507
904.5502803380696 4946.96004554261
905.4791564222614 4983.410265990044
906.4078007580792 4818.123193392605
907.3362134141571 4844.436976802195
908.2643944590909 4965.840787795933
909.1923439614493 4764.919498168985
910.1200619897754 4837.771077041245
911.0475486125779 4979.7964524582
911.9748038983344 4895.22144009263
912.9018279155007 4810.027990634522
913.8286207324982 4719.700410918221
914.7551824177117 4875.369311823182
915.6815130395116 4837.78799610798
916.6076126662283 4725.8887920966945
917.533481366163 4738.4556019363345
918.4591192075914 4821.406816876117
919.3845262587565 4854.2575888387255
920.3097025878706 4765.231519289441
921.2346482631237 4744.390859155137
922.1593633526682 4729.456633122321
923.0838479246304 4776.64318373368
924.0081020471061 4875.571387327591
924.9321257881656 4634.223695325479
925.8559192158464 4726.74492578112
926.7794823981512 4589.271807600804
927.7028154030686 4573.271285961036
928.6259182985414 4614.266358889166
929.5487911524906 4730.717630449211
930.4714340328119 4764.896839943997
931.3938470073608 4505.9846370398245
932.3160301439748 4521.148608374936
933.2379835104548 4611.342836367347
934.1597071745709 4677.727408431234
935.0812012040769 4640.7860454949605
936.002465666681 4655.156641400957
936.9235006300696 4614.840367213561
937.8443061619055 4666.270904687839
938.7648823298077 4542.300348298433
939.6852292013809 4575.13241977372
940.6053468441951 4626.564838632189
941.5252353257874 4514.436324752439
942.4448947136698 4613.56338389896
943.364325075323 4579.743409665912
944.2835264782043 4550.9473033370095
945.2024989897309 4582.5836167036305
946.1212426773054 4620.768019182004
947.0397576082851 4623.628765078642
947.9580438500125 4738.641450676967
948.8761014697939 4730.661213848883
949.7939305349064 4728.4199587623825
950.7115311125999 4577.626345807278
951.6289032700952 4607.2867034479805
952.5460470745875 4804.30049230141
953.4629625932339 4641.180694622934
954.3796498931715 4714.3566491047195
955.2961090415029 4690.440369013498
956.2123401053068 4763.647006961405
957.1283431516276 4656.013347939817
958.0441182474842 4653.07027931549
958.9596654598663 4776.543191823147
959.8749848557309 4693.66863531206
960.7900765020167 4642.697157159822
961.7049404656209 4582.253904547384
962.6195768134185 4683.453921916666
963.5339856122537 4655.9158309644
964.4481669289453 4668.589793675388
965.3621208302793 4582.361495223802
966.2758473830145 4530.334070882868
967.1893466538822 4764.468751464058
968.1026187095813 4618.739118827812
969.0156636167867 4562.8168785627295
969.9284814421426 4653.626995508772
970.8410722522622 4549.036966020123
971.753436113735 4497.026347693922
972.6655730931161 4573.670306437934
973.5774832569368 4549.55209593944
974.4891666716958 4504.4868676553815
975.4006234038698 4419.212335484957
976.3118535198955 4458.0323859123155
977.2228570861935 4600.208395508978
978.1336341691494 4528.5893969740655
979.0441848351202 4394.496436358136
979.9545091504333 4548.921072105247
980.864607181391 4560.026321387959
981.7744789942699 4508.981263515095
982.6841246553086 4505.706566445442
983.5935442307236 4501.038384495512
984.5027377867027 4453.774031081251
985.4117053894024 4504.772612155436
986.3204471049557 4449.370282933794
987.2289629994648 4551.33131853637
988.1372531390007 4597.720826748693
989.0453175896091 4532.211552644155
989.9531564173067 4573.922037185364
990.860769688079 4508.88931626967
991.7681574678918 4461.950587974314
992.6753198226706 4569.364934953709
993.582256818323 4472.869495863563
994.4889685207218 4460.485026319999
995.3954549957143 4614.62103595653
996.301716309119 4617.663459641164
997.2077525267232 4511.235991780063
998.1135637142943 4527.668969084598
999.0191499375615 4694.828045238542
999.924511262232 4669.240862415887
1000.8296477539861 4616.081569976499
1001.7345594784656 4516.327005636112
1002.6392465012996 4456.64428314677
1003.5437088880753 4651.087930478983
1004.4479467043584 4674.707096575505
1005.3519600156869 4431.263006660495
1006.2557488875718 4627.130885707175
1007.1593133854858 4635.773844941696
1008.0626535748888 4521.872109118694
1008.9657695212009 4417.609289783345
1009.8686612898182 4678.341712598771
1010.7713289461135 4676.45429362498
1011.6737725554212 4604.649593090849
1012.5759921830577 4607.2031937298225
1013.4779878943027 4563.623513243017
1014.379759754418 4562.221616723677
1015.2813078286254 4531.300262230236
1016.18263218213 4433.09596237818
1017.0837328801026 4421.721656632519
1017.9846099876886 4598.277555026447
1018.8852635700023 4456.214507126129
1019.7856936921362 4348.296911966093
1020.6859004191447 4538.4455611571
1021.5858838160675 4343.381105996045
1022.4856439479063 4394.156795062195
1023.3851808796389 4308.287116495788
1024.2844946762143 4493.253019912236
1025.183585402554 4444.090989687924
1026.082453123554 4189.165523984129
1026.9810979040776 4415.9543642540475
1027.8795198089647 4267.261340808859
1028.777718903024 4462.577151862555
1029.6756952510368 4292.974677557066
1030.5734489177648 4273.349664625307
1031.4709799679313 4338.859290303982
1032.3682884662358 4484.212450340817
1033.2653744773506 4190.386980074736
1034.1622380659192 4299.163358598366
1035.058879296559 4420.299275134281
1035.9552982338591 4491.080384148683
1036.8514949423825 4452.204728127081
1037.7474694866614 4473.280313804298
1038.6432219312028 4335.823859511935
1039.5387523404825 4569.244222538522
1040.4340607789582 4514.533876112554
1041.3291473110476 4591.270319694546
1042.2240120011465 4645.409047286573
1043.1186549136273 4731.934483353236
1044.0130761128294 4745.293052615974
1044.9072756630649 4692.580156988977
1045.8012536286205 4792.807656861395
1046.6950100737577 4905.386104265793
1047.588545062701 4995.297168518397
1048.481858659663 4918.08968120496
1049.3749509288118 5054.5118554455485
1050.2678219343034 4955.416995149096
1051.1604717402515 5011.599883284207
1052.0529004107575 4822.041904120309
1052.9451080098825 4979.708188872554
1053.8370946016694 4907.112658010093
1054.7288602501267 4893.488554290566
1055.6204050192446 4866.241826306161
1056.511728972977 4877.286241838427
1057.402832175254 4810.307255292908
1058.2937146899785 4714.856870076187
1059.1843765810263 4733.221227769522
1060.0748179122456 4732.106661666789
1060.9650387474576 4728.135620573747
1061.855039150456 4720.600604364032
1062.7448191850071 4670.08028314408
1063.6343789148505 4616.74055971769
1064.5237184037014 4755.556890087552
1065.412837715241 4624.867365837601
1066.3017369131267 4512.775945695265
1067.190416060992 4529.330798417452
1068.0788752224398 4499.122484962118
1068.9671144610438 4406.686579069872
1069.8551338403558 4585.8982118010845
1070.7429334239023 4510.866063991682
1071.6305132751695 4306.411836405858
1072.517873457633 4543.19226235046
1073.4050140347335 4443.1127855368
1074.2919350698776 4488.794817558696
1075.1786366264623 4331.946359596354
1076.0651187678395 4372.130108848709
1076.95138155735 4358.031329138016
1077.8374250582929 4343.631357191329
1078.7232493339507 4365.134666318653
1079.608854447577 4340.452285666264
1080.4942404623907 4323.684489882768
1081.3794074415982 4328.13688642681
1082.2643554483657 4570.415106035127
1083.149084545841 4337.506319195327
1084.033594797138 4306.403925268567
1084.9178862653516 4360.175838438774
1085.8019590135427 4588.990504872948
1086.6858131047484 4387.984879748676
1087.5694486019802 4560.608588869896
1088.4528655682225 4531.35777055297
1089.3360640664287 4650.760728024599
1090.2190441595321 4584.034195606688
1091.1018059104317 4604.416670706759
1091.98434938201 4670.420520513772
1092.866674637111 4706.997343640951
1093.748781738559 4655.041780857217
1094.6306707491512 4531.806175767507
1095.5123417316554 4691.038090187149
1096.3937947488157 4497.825349203908
1097.2750298633455 4573.706068574239
1098.156047137938 4570.561707459822
1099.0368466352556 4553.086385601097
1099.9174284179317 4697.173170283681
1100.7977925485757 4418.772117626384
1101.6779390897755 4477.121279894065
1102.5578681040806 4469.603345988422
1103.4375796540226 4406.278224891508
1104.3170738021054 4373.835026640823
1105.1963506108077 4251.050021285061
1106.0754101425773 4201.05149367583
1106.9542524598382 4314.09980024216
1107.8328776249855 4268.3920069083415
1108.7112857003904 4202.526754350726
1109.5894767483987 4203.143812941195
1110.4674508313292 4328.333354737982
1111.3452080114657 4155.825216905936
1112.2227483510815 4278.1903971099255
1113.1000719124077 4259.869468951827
1113.9771787576592 4284.015981481193
1114.854068949022 4209.332006102979
1115.7307425486542 4338.899154117458
1116.6071996186893 4306.378271316801
1117.483440221229 4675.84376933216
1118.3594644183577 4213.096521336879
1119.235272272128 4370.262027947572
1120.1108638445658 4431.31689865222
1120.9862391976712 4602.658311177227
1121.8613983934229 4462.885382748348
1122.7363414937627 4516.528943492201
1123.6110685606182 4535.035112405612
1124.485579655884 4644.041994652156
1125.359874841426 4590.61293716964
1126.2339541790916 4540.520449867762
1127.1078177306936 4801.473379466114
1127.9814655580267 4643.109334063788
1128.854897722851 4693.989755685629
1129.7281142869106 4655.6408670195615
1130.6011153119125 4690.959855451345
1131.473900859548 4859.283147793511
1132.3464709914697 4679.823863429834
1133.2188257693178 4671.809015342972
1134.0909652546961 4619.007956286893
1134.96288950919 4496.080551208658
1135.8345985943506 4656.251821337272
1136.7060925717087 4383.128078169021
1137.57737150277 4499.985949711368
1138.4484354490069 4629.913080060791
1139.3192844718778 4443.1585061586875
1140.1899186327992 4273.299282565629
1141.060337993178 4514.4645879812915
1141.930542614382 4419.792272364107
1142.8005325577597 4339.510297866367
1143.670307884635 4119.616817997432
1144.5398686563003 4219.148172272904
1145.409214934025 4310.750977073454
1146.2783467790541 3975.414485187278
1147.1472642526023 4152.134301757865
1148.0159674158622 4253.4910437093695
1148.8844563300026 4166.022259663854
1149.7527310561618 4043.890661780446
1150.6207916554504 4063.4515153185057
1151.4886381889592 3955.732025872084
1152.3562707177498 4195.924672958373
1153.2236893028585 4021.040938008971
1154.090894005296 4014.592883485948
1154.9578848860474 4026.66009958825
1155.8246620060709 4009.319312062106
1156.6912254262988 3847.8337373355716
1157.5575752076438 3958.332293899024
1158.42371141098 4148.583027689264
1159.2896340971656 4100.328330700105
1160.1553433270346 3995.116353459764
1161.0208391613887 3997.814988734213
1161.8861216610057 4005.886427337301
1162.75119088664 4001.8408398471233
1163.6160468990201 3964.280292839372
1164.4806897588442 3933.7059076345054
1165.3451195267917 3951.1782007437823
1166.2093362635114 4032.19888610241
1167.0733400296285 3967.97360590257
1167.9371308857444 3923.731235564209
1168.8007088924278 3838.4361809979773
1169.6640741102328 4004.4370282176374
1170.5272265996773 3873.0326073929587
1171.390166421259 3779.593534281213
1172.252893635452 3991.6375165312224
1173.1154083026995 4109.978363303851
1173.977710483421 3995.4436225076706
1174.8398002380145 3806.6032636293194
1175.7016776268483 3974.6153766862685
1176.563342710264 3924.8990403136913
1177.4247955485826 3914.6651267806906
1178.2860362020947 4033.7561176652735
1179.147064731069 3807.6145396568995
1180.0078811957483 4027.4672019375926
1180.8684856563486 3951.563835060161
1181.7288781730604 3952.477672442442
1182.589058806052 3958.09482516352
1183.4490276154593 4159.212342102599
1184.3087846614017 3919.105823421258
1185.1683300039676 3975.0216235136622
1186.027663703222 4166.258378876742
1186.8867858192025 4025.8054941091286
1187.7456964119228 4072.587968934576
1188.6043955413716 4177.147637603087
1189.4628832675116 4159.986124216501
1190.3211596502842 4276.510801707787
1191.179224749596 4216.239698750008
1192.0370786253388 4119.228226846541
1192.8947213373758 4349.441002123822
1193.7521529455407 4428.511275429915
1194.6093735096438 4170.371194575993
1195.466383089477 4226.844917173421
1196.3231817447977 4149.483261472153
1197.1797695353398 4445.201024605032
1198.0361465208189 4125.588554012034
1198.8923127609214 4260.878622323426
1199.7482683153048 4358.235945906032
1200.6040132436028 4407.316503337572
1201.459547605431 4203.720302464585
1202.3148714603722 4274.499808287006
1203.1699848679855 4237.380276489363
1204.0248878878065 4417.518941958014
1204.8795805793507 4055.206850247401
1205.7340630020935 4349.156977329554
1206.5883352155033 4331.119184978595
1207.4423972790064 4232.396990561373
1208.2962492520237 4138.779338729136
1209.1498911939307 4152.260817681239
1210.0033231640937 4178.560251088662
1210.8565452218427 4207.810769991916
1211.7095574264913 3862.5359115853694
1212.5623598373222 3984.7057876738654
1213.4149525135963 3913.7491461873133
1214.2673355145507 4071.899826407497
1215.1195088993936 3952.7375140766044
1215.9714727273113 3882.169049722253
1216.8232270574663 4061.5275345537316
1217.6747719489904 3760.6524085163996
1218.5261074609934 3882.492880685838
1219.3772336525653 3954.4923667302623
1220.2281505827668 3958.510992014628
1221.0788583106296 4012.4970698935986
1221.9293568951707 3830.939095438167
1222.7796463953746 3822.3922472582576
1223.629726870202 3877.8765379172255
1224.4795983785934 3947.3257734148074
1225.3292609794553 3813.6113221493424
1226.1787147316809 3767.9130064991114
1227.0279596941327 3778.7397328384313
1227.8769959256424 3931.4668753279752
1228.7258234850306 3948.914442359247
1229.5744424310833 3717.5302680152154
1230.422852822563 3894.092156982716
1231.2710547182105 3967.9371859475896
1232.119048176739 3886.622071429095
1232.9668332568417 3703.893462621704
1233.8144100171812 3836.561747018918
1234.6617785163999 3888.2152356651773
1235.508938813111 3602.4164334355933
1236.3558909659114 3735.1548786835992
1237.2026350333617 3857.7945882385065
1238.049171074008 3934.782612954115
1238.8954991463652 3726.51672134688
1239.741619308932 3859.046563460352
1240.587531620169 3896.7649809551194
1241.4332361385277 3933.5546905554997
1242.2787329224248 3721.2277116074465
1243.1240220302534 3712.491113107888
1243.9691035203869 3700.663275286105
1244.813977451171 3932.8190984032362
1245.6586438809263 3858.4568244231514
1246.5031028679496 3660.061878120686
1247.3473544705157 3899.0992508346
1248.1913987468706 3869.322813353244
1249.0352357552383 3673.0251770171344
1249.8788655538228 3741.386060445482
1250.7222882007918 3948.930043613018
1251.565503754302 3934.4285180773295
1252.4085122724755 3633.270053187471
1253.2513138134182 4012.969766472214
1254.0939084352049 3880.4210646488405
1254.9362961958905 3865.12760770053
1255.7784771535007 3868.891671194336
1256.6204513660432 3915.5526898299586
1257.4622188915 4075.5703594315128
1258.3037797878242 3890.318242053301
1259.1451341129468 3883.0059277663304
1259.9862819247755 3972.7327397051995
1260.8272232811978 3947.0845956887447
1261.6679582400666 4115.61319928133
1262.5084868592203 3790.9076213380977
1263.34880919647 3841.5219051916015
1264.1889253095997 3984.8082668661505
1265.0288352563712 4092.3925220554374
1265.8685390945266 3861.752530040999
1266.7080368817751 4066.8452477407823
1267.5473286758115 4163.19846272583
1268.386414534294 4058.377267528672
1269.2252945148703 3793.290477950716
1270.0639686751547 4024.9401421449948
1270.9024370727402 3912.0854310840027
1271.7406997651997 3948.6506918787527
1272.5787568100714 3773.7457091029924
1273.4166082648808 3909.8443153842672
1274.2542541871244 3888.8734029776365
1275.091694634275 4172.683078434997
1275.9289296637817 3845.7528907004307
1276.7659593330663 4013.76587865283
1277.6027836995308 3961.4384707121994
1278.4394028205552 4022.995869408472
1279.2758167534867 3987.6392530543317
1280.112025555658 3961.8144803220384
1280.9480292843746 3971.795320578761
1281.7838279969128 3859.8366369910204
1282.6194217505326 3926.094938426043
1283.4548106024686 3799.2822938928375
1284.289994609926 3929.435960538717
1285.1249738300921 4083.767044372409
1285.959748320127 3797.7873879596978
1286.7943181371702 3938.2509787930894
1287.6286833383328 3947.516167326807
1288.4628439807038 4026.3259305698643
1289.2968001213521 3874.529255667905
1290.1305518173194 3941.1178086620466
1290.9640991256183 3911.071971155003
1291.7974421032523 3898.5964325599903
1292.630580807183 3968.6641313411537
1293.463515294361 4050.628273890935
1294.29624562171 4230.274498470854
1295.12877184613 3980.1849969398427
1295.961094024493 3949.2952804509137
1296.79321221365 4081.8853189681918
1297.6251264704333 4153.395344699385
1298.4568368516466 4311.65470187072
1299.2883434140658 4155.605836097275
1300.1196462144526 4054.823417993961
1300.9507453095375 4254.199719381847
1301.7816407560313 4317.347263555913
1302.6123326106172 4275.204365373238
1303.4428209299622 4155.335806710329
1304.2731057707024 4458.7714673594255
1305.1031871894502 4267.992701823898
1305.933065242798 4409.289507988551
1306.7627399873181 4426.357262122997
1307.5922114795467 4703.94977046645
1308.4214797760123 4768.695235504394
1309.2505449332057 4404.057965855606
1310.0794070076026 4500.509442377338
1310.9080660556538 4634.631817329329
1311.736522133786 4661.858070578501
1312.5647752983987 4437.699415768885
1313.3928256058734 4364.513650824868
1314.2206731125661 4592.672202494459
1315.048317874809 4593.9590786289045
1315.8757599489109 4459.165333902985
1316.7029993911547 4637.441967568494
1317.5300362578055 4809.958350367377
1318.356870605101 4508.925013497396
1319.183502489257 4518.93976945753
1320.0099319664623 4628.733186715621
1320.836159092889 4655.789526576534
1321.66218392468 4751.444211592176
1322.4880065179532 4476.619358172287
1323.3136269288134 4703.548152031165
1324.1390452133292 4735.861008497553
1324.9642614275563 4739.302306322973
1325.7892756275214 4606.299158491307
1326.6140878692295 4411.322960357915
1327.4386982086617 4890.174450281279
1328.2631067017755 4627.40715350609
1329.0873134045069 4617.3979949374
1329.911318372764 4490.030653639137
1330.735121662441 4447.183028694368
1331.558723329399 4367.2065820864045
1332.3821234294774 4310.525486311142
1333.2053220185007 4319.807214398637
1334.0283191522612 4286.989300507651
1334.851114886529 4418.391748803936
1335.6737092770582 4093.4345817137
1336.4961023795695 4192.132725972281
1337.3182942497697 4048.355011669534
1338.1402849433325 4164.885773366381
1338.962074515921 3977.351303571371
1339.7836630231632 3901.9815151157936
1340.6050505206676 4365.535941278691
1341.426237064028 4109.287768277777
1342.2472227088037 3892.43158779038
1343.0680075105338 3909.940053132907
1343.888591524741 3959.54296806887
1344.7089748069138 4092.5717068862214
1345.5291574125276 3878.1099098233763
1346.3491393970307 3754.0554440336914
1347.168920815846 4000.3357371256157
1347.9885017243778 3939.49939302628
1348.8078821780036 3857.7359703124157
1349.6270622320844 3881.9000080063242
1350.4460419419447 3794.1420405093727
1351.2648213629054 3886.4449872432415
1352.0834005502438 3679.6724157413423
1352.90177955923 3687.0272967376304
1353.7199584451064 3798.8535182234787
1354.5379372630887 3842.499700995907
1355.355716068374 3772.3536109305614
1356.1732949161305 3655.6524525608484
1356.9906738615155 3720.6035359294865
1357.8078529596478 3709.2673566974627
1358.6248322656375 3840.2199719436626
1359.441611834567 3673.7538414391647
1360.2581917214866 3893.4231282841974
1361.0745719814367 3764.680097757303
1361.890752669433 3656.217983568417
1362.7067338404577 3575.9545421247776
1363.5225155494845 3759.851773558245
1364.3380978514506 3858.403146896577
1365.1534808012839 3444.696476962848
1365.9686644538815 3401.640127355086
1366.783648864117 3773.6373576594547
1367.5984340868417 3860.4503898442176
1368.413020176893 3739.8734831959273
1369.2274071890715 3504.8404368219153
1370.0415951781652 3861.6406061941207
1370.8555841989346 3725.9863625130065
1371.6693743061223 3492.665828705854
1372.48296555444 3443.0906109232906
1373.2963579985844 3761.3552467082945
1374.1095516932255 3766.1133644956717
1374.9225466930166 3357.1750154431224
1375.7353430525782 3713.7885018167426
1376.5479408265164 3510.974713078079
1377.36034006941 3691.927736136945
1378.1725408358216 3694.651252522989
1378.9845431802805 3497.96008617283
1379.796347157304 3916.8056693778117
1380.6079528213813 3759.6226597167415
1381.4193602269788 3546.003503369481
1382.230569428546 3549.712596371999
1383.0415804805016 3696.606020626413
1383.852393437246 3700.9273892696083
1384.6630083531563 3594.122259150778
1385.4734252825892 3666.051640358728
1386.2836442798798 3642.349374818333
1387.0936653993322 3677.715301504669
1387.9034886952395 3628.0314994733585
1388.713114221864 3749.9528424591954
1389.5225420334482 3760.432423158252
1390.331772184214 3658.759183000896
1391.1408047283585 3463.1242489120223
1391.9496397200564 3607.6053511299237
1392.758277213461 3847.6759046224893
1393.5667172627054 3836.855636424364
1394.3749599218918 3633.1517221249414
1395.1830052451114 3496.755378922774
1395.9908532864265 3648.8146392333924
1396.7985040998774 3695.5180396057076
1397.6059577394808 3590.2758294899163
1398.4132142592352 3667.3127208714454
1399.2202737131156 3610.2601478535494
1400.027136155073 3856.546445975666
1400.8338016390353 3618.4576593355887
1401.6402702189134 3572.3250881816725
1402.446541948586 3700.089290114241
1403.2526168819204 3452.78384883489
1404.058495072757 3615.6264929123536
1404.8641765749107 3495.6603904545614
1405.6696614421799 3635.817898965768
1406.4749497283356 3949.0135831466932
1407.280041487129 3530.1458893149224
1408.084936772295 3416.6721267855974
1408.8896356375335 3673.987781746633
1409.6941381365323 3671.3276035908843
1410.498444322955 3457.3170336608114
1411.3025542504402 3542.745871396527
1412.106467972606 3564.2361152909243
1412.9101855430508 3538.0853189999993
1413.7137070153458 3450.3836651999277
1414.5170324430437 3595.2525160519954
1415.320161879672 3697.399259802496
1416.1230953787435 3794.1242747908245
1416.925832993742 3466.0061082955303
1417.7283747781275 3358.609165742201
1418.5307207853439 3593.634849525043
1419.3328710688093 3555.1750145026317
1420.134825681922 3315.714015872767
1420.9365846780584 3564.763102246428
1421.7381481105713 3781.737288320809
1422.539516032788 3720.0641094189727
1423.3406884980232 3454.4363983479757
1424.1416655595604 3463.8146994795984
1424.942447270665 3528.9686349645317
1425.7430336845828 3678.463655838483
1426.5434248545298 3396.054451477292
1427.3436208337116 3726.6829643234864
1428.143621675301 3757.4757998634277
1428.9434274324558 3909.2819886841476
1429.7430381583108 3561.2489847045617
1430.5424539059713 3678.3911605936346
1431.3416747285337 4154.884763904315
1432.1407006790632 3893.297905816476
1432.9395318106053 3796.1392793523496
1433.7381681761835 3668.292914909479
1434.5366098288014 3849.88500678005
1435.3348568214424 3873.5577955962194
1436.1329092070573 3754.0975507694966
1436.9307670385879 3856.1890900822777
1437.7284303689503 3911.4270492905553
1438.5258992510335 3948.100019223663
1439.3231737377118 3816.3849325855867
1440.1202538818306 3781.7090164069764
1440.9171397362225 3767.597688496656
1441.7138313536925 3714.8548457507177
1442.5103287870243 3598.7871609210765
1443.3066320889775 3644.559643612949
1444.1027413122956 3893.2276785724926
1444.8986565096966 3610.902166854367
1445.694377733882 3704.038327346968
1446.4899050375207 3496.2400457489407
1447.2852384732687 3610.873261106244
1448.0803780937622 3675.5674869704576
1448.8753239516063 3499.374608234318
1449.6700760993954 3419.959985637276
1450.464634589689 3560.7991061314488
1451.2589994750397 3761.113576799596
1452.0531708079689 3451.4150305488765
1452.8471486409799 3380.6565678974853
1453.6409330265524 3656.185721584123
1454.4345240171442 3438.6328287444094
1455.2279216651987 3380.9201682505495
1456.0211260231263 3502.513093004388
1456.8141371433194 3806.1365534465644
1457.6069550781594 3493.129574195583
1458.3995798799897 3275.3876560176113
1459.1920116011424 3362.0159842296416
1459.98425029393 3280.930871151362
1460.7762960106338 3276.9838951256365
1461.5681488035225 3400.351791995285
1462.3598087248392 3441.1660187776956
1463.1512758268036 3634.5697083059727
1463.942550161617 3296.063425331259
1464.7336317814625 3325.6756021054157
1465.524520738496 3433.5313162975035
1466.3152170848552 3233.770473509777
1467.1057208726506 3332.3491587265453
1467.8960321539817 3182.476582694918
1468.6861509809169 3151.0815289854136
1469.4760774055085 3223.124894243404
1470.265811479785 3187.2914542760304
1471.055353255755 3099.7029293505466
1471.844702785409 3076.4430808219267
1472.6338601207044 3060.7854572342676
1473.4228253135934 3308.688992522892
1474.2115984159936 3091.430993335581
1475.0001794798063 2892.353763996796
1475.7885685569145 3148.2344443392276
1476.576765699172 3118.7126813192767
1477.3647709584238 3035.046494043858
1478.1525843864802 3322.3776824851193
1478.9402060351367 3082.9240481769116
1479.7276359561693 3111.392132919399
1480.514874201328 3094.8616960399327
1481.3019208223468 2856.110577360198
1482.0887758709323 2870.516370551739
1482.8754393987747 3129.6287499094924
1483.6619114575406 2897.558503384934
1484.4481920988783 2913.251985653025
1485.2342813744108 3034.4352178584213
1486.0201793357446 3229.895609663174
1486.8058860344572 2857.239350174096
1487.591401522117 2990.727805054642
1488.3767258502594 3003.3736884687128
1489.1618590704056 3029.7297835490635
1489.9468012340494 2780.9761206832654
1490.7315523926754 3087.918684658144
1491.5161125977356 3132.19265640039
1492.3004819006637 3056.7684205800115
1493.084660352877 2918.0235166431
1493.8686480057622 3152.8788303918586
1494.6524449106964 3208.411577333459
1495.4360511190262 3250.851878422272
1496.219466682087 3019.2118800518024
1497.0026916511779 3087.879146131857
1497.7857260775945 3015.513681162266
1498.5685700125996 3116.55440123403
1499.3512235074395 2841.795151995534
1500.133686613337 2910.541175449963
1500.9159593814966 2875.1423172181844
1501.698041863101 2847.8793651060323
1502.4799341093094 2820.71373951463
1503.2616361712662 2740.5037750722827
1504.043148100087 3103.909238078196
1504.8244699468742 3044.6112535159114
1505.6056017626997 2847.520426995113
1506.3865435986281 2800.8868203091597
1507.1672955056893 3017.9273348920733
1507.9478575348967 2914.193434855445
1508.7282297372512 3125.82586952268
1509.5084121637192 2947.44920551082
1510.2884048652577 2942.4042576883558
1511.0682078927948 2887.9581360727966
1511.8478212972423 2864.663190865031
1512.6272451294917 2856.1813751005698
1513.4064794404076 3052.101468227272
1514.1855242808433 3093.5921691988583
1514.9643797016215 2890.54163029744
1515.743045753552 3033.9770382778147
1516.5215224874191 3091.1858818793335
1517.2998099539836 2765.0819095292322
1518.077908203999 2915.1417916953797
1518.8558172881785 2904.095855274468
1519.633537257234 3090.827534669144
1520.4110681618404 3003.9824758382924
1521.1884100526604 3073.4841176685795
1521.9655629803365 2896.2149715650057
1522.7425269954856 3217.216333139025
1523.5193021487103 3374.615032450306
1524.2958884905856 2918.3067159933935
1525.0722860716687 3040.0327078037017
1525.848494942502 3047.1506015104483
1526.624515153595 3056.0649567970136
1527.4003467554485 3105.5133702570397
1528.175989798534 3238.630389806529
1528.9514443333064 3027.963111669034
1529.726710410203 3334.1511174068487
1530.5017880796331 2948.8416725269426
1531.276677391992 3094.388674571601
1532.0513783976457 3303.6012774318115
1532.825891146953 3135.2258094708654
1533.6002156902414 3232.7776077895423
1534.3743520778207 3018.9550611419677
1535.1483003599806 3119.626417149519
1535.9220605869923 3219.8786115751727
1536.6956328091019 3176.1478818466285
1537.4690170765407 2977.6627124719807
1538.242213439511 3176.487593347866
1539.015221948208 3100.884391878878
1539.78804265279 3060.012088120661
1540.560675603405 2939.50929675922
1541.3331208501804 3218.6832390401037
1542.1053784432224 3239.146281369837
1542.8774484326168 3119.9236002554217
1543.649330868422 3114.4898896468203
1544.4210258006842 3094.0386660797353
1545.1925332794308 3108.5921538496023
1545.9638533546604 2974.6809191954385
1546.7349860763552 2933.301302332514
1547.5059314944829 3278.7442431312325
1548.27668965898 3135.262089562267
1549.0472606197673 3090.642974839764
1549.817644426752 2941.794149255317
1550.5878411298072 3152.5108306469697
1551.3578507787988 3049.21916245973
1552.1276734235635 2870.1924184339596
1552.8973091139233 3021.4847569975655
1553.6667578996767 3134.6084084053055
1554.436019830604 3109.7424319186202
1555.20509495646 2967.923194625006
1555.9739833269869 2929.386805095456
1556.7426849919011 2946.9056716993077
1557.511200000903 3258.603903397188
1558.2795284036674 3153.6876434487067
1559.0476702498509 2975.614272559409
1559.8156255890954 3162.6485323690486
1560.5833944710157 3398.2623608988833
1561.3509769452048 2936.4141637896273
1562.1183730612447 3030.9425663554953
1562.8855828686865 3025.3805984596065
1563.6526064170703 3359.4730551968787
1564.4194437559127 3327.2499669993836
1565.1860949347047 2976.6179952150333
1565.9525600029283 3347.1441957556526
1566.7188390100328 3552.098067377715
1567.4849320054564 3124.1850864126873
1568.250839038612 3097.005420383028
1569.0165601588997 3079.8392528976906
1569.7820954156887 3169.634949442433
1570.5474448583373 3117.4400806149956
1571.31260853618 3099.1247226592377
1572.0775864985299 2977.8306785631166
1572.8423787946813 3107.4568984716598
1573.6069854739108 3104.0742650524594
1574.371406585471 3198.286037111082
1575.1356421785986 3334.286027538065
1575.899692302506 3199.5742622363396
1576.6635570063845 3315.879842782918
1577.4272363394157 3154.9201186853124
1578.190730350747 3048.8557667197265
1578.9540390895163 3315.2961547751015
1579.7171626048384 2831.3122004859915
1580.480100945806 2976.7170053892614
1581.2428541614918 3068.0265820587947
1582.0054223009538 3216.5214411968454
1582.767805413223 3063.8604227678347
1583.5300035473156 3144.5434410885
1584.292016752228 3224.418549107634
1585.0538450769309 3272.8182081659716
1585.8154885703807 2895.0388576562464
1586.5769472815136 2879.7024800958184
1587.3382212592405 3118.0485955159606
1588.099310552463 3232.1476676456923
1588.8602152100484 2963.8519921647066
1589.6209352808564 3159.503345936183
1590.3814708137234 2997.9681945808907
1591.14182185746 2961.8043628612695
1591.9019884608679 2935.442744840658
1592.6619706727215 2847.788912622632
1593.4217685417734 2990.584114552169
1594.1813821167616 3132.2047335650577
1594.9408114464022 2768.688795139132
1595.7000565793933 2944.628915967901
1596.459117564409 3046.8213668085855
1597.2179944501113 2875.5779980177026
1597.9766872851324 2861.592869377221
1598.735196118092 3066.7494511811933
1599.4935209975883 3046.544866612773
1600.2516619721973 3071.5510103513084
1601.0096190904787 2970.700631426369
1601.7673924009723 2908.24913541367
1602.524981952196 2773.2402556243355
1603.2823877926476 2890.6382468036354
1604.0396099708087 2793.7510226047593
1604.7966485351371 2714.5439017510116
1605.5535035340745 2859.0496285779727
1606.3101750160404 3018.972707646271
1607.0666630294363 2768.5707678605027
1607.822967622642 2702.1027182487046
1608.5790888440224 2757.0809954248803
1609.3350267419137 2953.7222646125647
1610.0907813646445 2809.9534821030543
1610.8463527605145 2815.095986323131
1611.601740977805 2946.61147327985
1612.356946064785 2914.752012215094
1613.1119680696902 2613.6166162615846
1613.8668070407512 2787.9970838644545
1614.6214630261748 2733.328528747341
1615.375936074137 3011.1732532396845
1616.1302262328118 2752.633794477898
1616.8843335503425 2892.3478693913685
1617.638258074854 2768.986594192863
1618.391999854457 2908.6132794719915
1619.1455589372363 2979.187924736095
1619.8989353712623 2957.2705774788474
1620.65212920458 2605.064390219972
1621.4051404852235 2773.849470262062
1622.1579692611976 2851.756755549011
1622.9106155804966 2581.431110377205
1623.663079491087 2721.968936978442
1624.4153610409248 2929.0451825810624
1625.1674602779385 2699.1711556710443
1625.9193772500403 2692.4306098125876
1626.6711120051277 2947.2502460249293
1627.4226645910676 2818.906374087245
1628.174035055721 2678.5091234294314
1628.9252234469168 2840.028079203992
1629.676229812474 2709.234496999114
1630.4270542001905 3127.2972918815094
1631.1776966578382 2917.1714313321436
1631.9281572331747 2882.9480087519905
1632.678435973945 3003.2033182244923
1633.4285329278573 2944.8305802854966
1634.1784481426203 2669.930120074138
1634.9281816659113 2814.349189355816
1635.677733545388 3027.1507106331082
1636.4271038286934 2796.021545329573
1637.176292563452 3003.7228849180146
1637.9252997972635 2981.5615272732825
1638.674125577716 3097.729924759054
1639.4227699523672 3339.633169360391
1640.171232968767 2813.83491835878
1640.9195146744423 2980.6902198635953
1641.6676151168977 3094.2673738757626
1642.4155343436178 3227.8333385918854
1643.1632724020765 3006.3204209223454
1643.9108293397167 2997.5766279488303
1644.658205203974 2898.908944525663
1645.4054000422566 3528.4972178235244
1646.1524139019566 2987.9946476505984
1646.8992468304423 2966.410737074811
1647.6458988750728 2915.080500479141
1648.3923700831765 3052.9714585813085
1649.1386605020743 3044.0085015715567
1649.8847701790564 3172.13575257997
1650.6306991614038 3091.1426968844366
1651.3764474963682 3132.8316356952737
1652.1220152311944 2817.406925683853
1652.867402413096 3163.730320118285
1653.6126090892776 3043.097881292094
1654.3576353069184 3296.009538634783
1655.1024811131829 3069.762088692908
1655.8471465552066 3076.3221913907782
1656.5916316801213 3267.669618586882
1657.3359365350298 3161.820994501781
1658.0800611670165 2937.9473403658667
1658.824005623148 3081.4974356046473
1659.5677699504722 2865.0244538930856
1660.3113541960192 3177.352332310076
1661.054758406799 3023.7109925815957
1661.7979826297997 2731.1091452107926
1662.5410269119966 2825.4556573625205
1663.283891300338 3120.040531051402
1664.0265758417645 2869.7754354298027
1664.7690805831826 2951.4559700864916
1665.5114055714948 3121.5312601064807
1666.2535508535748 3220.248760981494
1666.9955164762814 2619.6114154050256
1667.7373024864555 2816.155066886653
1668.478908930916 3007.112285675702
1669.220335856462 2806.118764790909
1669.9615833098778 2785.9250571294842
1670.7026513379296 2661.10976597202
1671.44353998736 2859.9072651717224
1672.1842493048916 2727.2783477174867
1672.9247793372379 2753.545695790784
1673.6651301310812 2806.492023111706
1674.4053017330934 2668.480995088484
1675.1452941899242 2775.4740302304926
1675.885107548207 2392.101733528368
1676.6247418545518 2533.4850994323956
1677.3641971555535 2570.429587200129
1678.1034734977893 2775.151279182201
1678.8425709278108 2663.3842404503603
1679.5814894921605 2880.3512791755265
1680.320229237359 2584.011929035211
1681.0587902098978 2786.527305837696
1681.7971724562685 2639.267544573559
1682.5353760229264 2555.16598732257
1683.2734009563173 2700.2116628233207
1684.0112473028657 2544.6145049753045
1684.7489151089794 2617.7035092035153
1685.4864044210462 2756.691339849073
1686.2237152854377 2326.386177745325
1686.960847748498 2665.278240961824
1687.6978018565642 2385.102606347692
1688.434577655944 2461.0896982166273
1689.1711751929379 2394.417471730565
1689.9075945138156 2557.0675253891122
1690.6438356648396 2449.6993982754384
1691.3798986922448 2160.9797911233773
1692.1157836422499 2491.8294300047855
1692.851490561059 2358.2868406312605
1693.587019494853 2432.847556851887
1694.3223704897991 2249.832805463998
1695.0575435920364 2162.790429256147
1695.792538847696 2646.5833173850015
1696.527356302886 2305.2232244753413
1697.2619960036936 2073.878484932021
1697.9964579961907 2210.176448099353
1698.730742326432 1936.198655996539
1699.4648490404488 2222.7258778095443
1700.1987781842563 2297.1988772151026
1700.9325298038548 2354.2173041783753
1701.6661039452174 2472.213093285647
1702.3995006543082 2333.614545556331
1703.1327199770658 2483.4942005886646
1703.865761959416 2157.561281915035
1704.598626647261 2507.776847040559
1705.3313140864866 2088.8757045445423
1706.0638243229587 2165.806381960986
1706.7961574025303 2295.9909743170597
1707.528313371029 2178.45206918838
1708.260292274268 2040.6879510858435
1708.9920941580403 2204.8490828322574
1709.7237190681226 2231.528353856671
1710.4551670502697 2172.244405424483
1711.18643815022 1977.2762981136052
1711.9175324136959 2062.1034646904204
1712.6484498863938 2147.07339069666
1713.379190614005 1969.670267071341
1714.109754642188 2025.995344927691
1714.8401420165883 2082.565728765264
1715.570352782839 2310.381938869471
1716.3003869865497 2233.5709467965344
1717.0302446733076 1968.2060362394582
1717.7599258886876 2172.777026019505
1718.4894306782444 2378.4144174685543
1719.2187590875183 1939.8244294355522
1719.9479111620203 2419.1243136048447
1720.6768869472544 2093.4971587917507
1721.4056864887025 2361.104775995138
1722.1343098318284 2369.892706594741
1722.8627570220742 2110.9310179540325
1723.591028104871 2044.4323154225435
1724.3191231256242 1877.077747326412
1725.0470421297232 2098.841233293718
1725.7747851625427 2225.22007693228
1726.5023522694337 2245.4240051716433
1727.2297434957363 2169.0648645475185
1727.9569588867635 1931.2271892681224
1728.6839984878152 1848.485855382954
1729.4108623441734 1765.7414909084205
1730.1375505011038 2095.285094139182
1730.8640630038426 2036.4584547157162
1731.5903998976264 1986.8993398975085
1732.316561227657 2120.7027731153767
1733.0425470391274 1880.5995480726228
1733.7683573772065 2085.4560786203137
1734.4939922870508 2095.570813402979
1735.2194518137949 2091.956455833246
1735.9447360025606 2100.4028103678015
1736.669844898439 2117.8591675542693
1737.3947785465189 1911.619948814617
1738.1195369918605 1829.3108244392292
1738.8441202795093 2019.5741645432329
1739.5685284544943 2131.954190972462
1740.292761561821 2112.7111501218815
1741.0168196464838 2114.785986497035
1741.7407027534518 2103.7919361426784
1742.464410927687 2078.2272642824287
1743.187944214118 1996.6790543575753
1743.9113026576688 1969.6429897532466
1744.634486303241 1971.8943744746732
1745.3574951957125 2105.787975244607
1746.0803293799509 2098.4263245991297
1746.8029889008048 1982.5345115968091
1747.5254738031017 2067.000589856739
1748.2477841316504 1871.4506341068275
1748.969919931249 2000.0602388990076
1749.6918812466665 1975.7660742530784
1750.4136681226646 2083.833631340439
1751.1352806039777 2007.680281696485
1751.856718735331 1708.7491916736296
1752.5779825614281 1833.3373522228237
1753.2990721269507 2032.9165229764524
1754.0199874765676 2057.808509358294
1754.7407286549314 1857.4829691410127
1755.4612957066693 1897.7005821345429
1756.1816886763954 1828.494892990981
1756.9019076087097 2097.4062799172425
1757.6219525481865 2013.718051990211
1758.3418235393856 2014.994346722254
1759.061520626854 2026.2704677685579
1759.7810438551096 2227.81977825419
1760.5003932686614 1867.4524571987913
1761.2195689119999 2211.794776149054
1761.938570829594 2012.0139783961865
1762.657399065898 2070.4268747508286
1763.376053665348 1832.1168570512204
1764.0945346723602 1749.2842000383503
1764.812842131334 2110.9442101973414
1765.5309760866512 1916.672364718359
1766.2489365826787 1812.8019153503997
1766.9667236637597 1917.0742202018403
1767.684337374223 1687.6315310608904
1768.401777758383 1807.9465094790642
1769.1190448605284 1902.473058053069
1769.836138724937 1740.6082712541115
1770.5530593958665 1872.641465279763
1771.2698069175603 2114.5407769403546
1771.9863813342326 2052.5232678050675
1772.702782690094 1872.5082055792468
1773.4190110293293 2087.0554802028682
1774.1350663961111 1978.1625410394504
1774.8509488345844 1879.2757017990655
1775.5666583888924 1929.4060604791437
1776.2821951031437 2125.73746312298
1776.9975590214362 1949.6801114195641
1777.7127501878585 2147.077695134708
1778.4277686464684 2009.3222853235281
1779.1426144413108 2079.833907978514
1779.8572876164162 2076.803173807341
1780.571788215797 1767.2255717289045
1781.2861162834415 1944.1178241110642
1782.0002718633277 1843.0921246412745
1782.7142549994132 2026.0860054939417
1783.4280657356376 1962.7424264578324
1784.141704115922 1887.0605374017305
1784.855170184177 1973.3895348842107
1785.5684639842839 1952.2674323911647
1786.2815855601148 1670.6851256153418
1786.9945349555237 2109.605229711358
1787.707312214343 1861.7935655507936
1788.4199173803918 1787.9505413037018
1789.132350497468 1714.1357171191419
1789.8446116093583 1801.0947373107654
1790.556700759822 1813.5870633620666
1791.2686179926077 1943.352151908342
1791.9803633514493 1897.486237191734
1792.6919368800554 1685.1276803426742
1793.4033386221236 2097.6414700868863
1794.1145686213295 2050.044347988964
1794.8256269213307 2093.9432540186654
1795.536513565774 1992.124228404507
1796.247228598284 1626.0827501596482
1796.9577720624693 1835.417405135819
1797.6681440019165 1969.5737427251643
1798.3783444602013 1897.520548629954
1799.0883734808776 1926.4981907460674
1799.7982311074884 1961.189457585981
1800.5079173835475 1956.24016627216
1801.2174323525633 2021.3068311432642
1801.9267760580187 1842.7299901932467
1802.635948543386 1963.8015294393274
1803.3449498521113 1707.8825631526402
1804.0537800276325 1938.9722682907027
1804.7624391133668 1969.1467252569157
1805.47092715271 1645.6190574976438
1806.1792441890484 1790.11196826078
1806.8873902657433 1940.6519693762668
1807.5953654261448 1840.738597316467
1808.3031697135812 1876.9547174272557
1809.0108031713662 1740.2944687976135
1809.71826584279 1900.403980298715
1810.425557771141 1857.5333922611608
1811.1326789996747 1799.0982862383764
1811.839629571632 1740.4971163511134
1812.5464095302468 1827.2500795262902
1813.2530189187182 1857.2775475856095
1813.959457780249 1831.3607087965877
1814.6657261580076 2097.628176259631
1815.371824095153 1896.3675294898426
1816.0777516348262 1944.0002827162425
1816.78350882015 1820.7601404079483
1817.4890956942272 1697.4663504191972
1818.1945123001533 1760.3133713175284
1818.8997586809928 1880.2051150487289
1819.6048348798067 1749.7163015667684
1820.3097409396287 1800.9651903881943
1821.0144769034796 2135.6976708441134
1821.7190428143622 1845.4938753794231
1822.423438715261 1999.847711532296
1823.1276646491478 1793.9516772072088
1823.8317206589727 1877.6329990352067
1824.5356067876692 1833.5782164879736
1825.2393230781581 1773.48961924316
1825.942869573335 1667.1178833849103
1826.646246316086 1749.029454673789
1827.3494533492758 1838.5590690174474
1828.052490715756 1802.8319214027658
1828.7553584583547 1848.7426819248371
1829.458056619891 1957.011831871063
1830.1605852431585 1743.8188648947562
1830.8629443709433 1620.666801401767
1831.5651340460063 1834.5206963890632
1832.2671543110919 1657.5335255149591
1832.9690052089318 1647.463888044742
1833.6706867822395 1637.5071256028546
1834.3721990737104 1911.458934668009
1835.0735421260233 1941.8083857085353
1835.774715981841 1844.7875952979055
1836.4757206838058 1720.4236664810778
1837.1765562745459 1596.1779632605117
1837.8772227966747 1671.3100506964606
1838.5777202927839 1798.321177952433
1839.2780488054523 1721.4287402806422
1839.9782083772352 1696.6242742692732
1840.6781990506806 2031.2626594015594
1841.378020868313 1751.4796378500862
1842.0776738726418 1838.047955255011
1842.777158106157 1648.8277941146948
1843.4764736113375 1635.5615039469358
1844.1756204306403 1877.7097829284849
1844.8745986065078 1876.8573743873264
1845.5734081813607 1726.2561748894514
1846.2720491976124 1778.5348580507773
1846.970521697649 1656.364774694523
1847.6688257238511 1782.195969236414
1848.3669613185684 1871.3716646473113
1849.0649285241452 1891.3202207673226
1849.7627273829057 1911.339567090577
1850.460357937156 1712.6622364791808
1851.1578202291857 1457.6601861857803
1851.8551143012664 1785.2392524989314
1852.5522401956569 1765.2202391372273
1853.2491979545957 1992.6880378196722
1853.9459876203055 1652.1838852494045
1854.6426092349902 1727.0257094392935
1855.3390628408451 1640.0916880689274
1856.0353484800362 1900.0289198905273
1856.7314661947203 1752.0791731428114
1857.4274160270397 1618.6478914172471
1858.123198019115 1702.9455589262263
1858.8188122130487 1686.9868570026974
1859.5142586509319 1708.2334634214963
1860.209537374838 1702.6304183064944
1860.9046484268183 1704.8061417020956
1861.599591848917 1616.246713021087
1862.294367683151 1527.5351359923302
1862.988975971528 1671.2248133811252
1863.6834167560355 1735.0613286717955
1864.3776900786452 1913.896653858598
1865.0717959813119 1707.8967846448336
1865.7657345059724 1722.2058977061934
1866.4595056945564 1900.6112237336529
1867.1531095889586 1764.1301978999595
1867.846546231076 1478.9287176147468
1868.5398156627743 1821.2970062795175
1869.2329179259123 1660.9159125626848
1869.9258530623283 1604.5199824765336
1870.618621113843 1547.9944578643701
1871.3112221222636 1576.4561888972548
1872.0036561293764 1629.5059009557656
1872.695923176956 1849.6015465515552
1873.3880233067594 1856.2638949282568
1874.0799565605212 1619.1067342095862
1874.7717229799673 1660.876300460117
1875.4633226068036 1982.2255669537499
1876.1547554827175 1786.1792840809926
1876.8460216493859 1542.1374656822807
1877.5371211484617 1701.5949691312683
1878.2280540215852 1587.5402267211762
1878.9188203103804 1473.2782286806555
1879.6094200564548 1695.0238775107166
1880.299853301396 1532.3092075945458
1880.9901200867826 1979.7642780171452
1881.6802204541673 1854.269622496179
1882.3701544450942 1870.7318064101223
1883.059922101087 1532.392665236207
1883.7495234636517 1925.8833070638746
1884.4389585742792 1561.2277319489344
1885.1282274744517 1654.9437773936875
1885.8173302056166 1701.9647196064248
1886.506266809225 1749.0510991236486
1887.195037326701 1468.1036913750395
1887.8836417994517 1632.6317693402684
1888.5720802688702 1879.6891941236383
1889.260352776333 1826.5100565465455
1889.9484593632042 1981.0407222791357
1890.63640007082 1642.9621379156404
1891.3241749405151 1543.8426754250852
1892.0117840135954 1733.6230178490362
1892.6992273313572 1762.919158892705
1893.3865049350788 1580.0563908975082
1894.0736168660223 2022.263923063251
1894.7605631654333 1786.980883612777
1895.4473438745408 1889.6639522226847
1896.133959034556 1635.272929078707
1896.820408686679 1779.775603644166
1897.506692872088 1906.336112724902
1898.192811631945 1714.0961003742493
1898.8787650073991 1569.561676075639
1899.5645530395832 1861.788630678191
1900.2501757696118 1848.5590745205602
1900.9356332385796 1935.984947130879
1901.620925487574 2023.6994769730632
1902.3060525576602 1810.4787771998083
1902.9910144898859 1762.286607372572
1903.6758113252872 1583.1790842483051
1904.3604431048789 1752.3528903090355
1905.0449098696663 1861.8008759770255
1905.7292116606295 1683.2549907839289
1906.4133485187394 1788.3072852699795
1907.0973204849488 1481.2619806337339
1907.7811276001976 1501.1492677193987
1908.4647699053967 1682.2619494799314
1909.1482474414588 1611.951568811482
1909.8315602492694 1541.4260143579693
1910.5147083696957 1832.195759088984
1911.1976918436012 1591.9083115824733
1911.880510711815 1445.010644387373
1912.5631650151681 1525.7475024034748
1913.2456547944657 1606.5609653999868
1913.927980090495 1658.4178308620808
1914.6101409440362 1623.6007669322785
1915.2921373958416 1779.919097719383
1915.9739694866603 1605.6294886768062
1916.655637257214 1890.7806533024836
1917.3371407482136 1665.4438615405124
1918.0184800003572 1834.3549615286083
1918.6996550543154 1804.1706679418744
1919.3806659507554 1760.8797901655587
1920.0615127303208 1668.2456029813752
1920.7421954336423 1857.748550245984
1921.4227141013343 1933.0979856969418
1922.103068773993 1843.934518790426
1922.783259492202 1892.3728035000754
1923.4632862965227 1596.5496311037982
1924.1431492275078 1652.4970523702027
1924.8228483256917 1459.765722226998
1925.5023836315922 1668.8088120930993
1926.1817551857057 1767.627518952138
1926.8609630285227 1866.6734657894103
1927.5400072005123 1782.250370979224
1928.218887742125 1520.913197635347
1928.8976046938005 1586.0805328199199
1929.5761580959588 1854.0168813580447
1930.2545479890086 1585.7262454017155
1930.9327744133352 1454.1132078917117
1931.6108374093164 1709.8707213792272
1932.2887370173066 1825.8781309888884
1932.9664732776473 1726.1475692948861
1933.6440462306673 1626.1253284294546
1934.3214559166754 1563.624671541945
1934.9987023759659 1886.981716236883
1935.675785648813 1809.3845303213172
1936.3527057754836 1870.5267111217422
1937.029462796223 1931.8171626676562
1937.70605675126 1630.7929366058843
1938.3824876808085 1552.690453621612
1939.058755625072 1699.1886695766188
1939.7348606242267 1647.7433138232966
1940.4108027184448 1738.4097028540073
1941.0865819478713 1778.6369236142916
1941.7621983526478 1596.0401936456797
1942.4376519728921 1460.8975813809109
1943.1129428487038 1677.3199637001424
1943.7880710201734 1711.8047098629747
1944.4630365273733 1731.9013999415783
1945.1378394103576 1428.772496623463
1945.8124797091714 1434.5474773148235
1946.4869574638324 1440.283753967072
1947.161272714353 1588.289921413677
1947.8354255007234 1760.6743288729788
1948.5094158629272 1539.0022653048645
1949.1832438409183 1773.5249599617594
1949.8569094746435 1793.5109889722232
1950.530412804037 1808.6821567929892
1951.2037538690092 1851.034520502247
1951.8769327094578 1531.3144223121403
1952.5499493652678 1521.9334528764516
1953.222803876306 1902.428276393229
1953.895496282421 1722.8723515641836
1954.5680266234522 1606.2626633558498
1955.2403949392155 1740.8563145819335
1955.9126012695142 1461.1226733867136
1956.5846456541403 1630.8623464667132
1957.2565281328643 1587.9787399967438
1957.9282487454457 1819.6509546392826
1958.5998075316202 1878.6534944848463
1959.27120453112 1655.0225748854955
1959.9424397836501 1664.1736631397257
1960.613513328908 1691.9837346451986
1961.2844252065697 1597.2127117281507
1961.9551754563017 1502.2464527408538
1962.6257641177453 1536.747194475399
1963.29619123054 1454.2389462035494
1963.966456834296 1493.5228283763722
1964.6365609686181 1464.8837640043016
1965.306503673086 1728.6486922288605
1965.976284987275 1528.5638011203007
1966.645904950734 1604.2613766694728
1967.315363603002 1451.1557545695048
1967.9846609836077 1660.957846558865
1968.6537971320486 1489.8296998549417
1969.3227720878222 1638.4394148620727
1969.9915858904042 1532.280572720422
1970.660238579252 1646.420528014933
1971.3287301938108 1585.7890783191815
1971.997060773514 1578.6585362794963
1972.665230357772 1476.715275302493
1973.3332389859843 1521.3643828436448
1974.0010866975335 1384.8507781473947
1974.6687735317864 1598.3305542242294
1975.3362995280932 1699.001027869527
1976.003664725793 1691.4624579985532
1976.6708691642052 1439.1771619385695
1977.3379128826364 1540.653045068021
1978.004795920373 1777.5686220516484
1978.6715183166925 1471.2482331237761
1979.3380801108524 1833.4260672646924
1980.0044813420973 1631.0539455990183
1980.6707220496555 1267.8353333957466
1981.3368022727373 1625.3291579771653
1982.0027220505417 1561.682184999244
1982.66848142225 1229.9159955951416
1983.3340804270283 1326.2338819942327
1983.999519104027 1600.2261935012516
1984.6647974923835 1561.7088527703295
1985.329915631215 1581.3564772365066
1985.99487355963 1439.1163482543363
1986.6596713167146 1613.554428193317
1987.3243089415428 1470.946829952917
1987.9887864731754 1669.8125320911233
1988.6531039506553 1320.0954810610035
1989.3172614130071 1352.024710733809
1989.9812588992481 1384.0303476040633
1990.645096448372 1295.2244118750173
1991.3087740993633 1569.791341499369
1991.9722918911848 1449.6174937595479
1992.635649862792 1682.263769239374
1993.2988480531185 1765.102453392755
1993.9618865010852 1633.1895045536908
1994.6247652455968 1501.0820481926157
1995.287484325545 1487.4354163695903
1995.9500437798033 1514.6204619474108
1996.6124436472292 1498.0288389835034
1997.2746839666706 1645.9992056829537
1997.936764776954 1530.3047381033496
1998.598686116895 1501.406122169322
1999.2604480252903 1787.3358008559674
1999.9220505409212 1638.4067698614695
2000.5834937025593 1435.5911395456526
2001.2447775489582 1513.2161858965758
2001.9059021188514 1552.7576094257151
2002.5668674509616 1354.065996200899
2003.2276735839987 1412.893214136957
2003.8883205566508 1402.0219395257116
2004.5488084075987 1391.0897013605731
2005.2091371755014 1596.7695396007084
2005.8693068990033 1343.3929753019263
2006.5293176167397 1280.7890831899472
2007.1891693673224 1218.1941500680382
2007.848862189354 1437.274882213391
2008.5083961214223 1597.731178487343
2009.1677712020955 1388.4840853469107
2009.8269874699254 1388.0918418637648
2010.4860449634598 1384.6557803912433
2011.1449437212177 1381.2923371061997
2011.8036837817108 1713.525923091139
2012.4622651834325 1694.0268620658674
2013.1206879648653 1659.8628568589902
2013.7789521644736 1482.845502083843
2014.4370578207036 1728.0194328948917
2015.0950049719922 1572.6711432448958
2015.7527936567585 1755.3785613958269
2016.4104239134067 1548.8079155871333
2017.067895780323 1886.336552704644
2017.725209295886 1811.1272025940896
2018.3823644984514 1735.664321343073
2019.0393614263648 1646.6840128205563
2019.6962001179545 1474.4797757007154
2020.3528806115355 1762.9659459135194
2021.0094029454067 1542.4654869803546
2021.6657671578487 1360.9022916600525
2022.321973287133 1513.6193302131871
2022.9780213715148 1439.7870359727776
2023.6339114492293 1595.3623669936665
2024.2896435585026 1494.7473604460608
2024.9452177375442 1519.7890399692574
2025.600634024544 1730.380546170608
2026.2558924576842 1602.6835628299402
2026.9109930751292 1715.7681036639824
2027.565935915025 1439.1892972925498
2028.2207210155066 1788.9611627625459
2028.8753484146964 1839.8223345567317
2029.529818150695 1759.015403787987
2030.1841302615903 1677.8328510954775
2030.8382847854573 1397.4487718414423
2031.4922817603601 1574.4329464622922
2032.1461212243357 1551.2694222648092
2032.7998032154192 1398.4576013443268
2033.4533277716218 1467.9683578233203
2034.1066949309443 1368.248900566265
2034.7599047313688 1349.6048143226294
2035.4129572108704 1615.8781671401252
2036.0658524074006 1635.8194296733166
2036.7185903589016 1609.5168014405517
2037.3711711032956 1784.0046215540478
2038.023594678496 1530.5554597542543
2038.675861122394 1491.180076765017
2039.3279704728757 1455.1938657375447
2039.9799227678031 1419.2594987762873
2040.6317180450278 1469.8364694395727
2041.2833563423865 1501.7087326466785
2041.9348376977014 1827.1888895562315
2042.5861621487784 1689.1785402495157
2043.2373297334088 1826.0160005713292
2043.8883404893695 1617.1111391986246
2044.5391944544208 1676.7849570395254
2045.1898916663158 1727.457853887257
2045.8404321627804 1767.981587501213
2046.4908159815368 1407.6113572735283
2047.1410431602853 1446.5739171542637
2047.7911137367173 1428.321135780146
2048.441027748504 1383.0606451888896
2049.090785233302 1337.7047727453398
2049.7403862287592 1457.2816683955468
2050.389830772503 1402.9214999456585
2051.0391189021466 1348.5497657245003
2051.688250655294 1574.0900584303586
2052.337226069527 1346.7053932303108
2052.986045182417 1758.44356491439
2053.634708031521 1718.6716465330796
2054.283214654375 1678.9520846702203
2054.931565088511 1224.5759067498204
2055.579759371436 1346.479917509639
2056.2277975406523 1575.8972613924511
2056.8756796336384 1401.175705536238
2057.5234056878617 1226.039527483192
2058.1709757407752 1378.3369379468409
2058.8183898298194 1454.109061118263
2059.465647992416 1529.7592881983865
2060.1127502659747 1750.916051929037
2060.759696687888 1681.4077932025023
2061.4064872955405 1611.9004997916513
2062.053122126292 1716.4258735212593
2062.699601217497 1507.6214802706488
2063.345924606485 1298.8119717863005
2063.992092330587 1524.9953279321246
2064.638104427102 1509.6868247104921
2065.283960933324 1704.434410563458
2065.92966188653 1480.266299408774
2066.5752073239855 1778.599773861919
2067.2205972829397 1706.6212677846138
2067.86583180062 1634.5911944347945
2068.5109109142522 1446.4632635456624
2069.15583466104 1387.37451395828
2069.8006030781708 1328.232187277058
2070.445216202821 1347.0748016237499
2071.089674072153 1541.463415283735
2071.7339767233116 1759.9776212710487
2072.3781241934303 1520.0576055899235
2073.0221165196253 1615.5341302370691
2073.6659537390024 1600.3827349486269
2074.3096358886505 1577.2774845075323
2074.953163005637 1410.1424140882368
2075.596535127028 1225.6786449413619
2076.2397522898664 1297.4427311094962
2076.882814531182 1569.7768021214836
2077.5257218879924 1563.9076127226285
2078.1684743973 1232.2636889650737
2078.8110720960885 1340.9153433007357
2079.453515021336 1740.2208289702703
2080.095803209997 1609.070142968709
2080.7379366990135 1558.1992059570098
2081.37991552532 1646.4188645313366
2082.0217397258275 1579.3406940626255
2082.6634093374414 1528.9109584434302
2083.3049243970418 1478.4900124343924
2083.9462849415067 1482.867952490422
2084.587491007689 1553.1253439907944
2085.2285426324324 1524.3185141602755
2085.869439852564 1547.5489652415158
2086.510182704902 1370.7950572435716
2087.1507712262483 1501.6315859981719
2087.791205453381 1234.147062238
2088.4314854230743 1471.7025226596033
2089.0716111720867 1566.900503963119
2089.7115827371617 1200.0484562952574
2090.351400155023 1276.6376814425737
2090.991063462385 1353.4279580271943
2091.6305726959527 1175.4026073101827
2092.2699278924047 1326.4037636732676
2092.9091290884153 1477.771353518456
2093.548176320641 1285.4469886688016
2094.187069625721 1610.8183640508364
2094.8258090402887 1422.9130984539793
2095.464394600951 1531.139781639383
2096.102826344313 1580.9381463705995
2096.741104306955 1717.7851934304351
2097.379228525453 1525.6567587869317
2098.017199036358 1605.6459691971936
2098.6550158762147 1685.795148098387
2099.2926790815527 1573.187553198784
2099.9301886888825 1509.9187145235915
2100.5675447347076 1445.3108551689445
2101.2047472555114 1672.9283823864673
2101.841796287761 1329.8860138469176
2102.47869186792 1576.8542330099385
2103.1154340324265 1352.933535789193
2103.752022817709 1473.286966155296
2104.388458260184 1360.6547528632414
2105.024740396251 1453.904199438953
2105.660869262292 1337.45574290993
2106.296844894685 1816.6330941519313
2106.93266732978 1666.9248821831577
2107.5683366039284 1289.4846161152004
2108.2038527534532 1445.6523424674583
2108.8392158146726 1602.233420428885
2109.4744258238843 1337.5430870401258
2110.1094828173755 1499.2435732849876
2110.744386831422 1783.0404586772377
2111.3791379022787 1482.6560998528535
2112.01373606619 1717.7045569666038
2112.648181359389 1522.8636929471422
2113.28247381809 1609.6103140754258
2113.916613478492 1566.7936407695472
2114.550600376786 1475.2357951002339
2115.1844345491445 1373.6536903208503
2115.818116031729 1332.5907174280887
2116.451644860679 1281.007522808426
2117.085021072133 1229.2501741598203
2117.718244702204 1242.6141501660554
2118.3513157869984 1335.3283805073727
2118.984234362604 1330.3502197747553
2119.617000465092 1409.725046604736
2120.249614130529 1361.8612989144485
2120.8820753949585 1313.924375478206
2121.5143842944162 1378.7759364454928
2122.14654086492 1334.5904665194198
2122.7785451424734 1584.0961354331268
2123.4103971630702 1552.0236013559688
2124.042096962681 1520.0472364019427
2124.6736445772767 1704.5376448730979
2125.305040042802 1630.9187916644473
2125.936283395191 1557.0955004339953
2126.567374670365 1510.8510601988849
2127.198313904233 1455.674422749126
2127.8291011326855 1358.0048109473155
2128.4597363916037 1259.9694771697564
2129.0902197168507 1261.0717119890382
2129.720551144279 1379.0177792441466
2130.3507307097225 1790.886681136845
2130.980758449008 1734.7235071240684
2131.6106343979427 1699.5913426877682
2132.2403585923203 1664.331639173676
2132.8699310679276 1606.5115725444653
2133.499351860526 1636.0056030862
2134.1286210058715 1483.1527569367597
2134.7577385397053 1632.0171522014093
2135.3867044977487 1781.1170509303097
2136.0155189157176 1683.3727272134001
2136.644181829308 1434.1007178002349
2137.2726932742025 1542.940309155767
2137.901053286074 1398.0779497343533
2138.5292619005777 1253.0362219795993
2139.1573191533535 1234.0359975203921
2139.7852250800315 1504.2292195845228
2140.4129797162295 1584.903770378358
2141.0405830975433 1218.5507158102212
2141.6680352595613 1215.2967954805792
2142.2953362378576 1212.0504688444041
2142.9224860679915 1295.3500556958174
2143.549484785508 1343.407869113311
2144.1763324259373 1434.5893604102507
2144.803029024799 1390.3320403743355
2145.429574617594 1198.816317463815
2146.0559692398165 1583.1142423065817
2146.682212926942 1293.4284667731563
2147.308305714432 1589.1690191115133
2147.9342476377333 1490.9379266953158
2148.5600387322847 1783.219543711311
2149.185679033506 1752.4657234258993
2149.8111685768017 1307.680197002621
2150.4365073975678 1382.6272355998062
2151.061695531187 1270.2407958624644
2151.686733013021 1535.8961934015865
2152.311619878423 1642.3363605745537
2152.9363561627342 1261.3003193346335
2153.560941901278 1249.755979325942
2154.1853771293663 1452.2686201946933
2154.809661882293 1407.2208722795954
2155.433796195348 1359.992222808751
2156.0577801037944 1312.5352681635454
2156.681613642895 1576.6841201592576
2157.3052968478896 1344.4808640741949
2157.928829754006 1571.4286570164309
2158.552212396462 1462.6463734372026
2159.1754448104566 1519.9987687940725
2159.7985270311783 1326.2970850492225
2160.4214590938027 887.5060945510215
2161.0442410334927 968.195416472541
2161.6668728853874 1105.9202364791397
2162.289354684628 1243.936526349792
2162.911686466332 1362.8122614650715
2163.533868265602 1519.4338703765402
2164.1559001175337 1623.1341650193024
2164.7777820572046 1645.2175875022629
2165.399514119681 1550.4434129815106
2166.021096340013 1343.7733407157598
2166.6425287532384 1636.0936500369528
2167.263811394385 1659.613472408865
2167.8849442984574 1683.3118528564078
2168.505927500455 1399.5069795737113
2169.126761035366 1539.4926374086706
2169.7474449381552 1347.9758717531745
2170.367979243778 1380.5192155446339
2170.9883639871823 1413.2093961088094
2171.608599203293 1323.294289629968
2172.2286849270276 1686.4998097436587
2172.8486211932886 1840.0765017449412
2173.4684080369625 1393.1463593702954
2174.0880454929265 1189.0934794545108
2174.7075335960417 1173.4016234311682
2175.3268723811543 1155.0265144828618
2175.9460618831 1136.622106148957
2176.565102136701 1294.548630645898
2177.1839931767627 1389.1865358387956
2177.802735038078 1484.0945045814801
2178.421327755432 1428.8228693283397
2179.0397713635866 1249.411356812127
2179.658065897298 1316.4040882915367
2180.276211391305 1440.9610076087988
2180.8942078803357 1481.4567217595788
2181.5120553991 1416.169910114028
2182.129753982299 1132.1359780745365
2182.7473036646206 1381.7471489259983
2183.3647044807367 1481.438143633831
2183.9819564653044 1451.574515099273
2184.599059652968 1421.6893644839345
2185.216014078367 1602.8410283219566
2185.832819776113 1635.172673366032
2186.4494767808137 1667.4875042396766
2187.065985127063 1393.1647584701486
2187.682344849436 1261.7548657125005
2188.298555982501 1308.9829967254727
2188.9146185608097 1356.209180511666
2189.530532618901 1603.1401419885174
2190.1462981912937 1484.8146384904298
2190.761915312507 1506.4701970399908
2191.377384017036 1364.825918036652
2191.9927043393654 1224.3506711922926
2192.6078763139667 1059.1003891113864
2193.2228999753006 1090.8869166684558
2193.837775357808 1122.7567869807726
2194.452502495922 1197.7982000980608
2195.0670814240602 1411.3390400120347
2195.6815121766285 1205.7132659354634
2196.2957947880186 1108.101157621549
2196.9099292926057 1010.2958556791178
2197.523915724758 1393.691087158863
2198.137754118825 1539.739180875139
2198.7514445091456 1722.0015664391854
2199.3649869300443 1707.4147648688236
2199.9783814158327 1692.8656017838334
2200.5916280008096 1692.1686203583304
2201.2047267192593 1731.6727496105354
2201.8176776054515 1323.3819797180622
2202.430480693649 1133.4548314403557
2203.0431360180955 1496.394647004807
2203.6556436130195 1548.4806716511105
2204.268003512645 962.3013695101685
2204.8802157511727 1357.3070879697032
2205.492280362796 1812.2108704247403
2206.1041973816937 1547.4705206421845
2206.715966842032 1388.5034692348545
2207.3275887779655 1596.8746540719508
2207.93906322363 1347.3249699707044
2208.550390213153 1564.2792030072856
2209.1615697806465 1579.9524746987172
2209.7726019602105 1334.5201434590167
2210.3834867859277 1291.698021213087
2210.9942242918787 1450.5612542423985
2211.6048145121167 1482.3072570214342
2212.2152574806914 2103.332465752314
2212.825553231638 1313.8972693989392
2213.435701798975 1938.3551803773612
2214.045703216707 1454.0451077302844
2214.655557518832 1047.1872308999286
2215.2652647393297 1072.223326810879
2215.874824912169 1285.5033718742961
2216.4842380713 1499.4036550132896
2217.09350425067 1394.5641697235892
2217.7026234842033 1729.6399997410565
2218.311595805819 1660.5071970297085
2218.9204212494133 1364.0827080483512
2219.52909984888 1651.5413856111804
2220.137631638092 1681.2069046049178
2220.7460166509154 1710.827257899845
2221.354254921198 1229.2574422257248
2221.9623464827764 1361.0059310097636
2222.5702913694713 1490.1174553839382
2223.178089615096 1684.1763061183105
2223.7857412534486 1340.3388542809653
2224.39324631831 1105.333507089467
2225.000604843457 1211.5836803945308
2225.607816862641 1641.2149616746108
2226.214882409611 1591.983233922624
2226.8218015180973 1529.5606239005674
2227.4285742218217 1571.0608413808473
2228.0352005544864 1288.36648535808
2228.6416805497847 1168.8996091753027
2229.248014241399 1325.9680382669562
2229.8542016629945 1291.8818492612954
2230.460242848223 1459.3612413513667
2231.0661378307304 1321.6290454158957
2231.671886644139 1183.7711500071289
2232.277489322065 1264.4182028628709
2232.8829458981127 1052.978059778557
2233.48825640587 1404.2407764431175
2234.0934208789095 1892.8007133698168
2234.6984393507955 1550.3054129847037
2235.3033118550793 1606.7753225173753
2235.9080384252975 1330.7957263602918
2236.5126190949723 1226.7110766783376
2237.1170538976166 1201.393306158668
2237.721342866729 1330.3158740489143
2238.32548603579 1170.4330377622118
2238.9294834382763 1372.7565511983362
2239.533335107646 1369.449973790703
2240.1370410773434 1471.7390136130775
2240.740601380803 1232.1329864202517
2241.3440160514474 1475.5253213099018
2241.9472851226783 1535.5368938137578
2242.550408627896 1608.9178951015483
2243.1533866004793 1682.4486944551984
2243.756219073799 1361.0704450618614
2244.3589060812064 1253.0840635336192
2244.961447656049 1183.3221878198633
2245.5638438316564 1348.476439600075
2246.166094641343 1419.2878578595107
2246.7682001184166 1235.552462343517
2247.3701602961664 1436.8961710983115
2247.971975207871 1505.0923570018906
2248.5736448867974 1714.495481147369
2249.175169366197 1402.401858921603
2249.7765486793123 1497.3701912141998
2250.3777828593684 1440.5000802851387
2250.9788719395783 1522.0415529775069
2251.579815953146 1299.3880160012427
2252.1806149332606 1319.61814251248
2252.781268913097 1466.7575050257042
2253.381777925817 1446.7254910351016
2253.9821420045737 1426.6734219625828
2254.5823611825035 1611.5616510248524
2255.1824354927303 1356.6367960303917
2255.782364968365 1264.6848376480252
2256.38214964251 1172.6450188929493
2256.9817895482483 1323.5214866467609
2257.5812847186553 1371.0877244409905
2258.180635186791 1173.8780439692187
2258.779840985704 1410.9541769790644
2259.37890214843 1239.1073295998199
2259.97781870799 1352.4333664046403
2260.5765906973957 1465.9731479197362
2261.175218149645 1586.5009547129457
2261.773701097718 1519.927265484237
2262.3720395745895 1390.463405823259
2262.970233613216 1260.734280447305
2263.568283246548 1357.1066071801044
2264.1661885075137 1218.710890874948
2264.763949429038 1271.1294367277108
2265.3615660440246 1245.4570557076408
2265.959038385374 1219.7545759019606
2266.5563664859637 1551.890191244501
2267.153550378669 1156.1917684086422
2267.7505900963424 1133.571509489761
2268.3474856718312 1110.991939410345
2268.9442371379664 1491.7617262630033
2269.5408445275643 1250.6011809297138
2270.1373078734377 1366.5313925659473
2270.7336272083758 1245.6157760044603
2271.32980256516 1280.6222721879963
2271.925833976562 1557.860515161105
2272.5217214753357 1712.8771544931824
2273.117465094223 1269.157950974151
2273.7130648659586 1215.0561022996317
2274.308520823257 1126.9847341299753
2274.903832998827 1624.1052350255316
2275.4990014253563 1274.1164666423497
2276.094026135528 1195.841679359854
2276.6889071620117 1117.3796178909904
2277.2836445374614 1325.5383289443066
2277.878238294519 1518.501832654073
2278.472688465812 1354.7466029149782
2279.066995083962 1190.6983640436224
2279.6611581815705 1273.7656448280766
2280.255177791232 1180.0455924267949
2280.8490539455233 1359.6088537526352
2281.442786677013 1539.5505122704212
2282.0363760182554 1562.7564479211385
2282.6298220017943 1151.5466512614707
2283.223124660155 1707.8515114931474
2283.816284025859 1194.6298670652545
2284.4093001314086 1647.6495777930388
2285.002173009292 1084.7639725504257
2285.5949026919952 1487.0521267957981
2286.1874892119777 1106.114539487398
2286.7799326016993 1451.1782421388596
2287.3722328936 1290.823316828408
2287.964390120109 1448.625588000972
2288.556404313642 1606.6216300242406
2289.1482755066027 1694.6631091806364
2289.7400037313873 1342.72616035099
2290.3315890203703 1159.0985474009892
2290.9230314059205 1548.6343153234334
2291.5143309203904 1455.0514029469437
2292.1054875961236 1315.48844161658
2292.6965014654506 1490.9473990489814
2293.287372560684 1256.1966306003537
2293.878100914131 1271.8006471913282
2294.468686558086 1287.4789383933607
2295.059129524827 1280.9458988172423
2295.649429846617 1255.2787499498745
2296.239587555716 1229.5202663609132
2296.8296026843636 1430.2300656758891
2297.419475264791 1803.7565562848654
2298.0092053292137 1356.1584715166832
2298.598792909839 1702.8920829783397
2299.1882380388597 1302.2985428127492
2299.777540748455 1599.6529670190869
2300.3667010707904 1374.6020550722276
2300.9557190380256 1486.1054441738186
2301.544594682302 1406.6558730859604
2302.1333280357503 1327.0989624697686
2302.721919130485 1511.0165521281501
2303.3103679986198 1642.1767785944041
2303.898674672242 1387.4954955641851
2304.486839183437 1490.0911000797398
2305.0748615642697 1231.9833091372461
2305.6627418468015 1328.46699236628
2306.2504800630704 1283.098108374561
2306.8380762451143 1454.3705516173745
2307.425530424949 1405.0428962389026
2308.012842634582 1355.5910770900891
2308.6000129060103 1715.7608403656595
2309.187041271214 1729.089959733336
2309.773927762164 1291.9421296777102
2310.3606724108213 1506.798536482889
2310.9472752491274 1537.9731075310165
2311.5337363090184 1569.256500598755
2312.120055622414 1471.5085494867287
2312.706233221221 1581.3534444685724
2313.2922691373424 1603.793391343795
2313.8781634026564 1626.2692145330739
2314.463916049037 1206.1177530111715
2315.049527108342 1490.4161391985538
2315.6349966124235 1645.294208424491
2316.2203245931123 1516.9882241515547
2316.8055110822315 1433.7289987297959
2317.3905561115935 1350.253898501484
2317.9754597129977 1250.8695308931754
2318.560221918229 1147.961096735099
2319.1448427590603 1044.844062549518
2319.729322267256 1185.4917969647443
2320.313660474563 1520.95812347364
2320.8978574127195 1857.360872354709
2321.481913113452 1713.2496898113866
2322.0658276084705 1190.0869054766592
2322.6496009294806 1235.2118784874945
2323.233233108165 1397.5911141056808
2323.8167241762058 1345.9416021006014
2324.4000741652617 1384.6928126185392
2324.983283106987 1421.770382027563
2325.5663510330232 1653.9166793634315
2326.1492779749933 1157.3092824526102
2326.7320639645204 1557.8747945291661
2327.3147090332004 1773.4060329960498
2327.897213212629 1353.5198799889195
2328.4795765343843 1566.3922527742939
2329.0617990300307 1104.2381238177854
2329.643880731124 1745.9258107304624
2330.22582166921 1195.3811341824562
2330.807621875816 1113.2880512604954
2331.3892813824623 1031.1586440404396
2331.9708002206517 1038.8872654662157
2332.5521784218818 1276.824581057332
2333.133416017634 1515.2988028525328
2333.7145130393765 1292.2523665443562
2334.295469518571 1634.3873874299281
2334.876285486658 1718.038747163615
2335.456960975076 1538.9515208600167
2336.037496015242 1359.4906417164232
2336.6178906385667 1470.5755888216847
2337.198144876451 1722.4408108817104
2337.778258760278 1535.776406898384
2338.3582323214214 1430.2430723006032
2338.938065591243 1324.4285405928888
2339.517758601087 1544.5117883129935
2340.0973113822965 1358.3603455447587
2340.676723966193 1399.4548620131404
2341.255996384094 1516.5760344284379
2341.835128667295 1602.8131750752846
2342.4141208470883 1654.617938632196
2342.992972954751 1431.1507105408687
2343.5716850215467 1168.2057519007747
2344.1502570787306 904.7010390771735
2344.7286891575386 1105.3069141718577
2345.3069812892045 1294.0320299956568
2345.885133504944 1482.9757883678217
2346.4631458359618 1341.270200456402
2347.04101831345 1206.255178879509
2347.6187509685915 1191.3162977905884
2348.196343832553 1345.5525332746192
2348.7737969364935 1384.7721873518196
2349.351110311558 1100.937748278872
2349.9282839888765 1365.5810740177942
2350.5053179995757 959.0181931601795
2351.0822123747585 1068.2650604106561
2351.658967145526 1081.393619415579
2352.2355823429643 1094.6074684788855
2352.812057998144 1393.957338407904
2353.3883941421263 1367.215471422006
2353.9645908059647 1286.848403669833
2354.540648020693 1206.364391712566
2355.116565817336 1012.0721788637229
2355.6923442269126 1170.2009418437913
2356.2679832804224 1328.6704731727746
2356.8434830088518 1220.4792446668846
2357.41884344318 1189.8829676495718
2357.994064614377 1214.090499755086
