#exp_cfg={"servo_angle": 0.0, "laser_lim": 100.0, "servo_angle_to": 18.0, "laser_wup": 0.0, "bt_dev": "EnSpectr-25AE3", "laser_wdn_max": 0.0, "frames": 10.0, "servo_used": 0, "servo_calib_use": 0, "laser_wdn_min": 0.0, "servo_pix_from": 90.0, "cooler_tout": 300.0, "servo_angle_from": 0.0, "servo_calib": "[-1.9174921013161362e-09, 3.9322238269163779e-05, -0.27385609119055809, 653.59552119713567]", "laser_autoctl": 0, "servo_pix_to": 3682.0, "laser_pw": 100.0, "cooler_on": 0, "laser_volt": 4.0, "cooler_autoctl": 0, "cooler_curr": 70.0, "cooler_startup": 10.0, "laser_fixed_pw": 0, "gain": 1.3, "offset": 2.53059635486, "servo_calib_degree": 3.0, "laser_curr": 55.0, "shutter": 8200.0, "servo_calib_step": 1.0, "laser_fixed_curr": 0, "exp": 2000.0, "ccd_volt": 4.7, "bt_addr": "00:06:66:62:5A:E3", "servo_delay": 500.0, "laser_autooff": 1}
#proc_cfg={"flat_auto_wnd": 200.0, "flat_auto_fr": 200.0, "flat_auto_shift": 5.0, "yconv": 1, "flatten": 1, "flatten_strength": 100.0, "xfrom": 300.0, "auto_max_frame": 2000.0, "auto_signal": 48000.0, "flat_auto_tol": 0.1, "autoclip": 1, "xrel_range": 0.0, "flat_auto_to": 4000.0, "intensity_adj": 1.0, "xrel": 7852.0, "rmhot": 1, "flat_auto_slit": 4.999999999999997, "auto_ini_exp": 300.0, "auto_off": 0, "xto": 2860.0, "flat_auto_ref": "", "flat_auto_rank": 1, "autobackg": 0, "xrel_adj": 0.0, "auto_black_lvl": 1, "base_wnd": 100.0, "sub_baseline": 0, "xconv": 2, "auto_max_exp": 1000.0, "auto_total_exp": 10000.0, "auto_exp": 0, "rmripple": 0, "black_lvl": 8255.4125, "shutter_clip_adj": 0.0, "auto_bckg": 0, "flat_auto_thr": 0.9, "subbackg": 1}
316.8218498245369 19266.50150483891
317.89969571804795 18997.525205006103
318.977263876126 19074.72421543241
320.05455438786703 18966.402245795394
321.1315673423287 18810.277436977627
322.2083028285215 18980.74296882115
323.2847609354267 18784.856639628888
324.3609417519747 18651.94316085614
325.43684536705587 18652.65977889633
326.5124718695279 18545.027276966568
327.58782134820103 18389.668541308576
328.66289389184385 18412.53419580345
329.7376895891921 18215.069688615324
330.8122085289342 18199.68338416563
331.88645079971866 18097.83895339512
332.9604164901575 18083.405609472065
334.03410568881554 17913.82626051939
335.1075184842266 17978.9017834565
336.18065496487543 17792.745364154143
337.2535152192122 17692.73143035094
338.32609933564163 17645.664101178598
339.39840740253203 17497.3617141945
340.4704395082099 17520.765943166432
341.5421957409617 17413.126040966286
342.6136761890357 17388.6849970699
343.6848809406365 17269.498208107503
344.75581008392874 17200.15639296631
345.82646370703696 17065.539046492824
346.8968418980512 17083.537047652815
347.96694474501055 17130.089297116585
349.0367723359268 17090.0663324845
350.106324758759 17021.76222986075
351.1756021014353 16925.698735860537
352.2446044518383 16908.863179486078
353.31333189781435 16929.5518645196
354.38178452716966 16837.97118769617
355.449962427665 16844.81744517975
356.51786568702846 16708.79902700596
357.58549439294256 16923.87308367622
358.6528486330535 16900.839849614138
359.71992849496564 16771.78908211701
360.7867340662433 16810.24522790385
361.8532654344144 16806.801682298967
362.9195226869597 16854.49875681822
363.9855059113288 16772.034275249833
365.05121519492604 16752.218752465084
366.11665062511565 16762.31834018535
367.1818122892273 16741.123294358673
368.2467002745434 16836.09789363744
369.31131466831175 16793.141060444203
370.375655557742 16790.340196926634
371.4397230299983 16790.80386868541
372.5035171722102 16747.68770811729
373.5670380714637 16717.103189041598
374.6302858148101 16715.339275299037
375.6932604892554 16767.827876518575
376.7559621817709 16794.495996141333
377.81839097928605 16647.45471038825
378.8805469686886 16670.343913613095
379.94243023683157 16737.16799003673
381.0040408705263 16601.879642849548
382.0653789565458 16469.322622280066
383.1264445816196 16602.780873858657
384.1872378324406 16482.199363381595
385.2477587956637 16439.009927631487
386.3080075579037 16392.570028800976
387.3679842057336 16305.459629330386
388.4276888256918 16389.661741899185
389.48712150426945 16244.637991837584
390.54628232792857 16315.400628735606
391.6051713830857 16252.077010857698
392.66378875611736 16229.836896784962
393.7221345333637 16147.607160685211
394.7802088011249 16024.816026593904
395.838011645661 16123.539912664599
396.89554315319765 16018.25289027813
397.9528034099112 15930.1332900425
399.00979250194723 15843.671772908969
400.06651051541485 15859.623793565392
401.1229575363741 15903.408138373823
402.17913365085224 15884.44505134784
403.23503894483656 15915.482954550878
404.2906735042761 15763.416117802091
405.3460374150818 15749.072990976263
406.401130763119 15679.080559219612
407.455953634224 15713.522910048438
408.5105061141876 15630.167834159967
409.56478828876243 15493.982393398555
410.6188002436629 15495.258939228506
411.6725420645689 15484.268203127907
412.72601383711117 15513.91772613917
413.77921564689314 15586.316545653157
414.8321475794728 15445.254000556786
415.88480972036814 15265.929691732123
416.93720215506437 15446.42059264704
417.9893249690049 15246.421976543661
419.04117824759123 15218.1978774002
420.09276207619223 15307.560650082445
421.144076540133 15229.629670477032
422.1951217247042 15265.801113143683
423.24589771515275 15166.5170748151
424.2964045966928 15163.039481967786
425.34664245449494 15131.550537956107
426.3966113736933 15054.365179173677
427.4463114393875 14953.39960931076
428.49574273662984 15011.334680981052
429.5449053504417 14953.92362278305
430.5937993658026 14987.512687391849
431.6424248676558 14826.121451568853
432.6907819409007 14842.149594530598
433.73887067040596 14842.702058990384
434.7866911409965 14864.6992860772
435.8342434374608 14817.276867138517
436.88152764455117 14800.393848758822
437.9285438469724 14707.241647354202
438.9752921294057 14669.604653150402
440.02177257648145 14699.214296493243
441.06798527279716 14603.70544982911
442.1139303029122 14698.066279106051
443.1596077513459 14597.402608218292
444.2050177025794 14612.676514755343
445.25016024105753 14689.014397680168
446.2950354511886 14593.15536781321
447.33964341733736 14608.642061749943
448.383984223834 14595.563711015056
449.4280579549686 14477.493874422493
450.471864694995 14567.58698703798
451.5154045281306 14531.50042232934
452.5586775385509 14480.827506583242
453.60168381039693 14422.166786222786
454.64442342776783 14558.740495082151
455.6868964747264 14469.669501459884
456.7291030353008 14428.227245054231
457.77104319347563 14555.860488425746
458.8127170332027 14395.027561790077
459.854124638392 14493.111716186415
460.895266092919 14558.334209497367
461.93614148061897 14512.69802419381
462.97675088529104 14625.642416439314
464.01709439069236 14559.335162032852
465.0571720805492 14536.292769194417
466.0969840385442 14595.2962708918
467.1365303483253 14680.275023272392
468.17581109350067 14621.647866820142
469.2148263576437 14521.701235292994
470.2535762242878 14655.330324374378
471.29206077693016 14681.198758154802
472.33028009902773 14657.91057752069
473.3682342740012 14749.39527355415
474.40592338523857 14872.916368936247
475.4433475160804 14857.82905701902
476.4805067498364 14878.320397681053
477.51740116978 14942.663278594691
478.5540308591426 15148.310137497081
479.59039590112116 15369.083866771034
480.6264963788726 15357.726953325982
481.6623323755193 15608.625169018302
482.6979039741436 15668.17493666834
483.7332112577915 16003.886986045802
484.76825430947247 16343.77896461762
485.80303321215797 16330.56566659791
486.837548048783 16651.96679751327
487.8717989022425 16875.849407029564
488.90578585539697 16903.630647414793
489.9395089910686 17067.7886401398
490.97296839203955 17008.315411014635
492.00616414106116 16881.93859680286
493.0390963208429 16846.430491243827
494.0717650140559 16912.759893930503
495.10417030333883 16649.590030629453
496.1363122712901 16586.471438484583
497.16819100046814 16368.382166103018
498.1998065734024 15967.735207551803
499.2311590725767 15898.057658103842
500.26224858044407 15695.058588711017
501.2930751794156 15519.52583342994
502.3236389518679 15382.30622903273
503.35393998014115 15195.605099220498
504.38397834653733 15111.72889292648
505.4137541333221 15023.962170440916
506.4432674227228 14927.261736149268
507.4725182969323 14817.30257666324
508.5015068381035 14669.95891921109
509.53023312835467 14710.636930664074
510.55869724976765 14615.59989376012
511.58689928438434 14467.438792640416
512.6148393142121 14492.628740480513
513.6425174212218 14531.045980374776
514.6699336873462 14423.572776024565
515.6970881944835 14359.864974560207
516.7239810244901 14311.597307952412
517.7506122591931 14201.53355960706
518.7769819803761 14221.546222983987
519.8030902697901 14255.694450876224
520.8289372091476 14210.968338795847
521.8545228801249 14326.694269658887
522.8798473643619 14152.303167113065
523.9049107434621 14201.862215857764
524.9297130989908 14171.168750535007
525.9542545124805 14051.546850668185
526.9785350654201 14095.48142434851
528.0025548392696 14083.253566809522
529.0263139154504 13979.04137586825
530.0498123753423 14083.258312376196
531.073050300296 13991.8634781283
532.0960277716204 13909.12185926457
533.1187448705896 13913.928897570437
534.1412016784416 13915.744989848481
535.1633982763833 13883.08090415696
536.1853347455726 13937.628223434722
537.2070111671401 13865.069650870802
538.2284276221817 13805.98197209888
539.2495841917516 13792.625670114867
540.2704809568677 13836.908118947418
541.2911179985167 13869.851541428576
542.3114953976419 13884.821542295467
543.3316132351592 13872.864883123311
544.3514715919409 13839.571993227888
545.3710705488247 13878.98128521714
546.3904101866156 13971.054620004525
547.4094905860784 14032.023900946539
548.4283118279418 13953.672209484235
549.4468739929034 14039.225882213927
550.4651771616191 14006.813992576252
551.4832214147063 13982.647297609714
552.501006832761 14021.478996567806
553.5185334963226 13940.517856133385
554.5358014859103 14032.586555220463
555.5528108820035 13994.23241556563
556.5695617650363 13927.644316258036
557.5860542154242 14025.980227334192
558.6022883135283 13941.466679271383
559.6182641396881 13961.10845525648
560.6339817741991 13840.498919510792
561.6494412973225 13929.197036776011
562.6646427892883 13899.577332201941
563.6795863302796 13744.133053028829
564.694272000459 13664.673373166119
565.7086998799423 13796.3806443866
566.7228700488104 13709.181651607956
567.7367825871115 13673.152833240169
568.7504375748576 13580.478926169719
569.7638350920224 13610.06067948521
570.7769752185486 13603.563257415177
571.7898580343353 13670.128688778608
572.802483619258 13469.54540723362
573.8148520531431 13686.760304109333
574.8269634157932 13605.310109949796
575.8388177869692 13653.449652511457
576.8504152463938 13633.261618262532
577.8617558737587 13802.674011630128
578.8728397487175 13740.967345626113
579.883666950891 13874.090620618308
580.8942375598654 14027.169168127399
581.9045516551851 14067.86674032498
582.9146093163617 14274.542846121942
583.924410622878 14180.679417758225
584.9339556541727 14280.58085181957
585.9432444896538 14375.78509063458
586.9522772086875 14257.180291596127
587.9610538906127 14329.912590530954
588.9695746147318 14300.238802654034
589.9778394603054 14251.298014040565
590.985848506567 14010.700784827093
591.9936018327098 13942.579976386283
593.0010995178891 13861.263210711093
594.0083416412344 13887.084735528577
595.0153282818283 13665.89503507232
596.0220595187293 13561.650583632125
597.0285354309508 13466.005931618585
598.0347560974806 13510.878444566895
599.0407215972609 13498.34897820509
600.0464320092051 13408.321308331233
601.0518874121954 13489.04636902525
602.0570878850685 13366.124967002372
603.062033506636 13357.999559970034
604.0667243556636 13379.61460356031
605.0711605108936 13231.693590296349
606.0753420510264 13475.375879527995
607.0792690547278 13390.408829051861
608.082941600629 13330.071165491852
609.0863597673306 13340.208350925805
610.0895236333909 13531.24470109511
611.0924332773357 13682.300051421456
612.0950887776617 13652.689213109736
613.0974902128219 13694.503351747717
614.0996376612384 13890.763363950615
615.1015312013005 14042.110862605256
616.1031709113595 14105.78758613187
617.1045568697336 14270.022239265698
618.1056891547069 14437.851031308164
619.1065678445229 14550.507574891697
620.1071930173985 14893.29599727474
621.1075647515099 14974.669706021956
622.1076831250048 15119.523696594382
623.1075482159849 15278.197001772753
624.1071601025305 15463.370568643146
625.1065188626781 15558.602494855102
626.105624574433 15864.44068449674
627.1044773157682 15899.510612677786
628.1030771646128 16073.946627404957
629.1014241988742 16161.584691948123
630.0995184964158 16356.232144530319
631.0973601350688 16522.441989387185
632.0949491926294 16742.37403458567
633.0922857468631 16548.531704760215
634.089369875499 16669.087721743483
635.0862016562278 16724.44697540513
636.0827811667077 16560.772263726194
637.0791084845641 16575.160284549158
638.0751836873878 16409.50459927355
639.0710068527369 16422.194801238405
640.0665780581294 16246.444717151051
641.0618973810506 16049.675329157475
642.0569648989604 15972.549386211365
643.0517806892676 15570.419070572714
644.0463448293649 15549.725030067066
645.040657396592 15275.116345619044
646.0347184682723 15106.462662431359
647.0285281216875 14833.61482011573
648.0220864340772 14746.51217805245
649.0153934826558 14564.550646605718
650.0084493446047 14479.303150972934
651.0012540970674 14372.637882530928
651.9938078171526 14168.688840758445
652.9861105819346 14020.305722059351
653.9781624684565 14042.919260731327
654.9699635537254 13879.773891448533
655.9615139147136 13876.05835378652
656.9528136283589 13567.455727127372
657.9438627715699 13710.009441242873
658.9346614212154 13594.064916356165
659.925209654135 13373.945986483595
660.9155075471263 13371.398107366385
661.9055551769616 13322.690477409978
662.895352620375 13425.177105920438
663.8848999540678 13173.239030768114
664.8741972547068 13112.529844463987
665.863244598926 13035.55156346942
666.8520420633213 13097.718597579918
667.8405897244611 12959.008985015123
668.8288876588758 12924.018063149264
669.8169359430613 12926.957907791788
670.8047346534822 12912.410949516398
671.7922838665672 12819.931873743084
672.7795836587156 12836.230829359798
673.766634106285 12828.81962781701
674.7534352856092 12679.233461800526
675.7399872729766 12674.700366337074
676.7262901446538 12716.28564884524
677.712343976862 12685.10242252196
678.6981488457986 12839.538372872006
679.6837048276229 12616.483968467286
680.6690119984596 12672.632754066904
681.6540704344043 12738.01191238285
682.6388802115107 12567.367996426403
683.6234414058108 12547.140781059681
684.6077540932874 12507.542964782127
685.591818349907 12541.707138206428
686.575634251587 12524.167510808169
687.5592018742263 12407.749511306885
688.5425212936734 12281.8016241462
689.5255925857564 12493.633717864961
690.5084158262707 12389.653419704126
691.4909910909646 12233.994999889397
692.4733184555644 12210.487768400853
693.4553979957618 12369.27247722539
694.4372297872123 12311.588114486443
695.4188139055404 12356.143982667392
696.4001504263324 12220.33746511939
697.3812394251509 12411.527845336073
698.3620809775111 12357.989571250066
699.3426751589104 12410.994735333823
700.3230220448004 12341.689770818833
701.3031217106054 12512.546590615795
702.2829742317172 12501.888165100689
703.2625796834873 12384.998988523523
704.2419381412474 12386.012739693995
705.22104968028 12477.327844216148
706.1999143758458 12531.695822637772
707.178532303169 12431.529796116636
708.1569035374378 12538.518441267313
709.1350281538107 12711.136453355513
710.1129062274158 12716.320034384235
711.0905378333373 12919.263157234775
712.0679230466376 13040.292395748651
713.0450619423427 13305.868354745257
714.0219545954424 13652.308418779407
714.9986010808989 13656.433803864542
715.9750014736292 14019.844127305905
716.9511558485392 14366.671809675448
717.9270642804786 14680.087118571511
718.9027268442787 14914.351210861507
719.8781436147328 14986.486625649315
720.8533146666014 15121.256434608347
721.828240074612 15105.431106213908
722.8029199134635 15174.777769234142
723.7773542578125 14986.610975954163
724.751543182294 14861.454232679791
725.7254867615029 14871.241995991271
726.6991850700015 14589.009902919264
727.6726381823228 14634.499801064478
728.6458461729599 14598.907905279306
729.6188091163858 14662.691756346792
730.5915270870246 14729.256786910428
731.5640001592856 14753.568966368566
732.536228407529 15068.209058096638
733.5082119060917 15254.845097183235
734.4799507292755 15328.789697872844
735.4514449513481 15497.50208269828
736.4226946465496 15740.586297311616
737.3936998890786 15751.195556414497
738.3644607531078 15638.248664059629
739.3349773127793 15504.310798842484
740.3052496421951 15279.468598325582
741.27527781543 14922.883320479315
742.2450619065221 14525.761266200021
743.2146019894826 14257.93599071477
744.183898138288 13897.075504000397
745.1529504268801 13571.33910041262
746.1217589291682 13177.27022981676
747.0903237190341 12910.455608828062
748.058644870318 12766.197971863068
749.0267224568397 12452.870041911945
749.994556552374 12168.920810108379
750.9621472306771 12105.30804495611
751.9294945654583 11939.197372695922
752.8965986304011 11874.532596142419
753.8634594991636 11690.435532153586
754.8300772453586 11723.627396679174
755.7964519425768 11548.339914285518
756.762583664371 11642.26336362607
757.7284724842611 11542.578445977462
758.6941184757416 11472.800474153011
759.6595217122667 11487.490298764664
760.6246822672638 11518.460608306534
761.5896002141235 11284.95325859846
762.5542756262093 11336.522457450003
763.5187085768503 11392.016436288395
764.4828991393406 11238.866533223854
765.4468473869474 11281.0890544936
766.4105533929032 11287.293302867036
767.3740172304078 11162.463259506212
768.3372389726283 11263.19259488295
769.3002186926988 11069.871845842532
770.2629564637282 11034.723241805958
771.2254523587872 10963.710738111116
772.1877064509154 10921.99428750782
773.1497188131179 10914.362071726913
774.1114895183728 10815.467558426262
775.0730186396268 10856.172588829304
776.0343062497905 10723.395080985769
776.9953524217381 10669.522255866781
777.9561572283274 10738.086917454882
778.9167207423689 10641.156841633692
779.8770430366476 10615.327220869
780.8371241839159 10613.458081941946
781.7969642568951 10589.614174736416
782.7565633282757 10834.188899232813
783.7159214707099 10551.7243604794
784.6750387568281 10679.687937384502
785.6339152592227 10653.038317644241
786.5925510504512 10620.631237893798
787.5509462030477 10639.290955201684
788.5091007895098 10557.580812043463
789.4670148823006 10650.689984431228
790.4246885538596 10576.14888154853
791.3821218765861 10607.23065916072
792.3393149228505 10482.837266809278
793.2962677649975 10654.093188992292
794.2529804753303 10662.307906069898
795.20945312613 10642.921898124445
796.1656857896378 10571.748458616337
797.1216785380675 10631.805329465646
798.0774314435985 10698.511821203698
799.0329445783846 10823.151356717088
799.9882180145414 10821.029127869666
800.9432518241574 10800.234195947265
801.89804607929 10935.235543135774
802.852600851962 10941.99382069794
803.8069162141637 10903.08026132201
804.760992237856 11048.458479231393
805.714828994971 11174.887318224623
806.6684265574077 11058.584276868989
807.6217849970271 11033.608203719941
808.574904385674 11011.923018488793
809.527784795142 11103.976457271241
810.4804262972102 11070.850325872792
811.4328289636178 10882.75942862873
812.3849928660748 10708.913024843083
813.3369180762638 10727.304286960363
814.2886046658241 10747.588871263211
815.2400527063783 10624.44062098278
816.1912622695108 10524.255126014741
817.1422334267718 10508.508545214641
818.0929662496856 10397.518306458594
819.0434608097457 10161.972532032702
819.9937171784059 10217.9041788609
820.9437354271013 10211.261432698897
821.8935156272255 10230.360532072013
822.8430578501484 10000.09827644139
823.7923621672016 9821.734827899045
824.7414286496896 9942.580654809284
825.6902573688876 9944.71283233441
826.6388483960363 9869.275815133718
827.5872018023492 9773.873501025386
828.5353176590033 9853.855482885894
829.4831960371503 9736.915108519926
830.4308370079016 9757.934492126822
831.3782406423525 9786.200869331597
832.3254070115545 9716.776932821685
833.2723361865319 9643.12118934887
834.2190282382799 9630.961173974058
835.1654832377644 9812.5888024944
836.1117012559116 9617.062446693231
837.0576823636256 9774.732857111952
838.003426631778 9557.219456707784
838.9489341312074 9564.181619679899
839.8942049327197 9738.446566973502
840.8392391070975 9670.404646881841
841.7840367250865 9637.227338616296
842.7285978573982 9571.786041731617
843.672922574724 9690.014354500263
844.6170109477152 9631.147701372562
845.560863046996 9598.160549807964
846.5044789431595 9576.638647219206
847.4478587067697 9533.791992282075
848.3910024083561 9700.894541085527
849.333910118421 9542.35096883659
850.2765819074339 9552.505633346696
851.2190178458332 9684.2316433766
852.161218004032 9727.06272487364
853.1031824524016 9630.837587664457
854.0449112612987 9574.037181809827
854.9864045010327 9671.217287096842
855.9276622418947 9569.798991773107
856.8686845541379 9542.55159312367
857.8094715079915 9569.392458322574
858.7500231736467 9667.474553255612
859.690339621271 9596.358483056585
860.6304209209939 9596.350668342067
861.5702671429244 9473.293121704246
862.5098783571284 9640.312679789367
863.4492546336569 9646.938856609568
864.3883960425155 9607.905202995735
865.3273026536863 9631.23084810526
866.2659745371238 9620.58797015081
867.2044117627465 9803.919479251843
868.1426144004472 9689.885858435431
869.0805825200823 9818.454530578038
870.0183161914847 9762.790666153955
870.9558154844526 9902.877099785537
871.8930804687552 9807.102616974818
872.8301112141307 9762.217071185187
873.7669077902865 9871.8102926926
874.7034702669062 9996.826874855677
875.6397987136315 9967.928705266222
876.5758932000863 9963.561112053565
877.5117537958522 10046.753577586083
878.4473805704911 9946.819375564
879.3827735935283 10010.720942660573
880.3179329344603 10090.948258198547
881.2528586627541 10229.077680646124
882.1875508478479 10169.114280593643
883.1220095591489 10076.590852170715
884.0562348660296 10083.31297900556
884.9902268378391 10137.53291155486
885.9239855438955 10114.257482764082
886.8575110534839 9970.968439398011
887.7908034358588 9870.431015388791
888.7238627602474 9959.27447179618
889.6566890958475 10005.679803381541
890.5892825118208 9761.49207083337
891.5216430773125 9885.20263310886
892.4537708614189 9836.332318843339
893.3856659332196 9731.865144738873
894.3173283617652 9670.498721319758
895.2487582160684 9729.97336337805
896.179955565116 9712.148408903595
897.110920477864 9597.539367420206
898.0416530232451 9512.143699725048
898.9721532701478 9503.153060234723
899.9024212874428 9598.301737164158
900.8324571439662 9449.299040364318
901.7622609085302 9439.682674698488
902.6918326499072 9391.247617815057
903.6211724368477 9416.661649616057
904.5502803380696 9496.715829598104
905.4791564222614 9428.95135961801
906.4078007580792 9346.439878413581
907.3362134141571 9389.438882514343
908.2643944590909 9552.943221387844
909.1923439614493 9355.45867134703
910.1200619897754 9347.860363611386
911.0475486125779 9463.405554850546
911.9748038983344 9501.133619779388
912.9018279155007 9382.40894846105
913.8286207324982 9338.41580231504
914.7551824177117 9437.670164593153
915.6815130395116 9363.619386925635
916.6076126662283 9275.991299163397
917.533481366163 9329.932349377701
918.4591192075914 9313.012421318985
919.3845262587565 9358.65909952983
920.3097025878706 9185.57346899384
921.2346482631237 9195.404466784377
922.1593633526682 9175.51565869871
923.0838479246304 9249.136778180316
924.0081020471061 9352.070771132943
924.9321257881656 9056.165806447856
925.8559192158464 9185.97197436923
926.7794823981512 9088.652148436457
927.7028154030686 8941.617304740801
928.6259182985414 8907.999116191886
929.5487911524906 9174.848838351418
930.4714340328119 9023.600069287624
931.3938470073608 8923.600176753987
932.3160301439748 8880.00747004863
933.2379835104548 8936.808501192769
934.1597071745709 9058.5259201778
935.0812012040769 8953.781444689757
936.002465666681 9077.440081298373
936.9235006300696 8937.715681044558
937.8443061619055 8982.34912192747
938.7648823298077 8823.583013348663
939.6852292013809 8813.045255274894
940.6053468441951 8936.777456036089
941.5252353257874 8895.042040658285
942.4448947136698 8964.51529769738
943.364325075323 8910.456957125554
944.2835264782043 9001.174417524131
945.2024989897309 8925.730450608124
946.1212426773054 8883.113567460652
947.0397576082851 9043.336502968743
947.9580438500125 9120.721914186108
948.8761014697939 9044.601028791703
949.7939305349064 9129.842896716013
950.7115311125999 9007.495409416098
951.6289032700952 8993.339936615272
952.5460470745875 9162.489204618796
953.4629625932339 9047.231737539598
954.3796498931715 9187.82486302552
955.2961090415029 9139.049428317832
956.2123401053068 9093.385421306524
957.1283431516276 9084.209512535834
958.0441182474842 9067.434070458004
958.9596654598663 9122.554820160172
959.8749848557309 9051.16893650041
960.7900765020167 8957.978925429908
961.7049404656209 9010.226533677593
962.6195768134185 9078.164647683836
963.5339856122537 9003.479920973492
964.4481669289453 9035.543819774419
965.3621208302793 8972.18182678609
966.2758473830145 8860.353632921135
967.1893466538822 8993.51273286413
968.1026187095813 8929.108462555347
969.0156636167867 8877.95901463224
969.9284814421426 8899.288932787624
970.8410722522622 8791.586678459757
971.753436113735 8718.033300226038
972.6655730931161 8750.09815037004
973.5774832569368 8830.040143797647
974.4891666716958 8684.187922044084
975.4006234038698 8720.682338387076
976.3118535198955 8608.309148822169
977.2228570861935 8743.326361899863
978.1336341691494 8784.706596361488
979.0441848351202 8611.317681772187
979.9545091504333 8817.953823209962
980.864607181391 8742.712653319923
981.7744789942699 8734.49476791442
982.6841246553086 8738.982088075605
983.5935442307236 8728.383103001026
984.5027377867027 8745.268428705049
985.4117053894024 8774.899855510968
986.3204471049557 8640.637149801165
987.2289629994648 8768.120759238776
988.1372531390007 8773.737571588883
989.0453175896091 8782.011916925072
989.9531564173067 8793.721533321608
990.860769688079 8622.97387691615
991.7681574678918 8739.990513311579
992.6753198226706 8778.67471618442
993.582256818323 8742.65928613339
994.4889685207218 8722.315143941632
995.3954549957143 8838.967695737674
996.301716309119 8865.3317513569
997.2077525267232 8772.260581426011
998.1135637142943 8827.01195417681
999.0191499375615 8901.447237587498
999.924511262232 8840.872906628792
1000.8296477539861 8939.846048929734
1001.7345594784656 8868.647713038721
1002.6392465012996 8808.639703769844
1003.5437088880753 8910.995930316392
1004.4479467043584 8959.97503771163
1005.3519600156869 8762.939554540546
1006.2557488875718 8866.836985633778
1007.1593133854858 8906.384143016025
1008.0626535748888 8725.427315711222
1008.9657695212009 8696.849939177217
1009.8686612898182 8910.91302027282
1010.7713289461135 8883.368806762472
1011.6737725554212 8789.931417815424
1012.5759921830577 8741.795727711817
1013.4779878943027 8751.492569665586
1014.379759754418 8869.48564380869
1015.2813078286254 8673.044954872916
1016.18263218213 8611.260082035355
1017.0837328801026 8655.465785017865
1017.9846099876886 8701.329658837067
1018.8852635700023 8640.646404344478
1019.7856936921362 8602.23159522945
1020.6859004191447 8622.962640560774
1021.5858838160675 8514.394945483707
1022.4856439479063 8429.020684074168
1023.3851808796389 8423.403154774474
1024.2844946762143 8605.501537321661
1025.183585402554 8493.699762134323
1026.082453123554 8370.593426734287
1026.9810979040776 8374.36883432342
1027.8795198089647 8335.98203071895
1028.777718903024 8448.575342314341
1029.6756952510368 8369.0099970088
1030.5734489177648 8308.209334686477
1031.4709799679313 8428.091612533546
1032.3682884662358 8540.725803502877
1033.2653744773506 8232.445459900506
1034.1622380659192 8288.115827345047
1035.058879296559 8435.70907240272
1035.9552982338591 8545.905713211207
1036.8514949423825 8426.901607275864
1037.7474694866614 8543.082439109097
1038.6432219312028 8504.02785253273
1039.5387523404825 8749.808560252348
1040.4340607789582 8672.82937290765
1041.3291473110476 8680.300479521482
1042.2240120011465 8967.14329814224
1043.1186549136273 8965.476604903208
1044.0130761128294 9009.96157273438
1044.9072756630649 9154.549378292251
1045.8012536286205 9359.368647783536
1046.6950100737577 9440.94796015322
1047.588545062701 9550.59298685224
1048.481858659663 9577.231694525086
1049.3749509288118 9729.778196430922
1050.2678219343034 9683.176814384435
1051.1604717402515 9686.550195508087
1052.0529004107575 9660.623581862363
1052.9451080098825 9753.410471209338
1053.8370946016694 9666.804549880331
1054.7288602501267 9667.877580939961
1055.6204050192446 9585.592414756173
1056.511728972977 9550.978282842769
1057.402832175254 9469.652087162805
1058.2937146899785 9327.608904824345
1059.1843765810263 9197.246148782555
1060.0748179122456 9323.388733502845
1060.9650387474576 9167.462101454495
1061.855039150456 9119.395863323725
1062.7448191850071 9122.566984220615
1063.6343789148505 9125.623572389757
1064.5237184037014 9145.097530866191
1065.412837715241 9024.087922058428
1066.3017369131267 8938.854319323324
1067.190416060992 8894.066847341732
1068.0788752224398 8827.794673751425
1068.9671144610438 8792.885138447215
1069.8551338403558 8802.399123132645
1070.7429334239023 8788.358612917664
1071.6305132751695 8692.775167238635
1072.517873457633 8749.297432484494
1073.4050140347335 8713.962867374441
1074.2919350698776 8736.146534279984
1075.1786366264623 8645.690906883001
1076.0651187678395 8689.130402889166
1076.95138155735 8622.411388098957
1077.8374250582929 8581.112480132284
1078.7232493339507 8669.601577847767
1079.608854447577 8554.768825906043
1080.4942404623907 8557.008555582295
1081.3794074415982 8740.954605962641
1082.2643554483657 8719.798394775
1083.149084545841 8575.08823450882
1084.033594797138 8572.215389561286
1084.9178862653516 8617.927624448439
1085.8019590135427 8815.952710131965
1086.6858131047484 8533.14700412199
1087.5694486019802 8738.258905472707
1088.4528655682225 8744.211146744095
1089.3360640664287 8956.09620853574
1090.2190441595321 8808.26223300781
1091.1018059104317 8912.078358971812
1091.98434938201 9044.675498378532
1092.866674637111 9054.647496745336
1093.748781738559 9006.822769041852
1094.6306707491512 8865.781141310708
1095.5123417316554 9003.4184931469
1096.3937947488157 8938.85324454622
1097.2750298633455 8923.411950228892
1098.156047137938 8966.746912531702
1099.0368466352556 8979.526298587474
1099.9174284179317 9099.895107695342
1100.7977925485757 8859.028597203172
1101.6779390897755 8802.933097701633
1102.5578681040806 8901.47669382129
1103.4375796540226 8796.285985271039
1104.3170738021054 8667.595242742416
1105.1963506108077 8607.920434146257
1106.0754101425773 8538.008048259453
1106.9542524598382 8669.055611833934
1107.8328776249855 8475.973774655
1108.7112857003904 8525.774085655006
1109.5894767483987 8527.943849013313
1110.4674508313292 8514.900376944117
1111.3452080114657 8411.85887136452
1112.2227483510815 8519.793607461892
1113.1000719124077 8475.448500966395
1113.9771787576592 8593.518393007738
1114.854068949022 8551.281524672831
1115.7307425486542 8504.66040722068
1116.6071996186893 8561.760857500942
1117.483440221229 8783.761615915158
1118.3594644183577 8672.01688243436
1119.235272272128 8731.632728830973
1120.1108638445658 8762.093291686771
1120.9862391976712 9031.647393211942
1121.8613983934229 8947.878597432635
1122.7363414937627 9037.204105581568
1123.6110685606182 9018.543585578973
1124.485579655884 9252.069215493113
1125.359874841426 9145.577539025497
1126.2339541790916 9141.500277406412
1127.1078177306936 9470.136684289902
1127.9814655580267 9250.450473249302
1128.854897722851 9347.640677801191
1129.7281142869106 9323.71814626359
1130.6011153119125 9406.757666149719
1131.473900859548 9500.365531860636
1132.3464709914697 9372.53152261698
1133.2188257693178 9342.019930746896
1134.0909652546961 9234.758712234501
1134.96288950919 9207.497459534507
1135.8345985943506 9271.875448580204
1136.7060925717087 9145.312829274979
1137.57737150277 9084.062099494693
1138.4484354490069 9202.413280568047
1139.3192844718778 9043.56611476128
1140.1899186327992 8854.32876621319
1141.060337993178 8900.245839576202
1141.930542614382 8949.716408810838
1142.8005325577597 8658.545524511097
1143.670307884635 8576.638993869241
1144.5398686563003 8684.531254259475
1145.409214934025 8562.678600147883
1146.2783467790541 8468.799205915679
1147.1472642526023 8504.972877773314
1148.0159674158622 8476.238328332623
1148.8844563300026 8450.791451643378
1149.7527310561618 8407.452009953033
1150.6207916554504 8194.663364930027
1151.4886381889592 8246.908994765485
1152.3562707177498 8277.91357375334
1153.2236893028585 8204.55533785959
1154.090894005296 8235.039035280593
1154.9578848860474 8266.93360332882
1155.8246620060709 8180.968891079877
1156.6912254262988 7989.415670606961
1157.5575752076438 8017.507935519013
1158.42371141098 8129.1604759215625
1159.2896340971656 8141.540208757248
1160.1553433270346 8025.22422103477
1161.0208391613887 8085.2093490629395
1161.8861216610057 8044.6808737297515
1162.75119088664 8023.807892102179
1163.6160468990201 7918.792566134386
1164.4806897588442 7838.388247316319
1165.3451195267917 8000.026110277258
1166.2093362635114 7924.327814087568
1167.0733400296285 7890.109281514326
1167.9371308857444 7876.290744126064
1168.8007088924278 7798.558532904249
1169.6640741102328 7878.167762858701
1170.5272265996773 7839.977665428564
1171.390166421259 7832.409643120166
1172.252893635452 7821.640352946219
1173.1154083026995 8003.823415745853
1173.977710483421 7985.765435087216
1174.8398002380145 7825.5062277321285
1175.7016776268483 7995.154311951247
1176.563342710264 7943.8419607822125
1177.4247955485826 7876.648252423703
1178.2860362020947 8050.647164177097
1179.147064731069 7794.281644604377
1180.0078811957483 8029.338225975017
1180.8684856563486 7888.389525588755
1181.7288781730604 7965.138207409707
1182.589058806052 8101.56906827473
1183.4490276154593 8171.412750435663
1184.3087846614017 8054.0522566102345
1185.1683300039676 8036.667334009762
1186.027663703222 8270.005515937313
1186.8867858192025 8146.270532878557
1187.7456964119228 8287.25394994957
1188.6043955413716 8265.745733127053
1189.4628832675116 8371.395560463081
1190.3211596502842 8487.191643059945
1191.179224749596 8446.606603954937
1192.0370786253388 8380.131286292784
1192.8947213373758 8632.498636544551
1193.7521529455407 8693.739204494683
1194.6093735096438 8564.603055625214
1195.466383089477 8629.2033751395
1196.3231817447977 8560.182340712974
1197.1797695353398 8772.152787584699
1198.0361465208189 8521.173937471762
1198.8923127609214 8610.244041201486
1199.7482683153048 8666.537660288192
1200.6040132436028 8814.252514539694
1201.459547605431 8549.276325976112
1202.3148714603722 8611.568173079933
1203.1699848679855 8617.646314397181
1204.0248878878065 8698.860011101617
1204.8795805793507 8511.853731818263
1205.7340630020935 8648.178360086586
1206.5883352155033 8606.296819060508
1207.4423972790064 8574.710215745712
1208.2962492520237 8324.797935817402
1209.1498911939307 8404.356342130577
1210.0033231640937 8295.663711462736
1210.8565452218427 8281.377916734014
1211.7095574264913 8091.36555002353
1212.5623598373222 8074.978491703735
1213.4149525135963 8003.418577114659
1214.2673355145507 8047.118590362139
1215.1195088993936 7908.6761187702705
1215.9714727273113 7983.808512162123
1216.8232270574663 8082.252868460942
1217.6747719489904 7782.046511416086
1218.5261074609934 7791.588095086486
1219.3772336525653 7875.7349675114
1220.2281505827668 7942.315106845121
1221.0788583106296 7910.985613703566
1221.9293568951707 7725.111458105501
1222.7796463953746 7711.675300556339
1223.629726870202 7840.311665256437
1224.4795983785934 7781.680063773674
1225.3292609794553 7672.980946963257
1226.1787147316809 7613.300334294928
1227.0279596941327 7717.4382913582185
1227.8769959256424 7765.5528324948655
1228.7258234850306 7737.801151470221
1229.5744424310833 7547.222384805422
1230.422852822563 7801.420304052353
1231.2710547182105 7733.61576633019
1232.119048176739 7651.315113098011
1232.9668332568417 7544.149065818565
1233.8144100171812 7694.648272913361
1234.6617785163999 7740.354350661767
1235.508938813111 7548.713173856643
1236.3558909659114 7650.004057398114
1237.2026350333617 7676.520334297382
1238.049171074008 7811.04186156436
1238.8954991463652 7512.254535978478
1239.741619308932 7530.698066488645
1240.587531620169 6414.855247362459
1241.4332361385277 7724.757258356687
1242.2787329224248 7553.944270147903
1243.1240220302534 7498.4489646187385
1243.9691035203869 7504.584355473928
1244.813977451171 7723.390663803681
1245.6586438809263 7664.399585288173
1246.5031028679496 7535.724871787401
1247.3473544705157 7801.989700915385
1248.1913987468706 7764.800717326907
1249.0352357552383 7609.895845423833
1249.8788655538228 7662.79017648029
1250.7222882007918 7875.073370206951
1251.565503754302 7853.52519662829
1252.4085122724755 7601.813050861536
1253.2513138134182 7909.203983068388
1254.0939084352049 7827.30931469138
1254.9362961958905 7884.321143813398
1255.7784771535007 7782.366050668516
1256.6204513660432 7901.072562817948
1257.4622188915 8032.847110848455
1258.3037797878242 7896.377955681368
1259.1451341129468 7910.6025057454
1259.9862819247755 8110.486662862588
1260.8272232811978 8100.42939111148
1261.6679582400666 8184.053783734851
1262.5084868592203 7884.102030174411
1263.34880919647 7952.082343621012
1264.1889253095997 7989.597027183836
1265.0288352563712 8061.419845571263
1265.8685390945266 7910.377709706891
1266.7080368817751 8021.441402384751
1267.5473286758115 8122.051860453062
1268.386414534294 8045.264757195527
1269.2252945148703 7748.556313015467
1270.0639686751547 7949.052809631647
1270.9024370727402 7851.048664375968
1271.7406997651997 8004.745775843442
1272.5787568100714 7785.14857174654
1273.4166082648808 7870.219384808062
1274.2542541871244 7835.560642653162
1275.091694634275 7985.516847040463
1275.9289296637817 7714.728271456773
1276.7659593330663 7871.130983197259
1277.6027836995308 7862.031791813033
1278.4394028205552 7978.794614679768
1279.2758167534867 7857.155777413014
1280.112025555658 7922.727453230262
1280.9480292843746 7931.526543006637
1281.7838279969128 7788.716568211885
1282.6194217505326 7857.120095525973
1283.4548106024686 7785.499422906907
1284.289994609926 7900.3423157817115
1285.1249738300921 8045.230718568877
1285.959748320127 7954.813187559866
1286.7943181371702 8076.846054623978
1287.6286833383328 8067.703506062797
1288.4628439807038 8091.386829036828
1289.2968001213521 8024.9586893595815
1290.1305518173194 8076.998823674105
1290.9640991256183 8264.013740756527
1291.7974421032523 8163.324471655584
1292.630580807183 8111.5023569298955
1293.463515294361 8276.577220776022
1294.29624562171 8519.253621574695
1295.12877184613 8418.61142823211
1295.961094024493 8325.167209246301
1296.79321221365 8606.05645821004
1297.6251264704333 8662.442533035119
1298.4568368516466 8772.375742257484
1299.2883434140658 8734.90249949279
1300.1196462144526 8663.662838610424
1300.9507453095375 8655.896459845708
1301.7816407560313 9007.904136259778
1302.6123326106172 9005.03831646303
1303.4428209299622 8952.412556861727
1304.2731057707024 9146.822130066905
1305.1031871894502 9090.17108731893
1305.933065242798 9241.490713180227
1306.7627399873181 9197.06708689184
1307.5922114795467 9486.99160264485
1308.4214797760123 9357.25154663337
1309.2505449332057 9305.190958654817
1310.0794070076026 9363.624778530424
1310.9080660556538 9451.50144142371
1311.736522133786 9539.243541906475
1312.5647752983987 9328.32098432012
1313.3928256058734 9397.558301504632
1314.2206731125661 9615.271361727711
1315.048317874809 9583.39845491418
1315.8757599489109 9575.205439096344
1316.7029993911547 9559.457032155644
1317.5300362578055 9689.651048001779
1318.356870605101 9624.647044890848
1319.183502489257 9499.030180677735
1320.0099319664623 9674.45333812643
1320.836159092889 9666.114249667842
1321.66218392468 9579.993873483132
1322.4880065179532 9500.630302995489
1323.3136269288134 9565.572009614427
1324.1390452133292 9713.177592123704
1324.9642614275563 9671.96523469115
1325.7892756275214 9508.986207979095
1326.6140878692295 9455.140662107788
1327.4386982086617 9644.232663875475
1328.2631067017755 9312.57353999065
1329.0873134045069 9321.21433412675
1329.911318372764 9194.374857153132
1330.735121662441 9245.963140778207
1331.558723329399 8829.721497956298
1332.3821234294774 8888.055193137641
1333.2053220185007 8849.363191803463
1334.0283191522612 8742.302490834774
1334.851114886529 8714.697328004286
1335.6737092770582 8488.415901865072
1336.4961023795695 8503.05116456305
1337.3182942497697 8314.825326164177
1338.1402849433325 8385.93621804118
1338.962074515921 8171.581597061978
1339.7836630231632 8076.147668777639
1340.6050505206676 8301.518090020374
1341.426237064028 8209.35729380518
1342.2472227088037 7962.632025829761
1343.0680075105338 7835.461643709093
1343.888591524741 8023.666075819713
1344.7089748069138 7940.831422343205
1345.5291574125276 7800.336724377956
1346.3491393970307 7533.07494029754
1347.168920815846 7821.182952239125
1347.9885017243778 7773.641968560572
1348.8078821780036 7591.844881428183
1349.6270622320844 7639.561856385151
1350.4460419419447 7589.918799978314
1351.2648213629054 7541.692709526777
1352.0834005502438 7382.8744191927935
1352.90177955923 7330.832851734836
1353.7199584451064 7565.415623325169
1354.5379372630887 7581.112981261528
1355.355716068374 7414.074222180776
1356.1732949161305 7291.494637964141
1356.9906738615155 7320.303577407192
1357.8078529596478 7366.190343364954
1358.6248322656375 7392.470174368192
1359.441611834567 7270.906181627861
1360.2581917214866 7412.62902569798
1361.0745719814367 7274.7479236609815
1361.890752669433 7230.866432297541
1362.7067338404577 7188.36327771441
1363.5225155494845 7302.872751193827
1364.3380978514506 7375.639915033667
1365.1534808012839 7102.536543071743
1365.9686644538815 7049.416548622925
1366.783648864117 7338.153208224018
1367.5984340868417 7407.721398114205
1368.413020176893 7244.299543766203
1369.2274071890715 7065.494819750248
1370.0415951781652 7258.534032072412
1370.8555841989346 7172.969773811169
1371.6693743061223 7109.3407255486
1372.48296555444 7004.940887707993
1373.2963579985844 7266.110733979098
1374.1095516932255 7186.503762743628
1374.9225466930166 7060.948022136412
1375.7353430525782 7272.428810770754
1376.5479408265164 7046.041865198471
1377.36034006941 7336.401752920354
1378.1725408358216 7270.217972927964
1378.9845431802805 7107.206143255957
1379.796347157304 7510.5545339126475
1380.6079528213813 7424.036094941043
1381.4193602269788 7162.249176679438
1382.230569428546 7116.650709646268
1383.0415804805016 7388.461115052397
1383.852393437246 7311.249012036329
1384.6630083531563 7288.718806871725
1385.4734252825892 7210.770599629193
1386.2836442798798 7294.449553503454
1387.0936653993322 7332.918197507405
1387.9034886952395 7337.3916155526795
1388.713114221864 7453.142734917873
1389.5225420334482 7446.06926940894
1390.331772184214 7395.734620526126
1391.1408047283585 7309.659447053737
1391.9496397200564 7391.666911404081
1392.758277213461 7522.748545355056
1393.5667172627054 7528.0287150590275
1394.3749599218918 7265.83933027254
1395.1830052451114 7263.718573164502
1395.9908532864265 7280.410559307091
1396.7985040998774 7466.262587103995
1397.6059577394808 7266.621535838962
1398.4132142592352 7208.099044378864
1399.2202737131156 7179.461937736077
1400.027136155073 7410.485117235405
1400.8338016390353 7258.661142359134
1401.6402702189134 7149.604916219636
1402.446541948586 7244.577249662501
1403.2526168819204 7229.733767416064
1404.058495072757 7060.717221040754
1404.8641765749107 7045.784853768169
1405.6696614421799 7179.160677018559
1406.4749497283356 7331.881311715037
1407.280041487129 6981.815490968623
1408.084936772295 6885.293764093876
1408.8896356375335 7079.70309828047
1409.6941381365323 7050.0680288203275
1410.498444322955 6867.075382710964
1411.3025542504402 6935.952031609059
1412.106467972606 6977.143824088152
1412.9101855430508 6997.17606142343
1413.7137070153458 6722.2053293863555
1414.5170324430437 6919.328239131729
1415.320161879672 6895.890747531198
1416.1230953787435 7055.783553154678
1416.925832993742 6794.692490203206
1417.7283747781275 6771.972072855596
1418.5307207853439 6877.804470170025
1419.3328710688093 6852.626550685182
1420.134825681922 6731.725153707097
1420.9365846780584 6794.869637520156
1421.7381481105713 6987.192759465253
1422.539516032788 6972.651765677208
1423.3406884980232 6942.859887048704
1424.1416655595604 6883.744349434969
1424.942447270665 6947.148846221889
1425.7430336845828 7280.037747982431
1426.5434248545298 7070.24533329961
1427.3436208337116 7236.572591696642
1428.143621675301 7221.272578848237
1428.9434274324558 7490.970074587674
1429.7430381583108 7176.405048169634
1430.5424539059713 7321.4991923329
1431.3416747285337 7711.422082675878
1432.1407006790632 7595.984494046327
1432.9395318106053 7462.841123166014
1433.7381681761835 7410.5122357729215
1434.5366098288014 7609.560101451013
1435.3348568214424 7767.530702754945
1436.1329092070573 7528.630264335709
1436.9307670385879 7560.209526717155
1437.7284303689503 7713.595519094121
1438.5258992510335 7638.831210609975
1439.3231737377118 7434.177571971384
1440.1202538818306 7515.198890051812
1440.9171397362225 7505.69574801206
1441.7138313536925 7498.126616637671
1442.5103287870243 7393.776405120088
1443.3066320889775 7309.747355682994
1444.1027413122956 7527.684802697198
1444.8986565096966 7336.865037476955
1445.694377733882 7360.055112891903
1446.4899050375207 7072.811319838991
1447.2852384732687 7185.680104662533
1448.0803780937622 7154.8121844105535
1448.8753239516063 7002.278658691534
1449.6700760993954 6811.814281721103
1450.464634589689 7034.174864330571
1451.2589994750397 7181.819243087583
1452.0531708079689 6736.86442305941
1452.8471486409799 6670.809740331759
1453.6409330265524 7026.069406307521
1454.4345240171442 6797.611333736674
1455.2279216651987 6698.897769904795
1456.0211260231263 6710.015952103202
1456.8141371433194 7084.280363692431
1457.6069550781594 6875.664926985924
1458.3995798799897 6523.602130940214
1459.1920116011424 6558.140039102478
1459.98425029393 6510.255203165668
1460.7762960106338 6546.493929095763
1461.5681488035225 6618.155646599989
1462.3598087248392 6640.869837473554
1463.1512758268036 6667.56707591349
1463.942550161617 6551.4109873297675
1464.7336317814625 6376.738836779179
1465.524520738496 6505.893130814029
1466.3152170848552 6364.2557116570215
1467.1057208726506 6448.5578346001475
1467.8960321539817 6358.018212054669
1468.6861509809169 6275.914711572298
1469.4760774055085 6383.68819697937
1470.265811479785 6279.7725107423485
1471.055353255755 6113.3416613427235
1471.844702785409 6086.131630366088
1472.6338601207044 6105.230082092621
1473.4228253135934 6209.032003086401
1474.2115984159936 6025.593301530347
1475.0001794798063 5930.485491655104
1475.7885685569145 6042.591162684723
1476.576765699172 5994.544044396316
1477.3647709584238 5996.585512383332
1478.1525843864802 6116.374366075861
1478.9402060351367 6088.110833919215
1479.7276359561693 6065.36011625138
1480.514874201328 5868.120510425232
1481.3019208223468 5830.415286307629
1482.0887758709323 5690.303039894912
1482.8754393987747 6071.361179299887
1483.6619114575406 5835.416834020061
1484.4481920988783 5777.473925224531
1485.2342813744108 5933.966561617613
1486.0201793357446 6049.940617803268
1486.8058860344572 5719.896804140257
1487.591401522117 5900.280724936082
1488.3767258502594 5802.661522672834
1489.1618590704056 5912.846866781138
1489.9468012340494 5638.107877096016
1490.7315523926754 5894.028595679699
1491.5161125977356 5899.673235799627
1492.3004819006637 5898.653460931323
1493.084660352877 5749.137920099556
1493.8686480057622 5814.57473945345
1494.6524449106964 6026.765866493717
1495.4360511190262 6052.329191318499
1496.219466682087 5790.057795500839
1497.0026916511779 5865.698654137027
1497.7857260775945 5845.7552451299525
1498.5685700125996 5928.675554363738
1499.3512235074395 5688.463374525021
1500.133686613337 5700.176353891481
1500.9159593814966 5701.823707447286
1501.698041863101 6065.860108463183
1502.4799341093094 5643.312205648641
1503.2616361712662 5518.326190364329
1504.043148100087 5855.098102337941
1504.8244699468742 5881.773800000699
1505.6056017626997 5588.553773041762
1506.3865435986281 5730.231274451843
1507.1672955056893 5800.046692591333
1507.9478575348967 5685.338303300121
1508.7282297372512 5869.64728955117
1509.5084121637192 5804.205484072476
1510.2884048652577 5754.653591269139
1511.0682078927948 5658.380889093309
1511.8478212972423 5667.523058563672
1512.6272451294917 5717.912399141719
1513.4064794404076 5772.6116590642305
1514.1855242808433 5865.167013670286
1514.9643797016215 5854.734712762308
1515.743045753552 5966.467348855353
1516.5215224874191 5872.140827818443
1517.2998099539836 5701.913767599163
1518.077908203999 5934.518145633481
1518.8558172881785 5917.364308688884
1519.633537257234 5990.862893297568
1520.4110681618404 5985.470460201216
1521.1884100526604 6011.467654755494
1521.9655629803365 5956.937688784474
1522.7425269954856 6245.497814832523
1523.5193021487103 6334.859540419296
1524.2958884905856 6094.018170306846
1525.0722860716687 6149.434016433058
1525.848494942502 6064.936413084869
1526.624515153595 6087.656296730041
1527.4003467554485 6203.740003173365
1528.175989798534 6194.5142087740505
1528.9514443333064 6323.657598024924
1529.726710410203 6536.015570795401
1530.5017880796331 6270.50979396189
1531.276677391992 6222.154855890237
1532.0513783976457 6349.432207187953
1532.825891146953 6355.102214278593
1533.6002156902414 6379.7939091741555
1534.3743520778207 6260.464639025
1535.1483003599806 6336.4162993881455
1535.9220605869923 6325.385776833152
1536.6956328091019 6286.139720067901
1537.4690170765407 6211.279117940384
1538.242213439511 6322.6820514426645
1539.015221948208 6286.8659682054
1539.78804265279 6159.857470321941
1540.560675603405 6100.99973505601
1541.3331208501804 6235.287568977299
1542.1053784432224 6202.605431186261
1542.8774484326168 6118.459734614193
1543.649330868422 6086.941882404936
1544.4210258006842 6112.06647234483
1545.1925332794308 6219.144610839457
1545.9638533546604 6076.8740967779795
1546.7349860763552 6010.470216856696
1547.5059314944829 6267.262234411321
1548.27668965898 6021.9863274972395
1549.0472606197673 6034.06070231052
1549.817644426752 5928.22719030792
1550.5878411298072 6163.792834624946
1551.3578507787988 6165.165165234482
1552.1276734235635 5960.0805439351925
1552.8973091139233 6042.428255016683
1553.6667578996767 6229.589475322701
1554.436019830604 6013.869102808292
1555.20509495646 5935.935203134861
1555.9739833269869 5973.2740796223
1556.7426849919011 5976.139900345148
1557.511200000903 6230.516581603559
1558.2795284036674 6050.902835987216
1559.0476702498509 5957.0225722974765
1559.8156255890954 6157.94003184143
1560.5833944710157 6342.184791179392
1561.3509769452048 5947.228098394047
1562.1183730612447 6077.8655850108935
1562.8855828686865 6087.114672796741
1563.6526064170703 6328.659363032858
1564.4194437559127 6235.759853999344
1565.1860949347047 6005.017393266603
1565.9525600029283 6270.180638093423
1566.7188390100328 6423.196474047369
1567.4849320054564 6032.725982910631
1568.250839038612 6087.7343723199665
1569.0165601588997 6157.203395186346
1569.7820954156887 6282.235885629202
1570.5474448583373 6102.650005723756
1571.31260853618 6075.5656309808255
1572.0775864985299 6023.936896823945
1572.8423787946813 6205.348460671693
1573.6069854739108 6068.4424390050035
1574.371406585471 6129.7258502413115
1575.1356421785986 6271.102620350524
1575.899692302506 6051.003978421767
1576.6635570063845 6072.984954497148
1577.4272363394157 6087.786337098908
1578.190730350747 6047.867335953064
1578.9540390895163 6077.410479770611
1579.7171626048384 5848.031886175835
1580.480100945806 5906.651332744346
1581.2428541614918 6009.052090306712
1582.0054223009538 6113.4600602381415
1582.767805413223 6021.381296850623
1583.5300035473156 5916.06619753939
1584.292016752228 6192.613499043299
1585.0538450769309 6085.782906524198
1585.8154885703807 5846.469129668171
1586.5769472815136 5849.235744043875
1587.3382212592405 5979.263826846047
1588.099310552463 6087.283855574847
1588.8602152100484 6011.140636397072
1589.6209352808564 5997.981435041767
1590.3814708137234 5850.149060933038
1591.14182185746 5880.302986120698
1591.9019884608679 5799.91645987074
1592.6619706727215 5588.351093664215
1593.4217685417734 5885.0733403225
1594.1813821167616 5932.250570104055
1594.9408114464022 5573.750205039369
1595.7000565793933 5742.162518657582
1596.459117564409 5734.455627976882
1597.2179944501113 5689.128744796223
1597.9766872851324 5504.392936462811
1598.735196118092 5829.18764024923
1599.4935209975883 5830.270654810024
1600.2516619721973 5909.232256893383
1601.0096190904787 5589.917622557497
1601.7673924009723 5585.541751951279
1602.524981952196 5532.619086191917
1603.2823877926476 5647.024198161217
1604.0396099708087 5551.6529908484
1604.7966485351371 5447.1660289346655
1605.5535035340745 5577.550528711484
1606.3101750160404 5660.526929606727
1607.0666630294363 5521.885260453277
1607.822967622642 5472.414320624901
1608.5790888440224 5625.172283879072
1609.3350267419137 5708.988637887323
1610.0907813646445 5506.969164704882
1610.8463527605145 5497.805055244975
1611.601740977805 5579.400060581066
1612.356946064785 5549.057535436714
1613.1119680696902 5275.55020770327
1613.8668070407512 5414.623149541399
1614.6214630261748 5352.145282320161
1615.375936074137 5592.015777468387
1616.1302262328118 5484.571173051436
1616.8843335503425 5508.38995353286
1617.638258074854 5401.843195836363
1618.391999854457 5470.2993429297685
1619.1455589372363 5547.57673139417
1619.8989353712623 5509.659990596821
1620.65212920458 5335.191775429589
1621.4051404852235 5362.256761530028
1622.1579692611976 5494.400518677201
1622.9106155804966 5362.910613662376
1623.663079491087 5480.421582379689
1624.4153610409248 5555.993188872414
1625.1674602779385 5428.8233590332475
1625.9193772500403 5320.067228320826
1626.6711120051277 5610.44588250001
1627.4226645910676 5484.887299547978
1628.174035055721 5390.990294734398
1628.9252234469168 5558.125489519454
1629.676229812474 5407.033734401528
1630.4270542001905 5829.873315720508
1631.1776966578382 5460.991515433342
1631.9281572331747 5456.180700183568
1632.678435973945 5629.173756468686
1633.4285329278573 5643.46485351992
1634.1784481426203 5361.744041239239
1634.9281816659113 5516.365026601119
1635.677733545388 5824.59826420875
1636.4271038286934 5649.460971364486
1637.176292563452 5725.493281707811
1637.9252997972635 5648.134024764034
1638.674125577716 5761.164980524122
1639.4227699523672 5959.028613897391
1640.171232968767 5565.393631913357
1640.9195146744423 5777.598582560774
1641.6676151168977 5938.634614799299
1642.4155343436178 6024.039299331399
1643.1632724020765 5851.045044998492
1643.9108293397167 5883.0125685148105
1644.658205203974 5795.158714885448
1645.4054000422566 6242.236150265656
1646.1524139019566 5789.867364318993
1646.8992468304423 5809.413284950422
1647.6458988750728 5763.995450847885
1648.3923700831765 5958.960862271348
1649.1386605020743 5859.449748704249
1649.8847701790564 6039.549221528663
1650.6306991614038 5936.159818940729
1651.3764474963682 5907.925399512349
1652.1220152311944 5633.525871650769
1652.867402413096 6028.053882817518
1653.6126090892776 5935.71063647269
1654.3576353069184 6112.855043221939
1655.1024811131829 5839.2723748188155
1655.8471465552066 5767.185235668693
1656.5916316801213 5956.492105558208
1657.3359365350298 5903.1694474333035
1658.0800611670165 5656.029799439814
1658.824005623148 5710.724807477865
1659.5677699504722 5623.032191105367
1660.3113541960192 5752.606102730912
1661.054758406799 5586.310117201957
1661.7979826297997 5390.618111391466
1662.5410269119966 5310.349086831312
1663.283891300338 5503.741894888148
1664.0265758417645 5314.191121542689
1664.7690805831826 5448.105700515249
1665.5114055714948 5461.7736837102875
1666.2535508535748 5625.857183140872
1666.9955164762814 5145.0896096139595
1667.7373024864555 5211.899014563345
1668.478908930916 5203.166508637796
1669.220335856462 5145.043012119299
1669.9615833098778 5105.771181325488
1670.7026513379296 4972.464724910315
1671.44353998736 5105.142816549306
1672.1842493048916 5004.657009119614
1672.9247793372379 4848.075706063639
1673.6651301310812 4978.375425528444
1674.4053017330934 4998.711847490394
1675.1452941899242 5010.860705023247
1675.885107548207 4417.3681907499395
1676.6247418545518 4646.770037905377
1677.3641971555535 4677.233520958796
1678.1034734977893 4822.953580885949
1678.8425709278108 4733.77966041089
1679.5814894921605 4845.314229653881
1680.320229237359 4679.125457203138
1681.0587902098978 4798.863085118852
1681.7971724562685 4572.251432779971
1682.5353760229264 4470.617319908572
1683.2734009563173 4727.871231756192
1684.0112473028657 4492.00861235193
1684.7489151089794 4613.983849039182
1685.4864044210462 4775.24844944156
1686.2237152854377 4314.5759922945435
1686.960847748498 4613.0328705900565
1687.6978018565642 4319.975182577037
1688.434577655944 4351.992906892709
1689.1711751929379 4189.11997126016
1689.9075945138156 4425.2985281887295
1690.6438356648396 4369.787147567013
1691.3798986922448 4069.695271529964
1692.1157836422499 4307.542050059895
1692.851490561059 4248.269554169775
1693.587019494853 4195.861292160481
1694.3223704897991 4121.916271166839
1695.0575435920364 4037.3905049292466
1695.792538847696 4403.118415110879
1696.527356302886 4067.724711002623
1697.2619960036936 3845.2544948635223
1697.9964579961907 3948.7759156710244
1698.730742326432 3756.898061730136
1699.4648490404488 3772.8027740401485
1700.1987781842563 3947.013042649716
1700.9325298038548 3987.3905737234077
1701.6661039452174 4091.691184246543
1702.3995006543082 3992.998617591334
1703.1327199770658 4134.441679933923
1703.865761959416 3869.2107982849666
1704.598626647261 4069.9956640838545
1705.3313140864866 3720.825660294261
1706.0638243229587 3831.5713680400563
1706.7961574025303 3924.1475713837654
1707.528313371029 3872.958684578983
1708.260292274268 3630.9987991769144
1708.9920941580403 3721.736566195951
1709.7237190681226 3790.1476227793783
1710.4551670502697 3814.725277182817
1711.18643815022 3600.713854125347
1711.9175324136959 4045.0368443033826
1712.6484498863938 3796.088858999729
1713.379190614005 3564.84355874347
1714.109754642188 3649.763179683707
1714.8401420165883 3611.779447319567
1715.570352782839 4104.114667189913
1716.3003869865497 3722.304286103366
1717.0302446733076 3519.3839574015933
1717.7599258886876 3752.1979977578567
1718.4894306782444 3815.9590219205347
1719.2187590875183 3539.186495558171
1719.9479111620203 3767.9422746168734
1720.6768869472544 3522.761470476854
1721.4056864887025 3760.145815270675
1722.1343098318284 3809.1141163366874
1722.8627570220742 3610.6605684242177
1723.591028104871 3492.9022651044156
1724.3191231256242 3461.9905714689726
1725.0470421297232 3620.314322525765
1725.7747851625427 3672.5160629966995
1726.5023522694337 3671.030845347602
1727.2297434957363 3633.8745905488204
1727.9569588867635 3249.798378906421
1728.6839984878152 3744.584796495508
1729.4108623441734 3230.5477231813807
1730.1375505011038 3703.7189827822594
1730.8640630038426 3455.7342337555892
1731.5903998976264 3406.7191651946573
1732.316561227657 3510.2123448289167
1733.0425470391274 3342.184122911236
1733.7683573772065 3472.1518157044106
1734.4939922870508 3469.5056326656295
1735.2194518137949 3603.662996638958
1735.9447360025606 3591.7278316348265
1736.669844898439 3458.2973189485797
1737.3947785465189 3264.811765020229
1738.1195369918605 3275.349409020901
1738.8441202795093 3304.7436099212805
1739.5685284544943 3539.676415564113
1740.292761561821 3476.980084076675
1741.0168196464838 3513.598136061316
1741.7407027534518 3450.5660146943
1742.464410927687 3473.356826079773
1743.187944214118 3378.881892062309
1743.9113026576688 3375.062082252961
1744.634486303241 3432.9263885083456
1745.3574951957125 3450.364814412472
1746.0803293799509 3548.878554478534
1746.8029889008048 3407.3924128012163
1747.5254738031017 3490.1752002530875
1748.2477841316504 3276.7513761287432
1748.969919931249 3508.7744546772856
1749.6918812466665 3366.873337169981
1750.4136681226646 3522.7996095182743
1751.1352806039777 3438.8155328058992
1751.856718735331 3156.1330300021123
1752.5779825614281 3152.5853564858526
1753.2990721269507 3448.519759818497
1754.0199874765676 3389.3896203633253
1754.7407286549314 3267.716987192143
1755.4612957066693 3352.3548589493303
1756.1816886763954 3197.108262316342
1756.9019076087097 3413.274318515544
1757.6219525481865 3361.0816496573366
1758.3418235393856 3348.3400134901217
1759.061520626854 3361.1239231912527
1759.7810438551096 3488.8740957265095
1760.5003932686614 3210.5979297495996
1761.2195689119999 3517.905542880088
1761.938570829594 3321.117689351384
1762.657399065898 3339.4262791729293
1763.376053665348 3178.0970179771653
1764.0945346723602 3161.4485893868214
1764.812842131334 3458.1197663254834
1765.5309760866512 3185.460850882949
1766.2489365826787 3094.557042198444
1766.9667236637597 3179.5404366159737
1767.684337374223 3073.745187837508
1768.401777758383 3110.9232882898323
1769.1190448605284 3144.342526431117
1769.836138724937 3095.5492989720365
1770.5530593958665 3191.844788611258
1771.2698069175603 3609.117133823483
1771.9863813342326 3372.3165438559467
1772.702782690094 3289.1976959090316
1773.4190110293293 3364.988050176819
1774.1350663961111 3356.9245423426387
1774.8509488345844 3129.129933804251
1775.5666583888924 3249.6750571810107
1776.2821951031437 3363.037523812223
1776.9975590214362 3170.235433523167
1777.7127501878585 3407.691307756336
1778.4277686464684 3310.096846294291
1779.1426144413108 3362.4064989498047
1779.8572876164162 3374.10961460373
1780.571788215797 3031.205049421638
1781.2861162834415 3222.1785412468794
1782.0002718633277 3184.3625637001032
1782.7142549994132 3243.883918323958
1783.4280657356376 3246.987488645669
1784.141704115922 3191.0098399199733
1784.855170184177 3197.6817344362144
1785.5684639842839 3247.7825262804445
1786.2815855601148 2925.897173237642
1786.9945349555237 3246.772816110829
1787.707312214343 2905.8863242359935
1788.4199173803918 3443.112795259652
1789.132350497468 3088.5290557979442
1789.8446116093583 3064.811879196048
1790.556700759822 3069.7149228763565
1791.2686179926077 3201.689579817851
1791.9803633514493 3136.8804211923157
1792.6919368800554 3108.586801689577
1793.4033386221236 3248.349032963553
1794.1145686213295 3244.490302692399
1794.8256269213307 3304.3819521966266
1795.536513565774 3189.0905635238555
1796.247228598284 2978.44011883424
1796.9577720624693 3138.293946523593
1797.6681440019165 3162.052388624014
1798.3783444602013 3082.1409258115154
1799.0883734808776 3292.5266347852325
1799.7982311074884 3181.78979920407
1800.5079173835475 3195.1828228851173
1801.2174323525633 3285.1458321438304
1801.9267760580187 3049.6714216149503
1802.635948543386 3156.681445085513
1803.3449498521113 2959.412393304916
1804.0537800276325 3235.9602463007204
1804.7624391133668 3069.0522762520295
1805.47092715271 2866.3446698217153
1806.1792441890484 2955.2598845035727
1806.8873902657433 3142.2628741102253
1807.5953654261448 3195.1163572849273
1808.3031697135812 3048.7079152158594
1809.0108031713662 2982.721725747929
1809.71826584279 3140.36701127572
1810.425557771141 3099.1452161001607
1811.1326789996747 3365.0770206868438
1811.839629571632 3082.7239239199707
1812.5464095302468 2962.512772970318
1813.2530189187182 3065.634176671918
1813.959457780249 3103.660600232822
1814.6657261580076 3257.7370498937803
1815.371824095153 3034.409920879559
1816.0777516348262 3201.207687281766
1816.78350882015 2756.260900452678
1817.4890956942272 2865.562535518946
1818.1945123001533 3031.9806357053467
1818.8997586809928 3039.5340936074804
1819.6048348798067 2932.318302804542
1820.3097409396287 2951.5148909389736
1821.0144769034796 3380.769939679838
1821.7190428143622 3102.041351399897
1822.423438715261 3171.2699068076186
1823.1276646491478 2879.2790585268654
1823.8317206589727 3080.8747189607666
1824.5356067876692 2961.506873202448
1825.2393230781581 2744.5231143817086
1825.942869573335 2983.8352530236725
1826.646246316086 2916.37590481475
1827.3494533492758 3015.4160986660254
1828.052490715756 3032.9638677732687
1828.7553584583547 3045.5455059313754
1829.458056619891 3075.8960659441
1830.1605852431585 3058.3918305983234
1830.8629443709433 2860.7750979013153
1831.5651340460063 3054.0896442849325
1832.2671543110919 2871.785759897993
1832.9690052089318 3062.262312426556
1833.6706867822395 2710.5371411583474
1834.3721990737104 3073.0847220916567
1835.0735421260233 3204.998139028262
1835.774715981841 3013.651044223473
1836.4757206838058 3246.9667629705546
1837.1765562745459 2960.851526564059
1837.8772227966747 2933.9032232725212
1838.5777202927839 2888.1018953426446
1839.2780488054523 2973.4145091777555
1839.9782083772352 2964.57235665642
1840.6781990506806 3253.5087476895915
1841.378020868313 2900.9939856619353
1842.0776738726418 2961.6212359898955
1842.777158106157 2776.1798626806763
1843.4764736113375 2805.130397053037
1844.1756204306403 3023.262062768192
1844.8745986065078 2891.316727344193
1845.5734081813607 2799.652147932954
1846.2720491976124 2901.8136238176276
1846.970521697649 2770.3375483771815
1847.6688257238511 2871.9746800269627
1848.3669613185684 2982.675747517158
1849.0649285241452 2700.435329330805
1849.7627273829057 2995.762414308284
1850.460357937156 3006.611762299179
1851.1578202291857 2707.858026376308
1851.8551143012664 2908.447124826376
1852.5522401956569 2835.773446352436
1853.2491979545957 3076.251510057879
1853.9459876203055 2769.6405796052413
1854.6426092349902 2917.3615793499257
1855.3390628408451 2833.7073862434136
1856.0353484800362 3091.867448243403
1856.7314661947203 2981.0680914378254
1857.4274160270397 2796.748462372444
1858.123198019115 2871.6026904458404
1858.8188122130487 2725.8909035949277
1859.5142586509319 2888.2635146776693
1860.209537374838 2872.3118914446823
1860.9046484268183 2840.688465643455
1861.599591848917 2972.184329818839
1862.294367683151 2701.6109234784194
1862.988975971528 2820.0730116943705
1863.6834167560355 2774.2412095072605
1864.3776900786452 3095.723620546636
1865.0717959813119 2794.7241048719147
1865.7657345059724 2713.9115039023472
1866.4595056945564 2892.1840878760495
1867.1531095889586 2944.214600119304
1867.846546231076 2843.4981264986195
1868.5398156627743 3009.4695835144694
1869.2329179259123 2691.663684270909
1869.9258530623283 2969.095750311364
1870.618621113843 2712.032032273852
1871.3112221222636 2702.8234674558416
1872.0036561293764 2776.0747784945333
1872.695923176956 2765.8736839871794
1873.3880233067594 3075.8097574239555
1874.0799565605212 2652.95224099595
1874.7717229799673 2736.0411185658627
1875.4633226068036 2911.8845638811244
1876.1547554827175 2833.062111415288
1876.8460216493859 2771.7880197892187
1877.5371211484617 2873.9168463789615
1878.2280540215852 2995.648107066329
1878.9188203103804 2575.7748895570157
1879.6094200564548 2713.3366167806007
1880.299853301396 2772.16750858286
1880.9901200867826 3075.9379265041457
1881.6802204541673 2904.202000774419
1882.3701544450942 2813.9144084945724
1883.059922101087 2666.5427474775875
1883.7495234636517 2981.632080889867
1884.4389585742792 2607.9036761152124
1885.1282274744517 2717.469808447916
1885.8173302056166 3219.4863060241078
1886.506266809225 2756.7839119735845
1887.195037326701 2663.1246947092336
1887.8836417994517 2681.9593930915194
1888.5720802688702 2963.750216185742
1889.260352776333 2974.013699355789
1889.9484593632042 2949.440385464616
1890.63640007082 2806.598627730249
1891.3241749405151 2553.2599448433475
1892.0117840135954 2849.7960655128995
1892.6992273313572 2732.6875292155264
1893.3865049350788 2652.22948532548
1894.0736168660223 3046.71098273391
1894.7605631654333 2874.3578225946703
1895.4473438745408 2501.5418600286725
1896.133959034556 2947.8228038826956
1896.820408686679 2844.993044146377
1897.506692872088 3022.748412599533
1898.192811631945 2739.9027472604403
1898.8787650073991 2729.755384316245
1899.5645530395832 2904.2076635094804
1900.2501757696118 2823.7946232376567
1900.9356332385796 2683.6832011588435
1901.620925487574 2979.6123420200097
1902.3060525576602 2890.6555004267166
1902.9910144898859 2859.8627750388796
1903.6758113252872 2789.173323499331
1904.3604431048789 2787.6234093467474
1905.0449098696663 2811.6507600696386
1905.7292116606295 2667.909275612953
1906.4133485187394 2758.526626511664
1907.0973204849488 2500.990153589005
1907.7811276001976 2588.774667338423
1908.4647699053967 2651.004010292644
1909.1482474414588 2169.4575562860236
1909.8315602492694 2574.4694323135145
1910.5147083696957 2879.9419769283545
1911.1976918436012 2713.171841576464
1911.880510711815 2615.0091634493997
1912.5631650151681 2895.9935406016384
1913.2456547944657 2652.023616359601
1913.927980090495 2700.00832284993
1914.6101409440362 2661.314621707594
1915.2921373958416 2771.278681437152
1915.9739694866603 2607.884360260194
1916.655637257214 2842.9198454425227
1917.3371407482136 2656.2553998909148
1918.0184800003572 2766.6281675956925
1918.6996550543154 2786.2504995127842
1919.3806659507554 2701.8892424463584
1920.0615127303208 2703.5968683362225
1920.7421954336423 2778.5399793879806
1921.4227141013343 2859.0365304006455
1922.103068773993 2797.3235659471466
1922.783259492202 2758.835827978938
1923.4632862965227 2703.648744492181
1924.1431492275078 2652.252239193315
1924.8228483256917 2584.151128937756
1925.5023836315922 2582.2993320733285
1926.1817551857057 2295.871111275538
1926.8609630285227 2939.472127230216
1927.5400072005123 2781.1689524841777
1928.218887742125 2655.4863700724745
1928.8976046938005 2593.428713101379
1929.5761580959588 2761.1443210887874
1930.2545479890086 2694.7343348016184
1930.9327744133352 2445.99321233366
1931.6108374093164 2685.0474466367186
1932.2887370173066 2766.4146676696428
1932.9664732776473 2423.5176710268347
1933.6440462306673 2727.4347429452228
1934.3214559166754 2547.041151700872
1934.9987023759659 2938.618170067136
1935.675785648813 2657.527979104111
1936.3527057754836 2295.254497286396
1937.029462796223 2448.110352318732
1937.70605675126 2601.349604650898
1938.3824876808085 2435.854862288858
1939.058755625072 2608.107895128195
1939.7348606242267 2514.800229719266
1940.4108027184448 2676.1433675047692
1941.0865819478713 2788.164628496038
1941.7621983526478 2468.0086181009056
1942.4376519728921 2475.6093259571526
1943.1129428487038 2517.7028705906355
1943.7880710201734 2710.53743885279
1944.4630365273733 2631.770028809861
1945.1378394103576 2383.4468356517873
1945.8124797091714 2804.715747352828
1946.4869574638324 2335.1674896364575
1947.161272714353 2564.0954288248568
1947.8354255007234 2695.857165553095
1948.5094158629272 2512.726105043273
1949.1832438409183 2661.058327449526
1949.8569094746435 2701.204740071917
1950.530412804037 2870.308503286741
1951.2037538690092 2682.751199027137
1951.8769327094578 2566.6673096013437
1952.5499493652678 2463.918619906094
1953.222803876306 2702.227940816973
1953.895496282421 2618.65953036643
1954.5680266234522 2495.8731219034107
1955.2403949392155 2669.072422905391
1955.9126012695142 2386.0341091399246
1956.5846456541403 2570.9973745648026
1957.2565281328643 2648.8231130818826
1957.9282487454457 2785.4607596652554
1958.5998075316202 2657.4229276065407
1959.27120453112 2508.7557657679595
1959.9424397836501 2524.4619002519635
1960.613513328908 2668.621788205246
1961.2844252065697 2763.9479982623834
1961.9551754563017 2366.5520006834145
1962.6257641177453 2422.3154941564608
1963.29619123054 2338.446822943244
1963.966456834296 2481.576125850697
1964.6365609686181 2416.1231653287678
1965.306503673086 2626.2565270498153
1965.976284987275 2395.1204824189604
1966.645904950734 2550.123705608953
1967.315363603002 2281.0811066237034
1967.9846609836077 2516.8910583010443
1968.6537971320486 2505.0071468936612
1969.3227720878222 2757.634427795795
1969.9915858904042 2503.6684250188396
1970.660238579252 2627.026025538699
1971.3287301938108 2514.395260230639
1971.997060773514 2518.6003954798553
1972.665230357772 2447.9105321142315
1973.3332389859843 2405.134057133548
1974.0010866975335 2289.1663268734474
1974.6687735317864 2554.0213759923945
1975.3362995280932 2576.098441374977
1976.003664725793 2671.628219286715
1976.6708691642052 2254.0241440375926
1977.3379128826364 2381.923739125922
1978.004795920373 2688.0552630946445
1978.6715183166925 2852.975659308041
1979.3380801108524 2229.6072055382656
1980.0044813420973 2477.297594557286
1980.6707220496555 2219.429181847676
1981.3368022727373 2525.6836065616467
1982.0027220505417 2484.762742822586
1982.66848142225 2157.8244270169325
1983.3340804270283 2219.9818247695475
1983.999519104027 2365.5510832928085
1984.6647974923835 2288.6739441190334
1985.329915631215 2525.013015743841
1985.99487355963 2450.0514372659327
1986.6596713167146 2671.7242147330285
1987.3243089415428 2377.9572607613554
1987.9887864731754 2623.97987017606
1988.6531039506553 2356.802099177475
1989.3172614130071 2338.1140651977453
1989.9812588992481 2319.430565074522
1990.645096448372 2120.175190876058
1991.3087740993633 2409.6660982368617
1991.9722918911848 2343.9811292747104
1992.635649862792 2423.2669440421805
1993.2988480531185 2546.413983228859
1993.9618865010852 2823.3646830977623
1994.6247652455968 2349.093248495966
1995.287484325545 2362.851477544524
1995.9500437798033 2524.617058437884
1996.6124436472292 2324.4268455808156
1997.2746839666706 2563.341107262731
1997.936764776954 2388.3787459545915
1998.598686116895 2431.211660207579
1999.2604480252903 2619.7577808560836
1999.9220505409212 2691.560520098868
2000.5834937025593 2308.9396053864766
2001.2447775489582 2408.0399336565647
2001.9059021188514 2460.786334189708
2002.5668674509616 2241.2199050286163
2003.2276735839987 2357.482201802645
2003.8883205566508 2626.5888812051253
2004.5488084075987 2395.885784917256
2005.2091371755014 2364.442231870801
2005.8693068990033 2224.4105630736476
2006.5293176167397 2580.363806452454
2007.1891693673224 2203.324859380571
2007.848862189354 2122.5012751332856
2008.5083961214223 2267.076874427603
2009.1677712020955 2318.5539597405905
2009.8269874699254 2182.911551765155
2010.4860449634598 2245.6435139731084
2011.1449437212177 2308.6722971991912
2011.8036837817108 2634.8833699947613
2012.4622651834325 2522.508909764303
2013.1206879648653 2495.871428934073
2013.7789521644736 2591.0095373569047
2014.4370578207036 2039.7536653932257
2015.0950049719922 2401.9716455480075
2015.7527936567585 2513.1432317884583
2016.4104239134067 2364.7196086402973
2017.067895780323 2621.9668196265507
2017.725209295886 2627.763048110731
2018.3823644984514 2633.5114555254786
2019.0393614263648 2493.70892677261
2019.6962001179545 2276.914922557361
2020.3528806115355 2658.0780401625498
2021.0094029454067 2307.6159533136693
2021.6657671578487 2140.9898539830674
2022.321973287133 2443.464192541657
2022.9780213715148 2259.603474501654
2023.6339114492293 2437.8768733012325
2024.2896435585026 2319.2555373364657
2024.9452177375442 2371.471500490154
2025.600634024544 2517.742432027429
2026.2558924576842 2483.1675038435806
2026.9109930751292 2484.1998036117548
2027.565935915025 2273.95362538974
2028.2207210155066 2619.7295471194107
2028.8753484146964 2764.40491246038
2029.529818150695 2635.0350213544843
2030.1841302615903 2505.075410160053
2030.8382847854573 2292.5731164506615
2031.4922817603601 2518.945724421091
2032.1461212243357 2400.6135615082253
2032.7998032154192 2169.8366710591386
2033.4533277716218 2415.7811285584057
2034.1066949309443 2268.5978791132884
2034.7599047313688 2080.2656170046816
2035.4129572108704 2471.4654693406874
2036.0658524074006 2343.372422413457
2036.7185903589016 2405.7850268654047
2037.3711711032956 2500.39516233248
2038.023594678496 2362.403830260655
2038.675861122394 2277.4358370519863
2039.3279704728757 2626.211775679657
2039.9799227678031 2151.925129254027
2040.6317180450278 2414.139684827107
2041.2833563423865 2268.4394160469196
2041.9348376977014 2684.9627936757674
2042.5861621487784 2396.6094630716057
2043.2373297334088 2340.3383839772064
2043.8883404893695 2513.5865358169835
2044.5391944544208 2498.1973789088634
2045.1898916663158 2682.625020113998
2045.8404321627804 2738.4486014749605
2046.4908159815368 2201.8723514203266
2047.1410431602853 2161.791680438233
2047.7911137367173 2291.888339715886
2048.441027748504 2491.531220814673
2049.090785233302 2276.156174949254
2049.7403862287592 2190.7454994980617
2050.389830772503 2589.270634167303
2051.0391189021466 2138.8785733616096
2051.688250655294 2184.985241673678
2052.337226069527 2122.1840103975014
2052.986045182417 2493.9305066302427
2053.634708031521 1825.6266253966103
2054.283214654375 2474.2331253221128
2054.931565088511 1830.993088789463
2055.579759371436 2144.2782677529076
2056.2277975406523 2419.5628209032043
2056.8756796336384 2586.477322440152
2057.5234056878617 2045.9397566956509
2058.1709757407752 2251.8368306054813
2058.8183898298194 2437.195379165807
2059.465647992416 2339.15807844221
2060.1127502659747 2519.6372439493675
2060.759696687888 1996.3751833006372
2061.4064872955405 2320.7237751152884
2062.053122126292 2088.1504872005044
2062.699601217497 2412.2687681394955
2063.345924606485 2215.617295554309
2063.992092330587 2318.458713664627
2064.638104427102 2218.338856065376
2065.283960933324 2500.791493880403
2065.92966188653 2365.547606007425
2066.5752073239855 2471.0961222296983
2067.2205972829397 2132.2819259842963
2067.86583180062 2199.185119955261
2068.5109109142522 2240.0056249694826
2069.15583466104 2337.801824126843
2069.8006030781708 2120.235381418778
2070.445216202821 2192.9931997412596
2071.089674072153 2415.122019872091
2071.7339767233116 2554.2055655560125
2072.3781241934303 2227.9429489821723
2073.0221165196253 2505.2550408892685
2073.6659537390024 2183.3507511838156
2074.3096358886505 2413.105998003696
2074.953163005637 2220.1721510412435
2075.596535127028 1835.997392636115
2076.2397522898664 2138.2618947310957
2076.882814531182 2310.3284057038336
2077.5257218879924 2489.4888773553103
2078.1684743973 2192.8436665301015
2078.8110720960885 2106.9759103549477
2079.453515021336 2561.8641733476647
2080.095803209997 2350.7469844761226
2080.7379366990135 2318.670118866603
2081.37991552532 2437.186634309787
2082.0217397258275 2452.2146822041514
2082.6634093374414 2085.0077908101985
2083.3049243970418 2385.7059715813275
2083.9462849415067 2376.814476154811
2084.587491007689 2343.873866755895
2085.2285426324324 2286.820517415195
2085.869439852564 2241.36061283667
2086.510182704902 2117.25133221951
2087.1507712262483 2217.4874395101638
2087.791205453381 1955.248800553858
2088.4314854230743 2309.349742367763
2089.0716111720867 2248.5801874565395
2089.7115827371617 1984.4931232823087
2090.351400155023 2081.5194905885724
2090.991063462385 2178.824138576068
2091.6305726959527 1894.462376228947
2092.2699278924047 1996.6547838859183
2092.9091290884153 2099.137702833006
2093.548176320641 2030.155605492447
2094.187069625721 2399.6164613900196
2094.8258090402887 2004.1707209427718
2095.464394600951 2345.114084244072
2096.102826344313 2255.0021505376344
2096.741104306955 2470.1284136458485
2097.379228525453 1998.9469878190052
2098.017199036358 1921.1129817740998
2098.6550158762147 2341.642019512281
2099.2926790815527 2188.454841120115
2099.9301886888825 2191.9954995019366
2100.5675447347076 2097.370936105151
2101.2047472555114 2300.8221343614173
2101.841796287761 2143.2997556514592
2102.47869186792 2232.183998355423
2103.1154340324265 2124.159088686744
2103.752022817709 2195.4234503857087
2104.388458260184 2170.461151929022
2105.024740396251 2320.606092054565
2105.660869262292 2261.191792981424
2106.296844894685 2458.417825053949
2106.93266732978 2247.2925495432874
2107.5683366039284 1968.6952212590154
2108.2038527534532 2315.039843224176
2108.8392158146726 2371.9091588897672
2109.4744258238843 1919.5691833416906
2110.1094828173755 2263.657806296461
2110.744386831422 2360.543060265912
2111.3791379022787 2187.5565957473577
2112.01373606619 2433.2009282644767
2112.648181359389 2112.331887756711
2113.28247381809 2105.400410934076
2113.916613478492 2306.9041591139085
2114.550600376786 2195.6128937592975
2115.1844345491445 2154.418395669515
2115.818116031729 2015.6717766198653
2116.451644860679 2178.5462923915775
2117.085021072133 2036.85755706836
2117.718244702204 2116.878966767727
2118.3513157869984 2043.0493687757644
2118.984234362604 2043.561722051921
2119.617000465092 2165.109662684892
2120.249614130529 2395.768613347097
2120.8820753949585 2179.554479641173
2121.5143842944162 1979.0060244041765
2122.14654086492 2223.799625859722
2122.7785451424734 2352.5505467624766
2123.4103971630702 2294.883181612696
2124.042096962681 2237.3341981639965
2124.6736445772767 2419.064689229462
2125.305040042802 2114.8964319533634
2125.936283395191 2247.6030973496167
2126.567374670365 2291.405854410982
2127.198313904233 2186.3588338169156
2127.8291011326855 2115.556498063951
2128.4597363916037 2044.354628455439
2129.0902197168507 2182.9035554331176
2129.720551144279 1914.6090610407543
2130.3507307097225 2304.4446236255394
2130.980758449008 2436.7464948513325
2131.6106343979427 2082.881798494709
2132.2403585923203 2410.801803021994
2132.8699310679276 2369.579220361897
2133.499351860526 2264.597739230255
2134.1286210058715 2119.5452878616825
2134.7577385397053 2291.8580984002965
2135.3867044977487 2464.4621584622955
2136.0155189157176 2447.2250974747285
2136.644181829308 2357.5011486053872
2137.2726932742025 2183.8349990140955
2137.901053286074 2495.3500659993447
2138.5292619005777 2002.9320777961952
2139.1573191533535 1980.8213179642316
2139.7852250800315 2186.303377365149
2140.4129797162295 2136.717566355666
2141.0405830975433 1832.6091037589752
2141.6680352595613 1901.181746862873
2142.2953362378576 1969.9074077839032
2142.9224860679915 2107.0066884304247
2143.549484785508 2081.246800109371
2144.1763324259373 2161.7536166762143
2144.803029024799 2096.6439986308023
2145.429574617594 1928.5883200402586
2146.0559692398165 2041.8778561673594
2146.682212926942 2002.7580382292933
2147.308305714432 2183.3101031499928
2147.9342476377333 2231.697284447372
2148.5600387322847 2324.623639823386
2149.185679033506 2393.51515436121
2149.8111685768017 2052.3634953535593
2150.4365073975678 2042.4414347086708
2151.061695531187 2210.1192798716565
2151.686733013021 2430.691255703397
2152.311619878423 2333.4499473173782
2152.9363561627342 2004.3394180178286
2153.560941901278 1967.9151786601656
2154.1853771293663 2327.5616671153152
2154.809661882293 2237.0046524064937
2155.433796195348 2076.0131562416623
2156.0577801037944 2427.9814099421515
2156.681613642895 2297.2651647797206
2157.3052968478896 1968.8706393495486
2157.928829754006 2314.421452643014
2158.552212396462 2232.967295677705
2159.1754448104566 2119.406279035092
2159.7985270311783 2011.088856768501
2160.4214590938027 1789.3768455402271
2161.0442410334927 1846.2450248016262
2161.6668728853874 2235.268934285049
2162.289354684628 1965.822857912238
2162.911686466332 2069.8322760057754
2163.533868265602 2170.1081761574274
2164.1559001175337 2545.2553400433067
2164.7777820572046 2215.263226990031
2165.399514119681 2255.948310502442
2166.021096340013 1958.88114174646
2166.6425287532384 2403.8175727167127
2167.263811394385 2367.480708563849
2167.8849442984574 2331.2733494394406
2168.505927500455 1920.3594213835574
2169.126761035366 2316.806285707561
2169.7474449381552 1949.8106236575181
2170.367979243778 1746.916720801984
2170.9883639871823 2413.771969331909
2171.608599203293 1953.8338066421773
2172.2286849270276 2537.367834585961
2172.8486211932886 2614.4375746030314
2173.4684080369625 2067.0521905056603
2174.0880454929265 1903.42772020649
2174.7075335960417 1854.280856446204
2175.3268723811543 1838.0776019945274
2175.9460618831 1821.8604788522086
2176.565102136701 2117.242945579608
2177.1839931767627 2511.692572928895
2177.802735038078 2093.5902895168865
2178.421327755432 1860.743717194219
2179.0397713635866 1865.8484430221774
2179.658065897298 1981.675725396098
2180.276211391305 2231.3264081335756
2180.8942078803357 1989.1213445502792
2181.5120553991 2235.1534339730492
2182.129753982299 1801.8511039008852
2182.7473036646206 1998.516153027173
2183.3647044807367 2201.0532105979937
2183.9819564653044 2187.5163188917827
2184.599059652968 2174.022790246746
2185.216014078367 2176.7083606758533
2185.832819776113 2254.977645941014
2186.4494767808137 2333.303696292606
2187.065985127063 2107.0675872951656
2187.682344849436 2084.7406370416875
2188.298555982501 2193.722443055443
2188.9146185608097 2153.4666162439994
2189.530532618901 2183.721355443374
2190.1462981912937 2239.8594914928944
2190.761915312507 2184.602862781549
2191.377384017036 1960.49579437375
2191.9927043393654 2015.4764466762292
2192.6078763139667 2193.427516673262
2193.2228999753006 2371.7892467030915
2193.837775357808 2111.7371156086692
2194.452502495922 1789.5772215924203
2195.0670814240602 2029.7469696915573
2195.6815121766285 1731.5041760805022
2196.2957947880186 1638.5390675745907
2196.9099292926057 1545.391992585238
2197.523915724758 2159.026322571627
2198.137754118825 1887.3271474738037
2198.7514445091456 2213.3220644027797
2199.3649869300443 2364.890625165144
2199.9783814158327 2516.9125109510646
2200.5916280008096 2449.44282399976
2201.2047267192593 2410.9463804218963
2201.8176776054515 1979.937703200887
2202.430480693649 2033.8359079200702
2203.0431360180955 2044.801865860221
2203.6556436130195 2195.0585775457735
2204.268003512645 1714.303514877723
2204.8802157511727 2053.1265488767144
2205.492280362796 2366.4419395063533
2206.1041973816937 2049.3156042448472
2206.715966842032 2104.2027408731233
2207.3275887779655 2031.3707595274511
2207.93906322363 2104.3549998109256
2208.550390213153 2315.165771111888
2209.1615697806465 2271.0110587843037
2209.7726019602105 1808.9970975753727
2210.3834867859277 1861.0550475999614
2210.9942242918787 1833.8520109186957
2211.6048145121167 2049.418466066817
2212.2152574806914 2477.0663714220946
2212.825553231638 2111.942512136122
2213.435701798975 2086.81506346282
2214.045703216707 2061.8876243994887
2214.655557518832 1683.8078390839776
2215.2652647393297 1822.8283889748866
2215.874824912169 1637.39140417046
2216.4842380713 2132.3100630792337
2217.09350425067 1812.0220860700786
2217.7026234842033 2188.9351342649147
2218.311595805819 2151.7558034836234
2218.9204212494133 1808.8040135689237
2219.52909984888 2329.781231081609
2220.137631638092 2302.2123757119084
2220.7460166509154 2274.4404922550702
2221.354254921198 1781.939366886117
2221.9623464827764 2311.7501552406497
2222.5702913694713 2109.907376687738
2223.178089615096 2113.308311122924
2223.7857412534486 1916.668370695415
2224.39324631831 1722.5313179940094
2225.000604843457 1793.2925352005404
2225.607816862641 2035.825378834958
2226.214882409611 2043.2347042513466
2226.8218015180973 2255.74737436963
2227.4285742218217 1986.7849984903842
2228.0352005544864 2093.6068441340944
2228.6416805497847 1782.013108986789
2229.248014241399 1871.3170984575634
2229.8542016629945 1773.7444484256698
2230.460242848223 2198.1736330391705
2231.0661378307304 2427.2565826372324
2231.671886644139 1776.8137263263384
2232.277489322065 1847.6623121295809
2232.8829458981127 1572.6298647995693
2233.48825640587 1874.7682661347487
2234.0934208789095 2283.574674634018
2234.6984393507955 2165.661679513382
2235.3033118550793 2094.2877364551828
2235.9080384252975 1823.0406277476184
2236.5126190949723 1625.905397112469
2237.1170538976166 1725.091030499057
2237.721342866729 1602.2140882595368
2238.32548603579 1881.5692006801332
2238.9294834382763 2052.979070441694
2239.533335107646 1855.2708028431844
2240.1370410773434 1825.921767262908
2240.740601380803 1676.1421869961846
2241.3440160514474 2074.151150605413
2241.9472851226783 2075.8328590393567
2242.550408627896 2098.1556767009833
2243.1533866004793 1990.9405797368631
2243.756219073799 1938.1180633542667
2244.3589060812064 1876.3755828830647
2244.961447656049 1813.078300294856
2245.5638438316564 1959.5957632326295
2246.166094641343 1840.1318127154034
2246.7682001184166 1775.2794303591459
2247.3701602961664 2070.5470923817034
2247.971975207871 2102.274312749282
2248.5736448867974 2114.713069706392
2249.175169366197 1774.7449881314085
2249.7765486793123 2084.3075006546455
2250.3777828593684 2074.075332047173
2250.9788719395783 2033.8828628116448
2251.579815953146 1865.266324024164
2252.1806149332606 1718.725919482339
2252.781268913097 1940.7683249914614
2253.381777925817 1900.1053361489062
2253.9821420045737 2071.685099227839
2254.5823611825035 2068.4917826586175
2255.1824354927303 1905.171427733391
2255.782364968365 1794.1177289137734
2256.38214964251 1682.9662283812147
2256.9817895482483 1705.2163830490153
2257.5812847186553 1981.2653911740958
2258.180635186791 1608.7650682978679
2258.779840985704 1766.5121860416134
2259.37890214843 1941.1317566578825
2259.97781870799 2212.497195882398
2260.5765906973957 2019.988872667895
2261.175218149645 1888.9981419790474
2261.773701097718 1990.3438573558178
2262.3720395745895 1541.5606812029457
2262.970233613216 1564.003613752984
2263.568283246548 1677.267748574853
2264.1661885075137 1731.542047282638
2264.763949429038 1761.579941269952
2265.3615660440246 2005.5765764386747
2265.959038385374 2186.148864010079
2266.5563664859637 1852.6810980567614
2267.153550378669 2044.9577589003245
2267.7505900963424 2188.2153559771614
2268.3474856718312 1661.6084561294192
2268.9442371379664 1817.2417770915806
2269.5408445275643 1689.3705364405068
2270.1373078734377 1935.648885133466
2270.7336272083758 1686.8490410443396
2271.32980256516 1736.1040410326805
2271.925833976562 1938.7033300491305
2272.5217214753357 2133.99981306035
2273.117465094223 1735.240633181794
2273.7130648659586 1910.6745197430962
2274.308520823257 1872.5288512610646
2274.903832998827 2143.9315549147723
2275.4990014253563 2102.8318456435018
2276.094026135528 2061.6138849478616
2276.6889071620117 1844.139812202747
2277.2836445374614 1958.6164785029846
2277.878238294519 1946.2907143359485
2278.472688465812 1805.320591856891
2279.066995083962 1664.0767565981
2279.6611581815705 1795.5675554528957
2280.255177791232 2052.226844618116
2280.8490539455233 1871.3431036879142
2281.442786677013 2127.8978293689042
2282.0363760182554 2202.996437078948
2282.6298220017943 1776.846509889862
2283.223124660155 2248.053958915937
2283.816284025859 1662.0672170510775
2284.4093001314086 2167.197862615827
2285.002173009292 1802.0645161049656
2285.5949026919952 1993.7258063797046
2286.1874892119777 1883.1146709142017
2286.7799326016993 2017.0926188360895
2287.3722328936 1583.8640793220043
2287.964390120109 1514.6263974726105
2288.556404313642 2122.2413773507033
2289.1482755066027 2204.4163934460876
2289.7400037313873 1750.3693843867754
2290.3315890203703 1772.2645399734633
2290.9230314059205 1761.0346704933113
2291.5143309203904 1563.2785709657987
2292.1054875961236 1773.525870775048
2292.6965014654506 2129.9778882403325
2293.287372560684 1643.772482255764
2293.878100914131 1681.2101488776557
2294.468686558086 1718.7819001501648
2295.059129524827 1800.2086590808951
2295.649429846617 1846.7665348257638
2296.239587555716 1628.7581796073898
2296.8296026843636 1812.3211987294246
2297.419475264791 1773.3345733014235
2298.0092053292137 1734.1652892699797
2298.598792909839 1876.4162762362037
2299.1882380388597 1834.631711479215
2299.777540748455 1843.9372905526313
2300.3667010707904 1853.137337093344
2300.9557190380256 1979.3598943628785
2301.544594682302 1871.285714911034
2302.1333280357503 1763.0661789244107
2302.721919130485 1857.2346850177323
2303.3103679986198 2170.299262879836
2303.898674672242 2035.058760753116
2304.486839183437 1531.0799282126322
2305.0748615642697 1766.2473932146113
2305.6627418468015 1908.4674318900459
2306.2504800630704 1602.0553590537907
2306.8380762451143 2035.6790952958393
2307.425530424949 2008.8774099286104
2308.012842634582 1981.9985598953572
2308.6000129060103 2276.3471798413993
2309.187041271214 2239.9528324744447
2309.773927762164 2156.3458525655838
2310.3606724108213 2072.598588083193
2310.9472752491274 1700.121103778199
2311.5337363090184 2036.8655543903974
2312.120055622414 1872.687442299763
2312.706233221221 1843.9321670810775
2313.2922691373424 1991.2240373945847
2313.8781634026564 1699.1955104057583
2314.463916049037 1827.7318924205597
2315.049527108342 1778.9459445061282
2315.6349966124235 2052.7074984804467
2316.2203245931123 2096.3025896157465
2316.8055110822315 1559.0681229443405
2317.3905561115935 1669.8511592904047
2317.9754597129977 1679.9805250358324
2318.560221918229 1633.8498860117127
2319.1448427590603 1587.6501363931036
2319.729322267256 1551.3615966710959
2320.313660474563 1812.5053882139182
2320.8978574127195 2387.21463109528
2321.481913113452 2363.775376596422
2322.0658276084705 1681.3509844591274
2322.6496009294806 1768.940571861339
2323.233233108165 1579.0479027889494
2323.8167241762058 1901.2878093160386
2324.4000741652617 1680.742338042643
2324.983283106987 1931.5592194353856
2325.5663510330232 1858.1989896140506
2326.1492779749933 1784.4526253148197
2326.7320639645204 2049.102033395089
2327.3147090332004 1583.5563858931644
2327.897213212629 1680.0833228555268
2328.4795765343843 1776.6152475398674
2329.0617990300307 1421.0740745362868
2329.643880731124 2112.007881567314
2330.22582166921 1822.345369876905
2330.807621875816 1614.542900051145
2331.3892813824623 1406.5467941993104
2331.9708002206517 1443.4615881741854
2332.5521784218818 1610.4665184094358
2333.133416017634 1777.8808214030778
2333.7145130393765 1716.7895513307715
2334.295469518571 2147.9751759778073
2334.876285486658 2012.1690699973435
2335.456960975076 1961.466867158125
2336.037496015242 1910.6853052351228
2336.6178906385667 2022.402420346034
2337.198144876451 1848.2908925098563
2337.778258760278 1939.6614797701427
2338.3582323214214 1931.6331624682723
2338.938065591243 1923.5376863081426
2339.517758601087 2106.423831100891
2340.0973113822965 1770.967819886181
2340.676723966193 2002.2360034684189
2341.255996384094 1890.324127450162
2341.835128667295 1954.471703629832
2342.4141208470883 1913.2026811819796
2342.992972954751 1833.753182379544
2343.5716850215467 1755.8573467431713
2344.1502570787306 1723.7423676146998
2344.7286891575386 1691.4800166512214
2345.3069812892045 2146.7142742968927
2345.885133504944 2169.3020290612594
2346.4631458359618 1672.8876948451057
2347.04101831345 1656.5726591053365
2347.6187509685915 1856.3580241685643
2348.196343832553 1738.8548892955957
2348.7737969364935 1650.8878068269576
2349.351110311558 1562.845814456857
2349.9282839888765 1448.5198333528883
2350.5053179995757 1444.293642149844
2351.0822123747585 1560.9086480496003
2351.658967145526 1613.8516045955744
2352.2355823429643 1666.9779219509387
2352.812057998144 1928.2491540282913
2353.3883941421263 1691.2333514536608
2353.9645908059647 1807.2642294002605
2354.540648020693 1772.2224544280841
2355.116565817336 1719.5259412847051
2355.6923442269126 1841.3877583177964
2356.2679832804224 1756.870600534699
2356.8434830088518 1779.9714615577493
2357.41884344318 1840.214792280393
2357.994064614377 1725.110215121676
