#exp_cfg={"servo_angle": 0.0, "laser_lim": 100.0, "servo_angle_to": 18.0, "laser_wup": 0.0, "bt_dev": "EnSpectr-25AE3", "laser_wdn_max": 0.0, "frames": 10.0, "servo_used": 0, "servo_calib_use": 0, "laser_wdn_min": 0.0, "servo_pix_from": 90.0, "cooler_tout": 300.0, "servo_angle_from": 0.0, "servo_calib": "[-1.9174921013161362e-09, 3.9322238269163779e-05, -0.27385609119055809, 653.59552119713567]", "laser_autoctl": 0, "servo_pix_to": 3682.0, "laser_pw": 100.0, "cooler_on": 0, "laser_volt": 4.0, "cooler_autoctl": 0, "cooler_curr": 70.0, "cooler_startup": 10.0, "laser_fixed_pw": 0, "gain": 1.3, "offset": 2.53059635486, "servo_calib_degree": 3.0, "laser_curr": 55.0, "shutter": 8200.0, "servo_calib_step": 1.0, "laser_fixed_curr": 0, "exp": 2000.0, "ccd_volt": 4.7, "bt_addr": "00:06:66:62:5A:E3", "servo_delay": 500.0, "laser_autooff": 1}
#proc_cfg={"flat_auto_wnd": 200.0, "flat_auto_fr": 200.0, "flat_auto_shift": 5.0, "yconv": 1, "flatten": 1, "flatten_strength": 100.0, "xfrom": 300.0, "auto_max_frame": 2000.0, "auto_signal": 48000.0, "flat_auto_tol": 0.1, "autoclip": 1, "xrel_range": 0.0, "flat_auto_to": 4000.0, "intensity_adj": 1.0, "xrel": 7852.0, "rmhot": 1, "flat_auto_slit": 4.999999999999997, "auto_ini_exp": 300.0, "auto_off": 0, "xto": 2860.0, "flat_auto_ref": "", "flat_auto_rank": 1, "autobackg": 0, "xrel_adj": 0.0, "auto_black_lvl": 1, "base_wnd": 100.0, "sub_baseline": 0, "xconv": 2, "auto_max_exp": 1000.0, "auto_total_exp": 10000.0, "auto_exp": 0, "rmripple": 0, "black_lvl": 8261.7, "shutter_clip_adj": 0.0, "auto_bckg": 0, "flat_auto_thr": 0.9, "subbackg": 1}
316.8218498245369 12869.564464326808
317.89969571804795 12696.11245622111
318.977263876126 12652.05022658935
320.05455438786703 12584.23065761912
321.1315673423287 12472.077320678052
322.2083028285215 12524.777418184643
323.2847609354267 12389.921495107477
324.3609417519747 12409.262771784552
325.43684536705587 12247.402516293154
326.5124718695279 12299.312730712109
327.58782134820103 12183.175833345198
328.66289389184385 12191.054065708346
329.7376895891921 12070.318687992074
330.8122085289342 12056.349046896094
331.88645079971866 12081.85404517078
332.9604164901575 12053.481443008566
334.03410568881554 11894.327775111266
335.1075184842266 12034.593385599203
336.18065496487543 11814.253243059717
337.2535152192122 11866.216732752135
338.32609933564163 11855.396640063567
339.39840740253203 11795.789862664627
340.4704395082099 11726.618312861716
341.5421957409617 11746.702410642702
342.6136761890357 11767.95898628452
343.6848809406365 11618.655068643206
344.75581008392874 11630.387606383581
345.82646370703696 11540.652138896141
346.8968418980512 11549.598250798193
347.96694474501055 11593.65618133116
349.0367723359268 11572.909837402045
350.106324758759 11592.885837532629
351.1756021014353 11401.37431127839
352.2446044518383 11478.81275904316
353.31333189781435 11538.16243538147
354.38178452716966 11444.96377447434
355.449962427665 11386.598837996276
356.51786568702846 11378.396710986279
357.58549439294256 11424.645289849661
358.6528486330535 11499.109937795703
359.71992849496564 11383.09058116246
360.7867340662433 11429.947961928323
361.8532654344144 11446.945580490068
362.9195226869597 11500.811766299816
363.9855059113288 11381.522120126287
365.05121519492604 11333.025064494717
366.11665062511565 11504.250770615867
367.1818122892273 11444.559973911548
368.2467002745434 11497.949350419205
369.31131466831175 11496.78451235079
370.375655557742 11422.780469474403
371.4397230299983 11486.243332480035
372.5035171722102 11475.386748532817
373.5670380714637 11488.265330494907
374.6302858148101 11523.351905277626
375.6932604892554 11491.04647910158
376.7559621817709 11472.443253666144
377.81839097928605 11436.437932516481
378.8805469686886 11414.157649822062
379.94243023683157 11534.669667497854
381.0040408705263 11412.074105412208
382.0653789565458 11310.62128298893
383.1264445816196 11415.528772967555
384.1872378324406 11319.364654911384
385.2477587956637 11372.295687609414
386.3080075579037 11277.221966208974
387.3679842057336 11229.577085958455
388.4276888256918 11286.376773962289
389.48712150426945 11304.398531478053
390.54628232792857 11194.70583644423
391.6051713830857 11182.710578316166
392.66378875611736 11179.874257753805
393.7221345333637 11159.024737746857
394.7802088011249 11105.852942951558
395.838011645661 11114.703933596133
396.89554315319765 11050.854652501837
397.9528034099112 10985.875550563858
399.00979250194723 10961.538239446923
400.06651051541485 10929.853907941246
401.1229575363741 10910.497100760223
402.17913365085224 10889.170173295584
403.23503894483656 10991.69047163256
404.2906735042761 10888.616986389192
405.3460374150818 10722.10057927544
406.401130763119 10799.566977107193
407.455953634224 10844.617408568993
408.5105061141876 10743.93144521448
409.56478828876243 10622.25951328807
410.6188002436629 10607.493819818937
411.6725420645689 10614.82417171665
412.72601383711117 10722.070893331642
413.77921564689314 10659.23705894254
414.8321475794728 10551.209078462201
415.88480972036814 10462.350224829333
416.93720215506437 10547.60441349411
417.9893249690049 10500.385834466764
419.04117824759123 10431.913519178886
420.09276207619223 10407.08001805288
421.144076540133 10446.667121112669
422.1951217247042 10353.062910942072
423.24589771515275 10361.623412118428
424.2964045966928 10363.178460435578
425.34664245449494 10387.293249482569
426.3966113736933 10280.803838353682
427.4463114393875 10247.248103502116
428.49574273662984 10278.810639754352
429.5449053504417 10200.293034905231
430.5937993658026 10272.516064328045
431.6424248676558 10207.410676068057
432.6907819409007 10161.35469092707
433.73887067040596 10230.641982906247
434.7866911409965 10159.193232820859
435.8342434374608 10123.70133692164
436.88152764455117 10148.809791188827
437.9285438469724 10085.610750515276
438.9752921294057 10095.997533117164
440.02177257648145 10056.317880426255
441.06798527279716 9971.91163162793
442.1139303029122 10102.302700223554
443.1596077513459 10111.548391311753
444.2050177025794 10012.85627043135
445.25016024105753 10049.648870143263
446.2950354511886 9987.34268135869
447.33964341733736 10073.430782409549
448.383984223834 10016.016007330822
449.4280579549686 9929.730090477971
450.471864694995 9995.425199202818
451.5154045281306 9961.56518010233
452.5586775385509 9985.72214598418
453.60168381039693 9962.934675968107
454.64442342776783 10022.347202049907
455.6868964747264 9919.526794815505
456.7291030353008 9852.619513972753
457.77104319347563 10016.828604399307
458.8127170332027 9878.369762431754
459.854124638392 9923.526352909352
460.895266092919 9952.75347821044
461.93614148061897 9998.608269629738
462.97675088529104 10047.771876760455
464.01709439069236 9971.852610462407
465.0571720805492 9959.167736969812
466.0969840385442 9989.111988753819
467.1365303483253 10078.982053911273
468.17581109350067 9942.962867898841
469.2148263576437 9947.23537912257
470.2535762242878 10022.955075208934
471.29206077693016 10039.57960816497
472.33028009902773 10107.038480987438
473.3682342740012 10062.749351883464
474.40592338523857 10086.87218687267
475.4433475160804 10142.556967717304
476.4805067498364 10215.38542231431
477.51740116978 10201.662810674521
478.5540308591426 10385.633898351822
479.59039590112116 10459.95181138824
480.6264963788726 10494.472582011089
481.6623323755193 10644.858631985917
482.6979039741436 10641.402963420212
483.7332112577915 10917.917826552022
484.76825430947247 11135.262160308353
485.80303321215797 11155.623080077461
486.837548048783 11259.898340471314
487.8717989022425 11496.7374114624
488.90578585539697 11516.997767177312
489.9395089910686 11627.441022155694
490.97296839203955 11639.05568141623
492.00616414106116 11443.927629500398
493.0390963208429 11506.747435297038
494.0717650140559 11526.601496687685
495.10417030333883 11345.090983999778
496.1363122712901 11275.522069014802
497.16819100046814 11077.970032772231
498.1998065734024 10901.693167027404
499.2311590725767 10892.088881538595
500.26224858044407 10646.36935847813
501.2930751794156 10524.967438714753
502.3236389518679 10471.663988523229
503.35393998014115 10306.230301896727
504.38397834653733 10305.481308991259
505.4137541333221 10208.666627599523
506.4432674227228 10106.915768517654
507.4725182969323 9966.432314075844
508.5015068381035 9945.892431443124
509.53023312835467 10024.80008313887
510.55869724976765 9910.702483253775
511.58689928438434 9840.815089200933
512.6148393142121 9791.402257154285
513.6425174212218 9816.61404605817
514.6699336873462 9887.987795324381
515.6970881944835 9879.97211421207
516.7239810244901 9740.818973458576
517.7506122591931 9791.343144290004
518.7769819803761 9764.215875125816
519.8030902697901 9824.973616359477
520.8289372091476 9755.876442475092
521.8545228801249 9906.086859013469
522.8798473643619 9732.094165192944
523.9049107434621 9751.62907041591
524.9297130989908 9843.130072638329
525.9542545124805 9756.312083454734
526.9785350654201 9756.00384959057
528.0025548392696 9804.571939441488
529.0263139154504 9688.430117923317
530.0498123753423 9726.752903430977
531.073050300296 9673.40478995705
532.0960277716204 9597.489328087006
533.1187448705896 9618.673564226376
534.1412016784416 9618.852970575457
535.1633982763833 9514.587421264476
536.1853347455726 9535.28352720586
537.2070111671401 9468.10976651917
538.2284276221817 9422.228120036863
539.2495841917516 9350.81907439449
540.2704809568677 9258.278424376365
541.2911179985167 9345.71097274566
542.3114953976419 9259.950384706035
543.3316132351592 9197.106860696771
544.3514715919409 9193.118084937392
545.3710705488247 9163.124168141738
546.3904101866156 9147.33523013163
547.4094905860784 9209.910703543286
548.4283118279418 9108.996515647837
549.4468739929034 9182.968313327936
550.4651771616191 9134.617032578153
551.4832214147063 9033.880867358097
552.501006832761 9127.277946046703
553.5185334963226 9045.34998221509
554.5358014859103 9109.220982804558
555.5528108820035 9066.522534095304
556.5695617650363 9036.482843524227
557.5860542154242 9049.284928539473
558.6022883135283 9047.749399074164
559.6182641396881 8965.0374616232
560.6339817741991 9047.915712700513
561.6494412973225 9071.712920882605
562.6646427892883 9097.463453693084
563.6795863302796 9066.611198364535
564.694272000459 9015.90290228672
565.7086998799423 9115.664005677872
566.7228700488104 9113.487768747993
567.7367825871115 8952.476220519204
568.7504375748576 9008.189052752969
569.7638350920224 9034.84669065264
570.7769752185486 9050.593871383848
571.7898580343353 9015.331213243355
572.802483619258 8966.64743032796
573.8148520531431 9188.747403577523
574.8269634157932 9128.112446412732
575.8388177869692 9065.134110016905
576.8504152463938 9131.906131775459
577.8617558737587 9295.69052966496
578.8728397487175 9109.296476788037
579.883666950891 9213.4571202422
580.8942375598654 9422.523709818413
581.9045516551851 9512.056392113582
582.9146093163617 9607.080938735433
583.924410622878 9586.927938070738
584.9339556541727 9625.594053929506
585.9432444896538 9740.937973274673
586.9522772086875 9713.343423099976
587.9610538906127 9664.5525694327
588.9695746147318 9602.861588078002
589.9778394603054 9670.340169318662
590.985848506567 9536.560071553145
591.9936018327098 9555.702030321398
593.0010995178891 9294.457882540866
594.0083416412344 9434.714235224217
595.0153282818283 9194.770561970814
596.0220595187293 9144.480906979381
597.0285354309508 9111.6575269698
598.0347560974806 9072.022813681131
599.0407215972609 9072.90818798669
600.0464320092051 8997.63340162578
601.0518874121954 8977.062848930549
602.0570878850685 8955.731540632558
603.062033506636 8919.009190196566
604.0667243556636 8963.202832755163
605.0711605108936 8889.174722056767
606.0753420510264 9036.758173705615
607.0792690547278 8958.077655297562
608.082941600629 8873.38373799575
609.0863597673306 9002.539146081102
610.0895236333909 9015.432938206679
611.0924332773357 9140.226593860314
612.0950887776617 9117.347529850613
613.0974902128219 9202.51761478837
614.0996376612384 9275.373263280902
615.1015312013005 9376.276175936311
616.1031709113595 9460.69055237328
617.1045568697336 9373.801101634
618.1056891547069 9620.086543072051
619.1065678445229 9728.96855259147
620.1071930173985 10010.036811045316
621.1075647515099 10016.58677844738
622.1076831250048 10136.046139607653
623.1075482159849 10317.266863548557
624.1071601025305 10403.768191109466
625.1065188626781 10489.611676019837
626.105624574433 10842.56059892483
627.1044773157682 10888.532477600796
628.1030771646128 11060.265381082103
629.1014241988742 11257.23622885673
630.0995184964158 11369.052209854151
631.0973601350688 11490.729547534896
632.0949491926294 11661.137570583403
633.0922857468631 11516.971972368669
634.089369875499 11580.168521563104
635.0862016562278 11560.403933647813
636.0827811667077 11379.813111898602
637.0791084845641 11378.768425548264
638.0751836873878 11170.679356446573
639.0710068527369 11158.808360118566
640.0665780581294 10932.92173899926
641.0618973810506 10823.498948757082
642.0569648989604 10675.59300791733
643.0517806892676 10461.54667823489
644.0463448293649 10377.540836170168
645.040657396592 10160.697880559765
646.0347184682723 9991.611043582028
647.0285281216875 9911.403485107077
648.0220864340772 9680.345402026976
649.0153934826558 9593.247544130561
650.0084493446047 9550.456763724658
651.0012540970674 9392.32470727988
651.9938078171526 9277.694221342403
652.9861105819346 9144.080730614143
653.9781624684565 9229.08199086779
654.9699635537254 9066.719408350451
655.9615139147136 9089.524175657141
656.9528136283589 8911.373845762137
657.9438627715699 8999.62605672174
658.9346614212154 8846.008008456707
659.925209654135 8682.576677385645
660.9155075471263 8705.543777101304
661.9055551769616 8702.298225506416
662.895352620375 8812.374807018366
663.8848999540678 8549.547975592943
664.8741972547068 8528.923050025482
665.863244598926 8531.106940321195
666.8520420633213 8605.447567029672
667.8405897244611 8403.638252679744
668.8288876588758 8327.770268284068
669.8169359430613 8389.702805082527
670.8047346534822 8394.57300201403
671.7922838665672 8260.356122517369
672.7795836587156 8346.233680478397
673.766634106285 8448.23633321435
674.7534352856092 8299.833209662555
675.7399872729766 8266.90008497623
676.7262901446538 8259.672863200347
677.712343976862 8293.9748372365
678.6981488457986 8355.202746106099
679.6837048276229 8215.925423477802
680.6690119984596 8231.783030966473
681.6540704344043 8292.928322961774
682.6388802115107 8207.446030764175
683.6234414058108 8230.600203877171
684.6077540932874 8068.8781967463465
685.591818349907 8139.461380550264
686.575634251587 8160.582216626598
687.5592018742263 8079.840994421642
688.5425212936734 7941.96193826274
689.5255925857564 8038.216915005047
690.5084158262707 7992.827714662092
691.4909910909646 7984.936181117873
692.4733184555644 7847.607282532294
693.4553979957618 8026.689562625057
694.4372297872123 7930.44410001177
695.4188139055404 7839.89405287714
696.4001504263324 7810.378564154844
697.3812394251509 7976.505805903178
698.3620809775111 7856.088411636124
699.3426751589104 7787.862359878216
700.3230220448004 7780.779212362693
701.3031217106054 7867.453302110082
702.2829742317172 7918.198592564004
703.2625796834873 7722.493573838858
704.2419381412474 7725.930329011824
705.22104968028 7825.7019324594075
706.1999143758458 7786.087767615635
707.178532303169 7847.002505123649
708.1569035374378 7933.656486646297
709.1350281538107 7908.673953028498
710.1129062274158 7802.201915032982
711.0905378333373 7987.406823085694
712.0679230466376 7982.385917692516
713.0450619423427 8117.857820476842
714.0219545954424 8239.824963345744
714.9986010808989 8111.998792541705
715.9750014736292 8268.20166714999
716.9511558485392 8401.267071908589
717.9270642804786 8486.775059133886
718.9027268442787 8577.64401432151
719.8781436147328 8631.491593227052
720.8533146666014 8551.009304812611
721.828240074612 8610.993936764566
722.8029199134635 8585.55866735027
723.7773542578125 8545.961212458551
724.751543182294 8471.613643501429
725.7254867615029 8492.049456909865
726.6991850700015 8225.041118242845
727.6726381823228 8259.868273695576
728.6458461729599 8240.185002470113
729.6188091163858 8189.065409864566
730.5915270870246 8216.144845594144
731.5640001592856 8093.729163835067
732.536228407529 8104.108135649641
733.5082119060917 8162.504825687883
734.4799507292755 8034.205293677316
735.4514449513481 8079.198541099065
736.4226946465496 8199.084686149337
737.3936998890786 8206.847700635817
738.3644607531078 8119.157986128198
739.3349773127793 8071.558965352856
740.3052496421951 8095.200829966583
741.27527781543 7922.887932618187
742.2450619065221 7870.786333654377
743.2146019894826 7841.9193653960365
744.183898138288 7832.031870206437
745.1529504268801 7766.874064624845
746.1217589291682 7655.987909683667
747.0903237190341 7607.284489656343
748.058644870318 7622.8366854747055
749.0267224568397 7538.926974910692
749.994556552374 7453.877629656323
750.9621472306771 7479.46475728956
751.9294945654583 7506.063429679103
752.8965986304011 7500.951370810789
753.8634594991636 7381.7018230433005
754.8300772453586 7455.99120015714
755.7964519425768 7458.466233568533
756.762583664371 7478.535590708397
757.7284724842611 7462.682421766151
758.6941184757416 7387.782010660887
759.6595217122667 7496.497916142696
760.6246822672638 7436.068270033451
761.5896002141235 7277.831676234733
762.5542756262093 7365.97054917773
763.5187085768503 7367.7529742972765
764.4828991393406 7315.436886001757
765.4468473869474 7300.978319604817
766.4105533929032 7385.008407848118
767.3740172304078 7277.401464671762
768.3372389726283 7401.402800225556
769.3002186926988 7220.6116633807005
770.2629564637282 7213.418710412142
771.2254523587872 7170.411712511338
772.1877064509154 7084.792243360467
773.1497188131179 7019.457876161243
774.1114895183728 6978.588353863479
775.0730186396268 6999.08320032234
776.0343062497905 6997.185743409324
776.9953524217381 6921.0277880173
777.9561572283274 7009.423853646765
778.9167207423689 6918.85304989585
779.8770430366476 6848.921332120741
780.8371241839159 6829.044192561484
781.7969642568951 6902.516638424076
782.7565633282757 7024.212249211952
783.7159214707099 6845.941842877886
784.6750387568281 6923.623038140271
785.6339152592227 6840.582376690906
786.5925510504512 6828.624142769935
787.5509462030477 6926.980820008585
788.5091007895098 6845.574221139078
789.4670148823006 6860.253481372645
790.4246885538596 6853.72428643783
791.3821218765861 6922.906876768177
792.3393149228505 6830.667551683284
793.2962677649975 6953.322558025323
794.2529804753303 6973.732812864963
795.20945312613 6954.357543846777
796.1656857896378 6942.405379885982
797.1216785380675 6931.33169988008
798.0774314435985 6992.665742028514
799.0329445783846 7131.925755977437
799.9882180145414 7119.398489536054
800.9432518241574 7057.159557990014
801.89804607929 7200.672109953093
802.852600851962 7315.423838562978
803.8069162141637 7281.810527052211
804.760992237856 7362.558590078021
805.714828994971 7461.032708507182
806.6684265574077 7512.483031519207
807.6217849970271 7404.371522775624
808.574904385674 7425.968337912856
809.527784795142 7497.691103885908
810.4804262972102 7600.4762224372225
811.4328289636178 7366.4434709726675
812.3849928660748 7185.621602960778
813.3369180762638 7162.589192256312
814.2886046658241 7234.952943939093
815.2400527063783 7112.009771317091
816.1912622695108 7036.693403980309
817.1422334267718 7096.825607484519
818.0929662496856 6883.680639010828
819.0434608097457 6698.519020101856
819.9937171784059 6811.3471807898695
820.9437354271013 6694.786799906346
821.8935156272255 6748.925595883002
822.8430578501484 6591.948071782737
823.7923621672016 6459.971165856069
824.7414286496896 6572.6219396942015
825.6902573688876 6570.371016624631
826.6388483960363 6553.227710331148
827.5872018023492 6441.315811792513
828.5353176590033 6542.9108393904635
829.4831960371503 6379.964068755244
830.4308370079016 6398.963394780947
831.3782406423525 6424.526125954023
832.3254070115545 6451.136790508297
833.2723361865319 6358.575558483817
834.2190282382799 6360.996596689862
835.1654832377644 6376.154355151379
836.1117012559116 6330.712641362961
837.0576823636256 6406.139544798033
838.003426631778 6249.571566320897
838.9489341312074 6283.447103945926
839.8942049327197 6392.458257650232
840.8392391070975 6401.738873627242
841.7840367250865 6250.562328748709
842.7285978573982 6213.328076240293
843.672922574724 6295.983861614655
844.6170109477152 6306.193700210182
845.560863046996 6273.777383650205
846.5044789431595 6224.324506524256
847.4478587067697 6280.794653888161
848.3910024083561 6371.8523743837195
849.333910118421 6260.672811058544
850.2765819074339 6246.509957307299
851.2190178458332 6338.036473510341
852.161218004032 6331.893002703789
853.1031824524016 6297.309285110015
854.0449112612987 6185.236873428653
854.9864045010327 6330.429554186437
855.9276622418947 6234.230221750258
856.8686845541379 6275.400805884186
857.8094715079915 6277.31715170908
858.7500231736467 6378.574083868643
859.690339621271 6378.423469721684
860.6304209209939 6349.771232661486
861.5702671429244 6298.748958836246
862.5098783571284 6359.52181937794
863.4492546336569 6418.155908119336
864.3883960425155 6331.438219437614
865.3273026536863 6368.419626988066
866.2659745371238 6324.626410084259
867.2044117627465 6467.148414510271
868.1426144004472 6337.606888260857
869.0805825200823 6477.636423989728
870.0183161914847 6545.13613187378
870.9558154844526 6538.223449045834
871.8930804687552 6523.202468080237
872.8301112141307 6460.378959835618
873.7669077902865 6592.409236186819
874.7034702669062 6687.921421983369
875.6397987136315 6605.275481861421
876.5758932000863 6675.403105203715
877.5117537958522 6783.931134070687
878.4473805704911 6677.676948433351
879.3827735935283 6724.065696494845
880.3179329344603 6786.810756260124
881.2528586627541 6900.401722145279
882.1875508478479 6937.043208740603
883.1220095591489 6759.219746090783
884.0562348660296 6733.193373010157
884.9902268378391 6894.168610438045
885.9239855438955 6763.098241197443
886.8575110534839 6687.517573242474
887.7908034358588 6748.052242775395
888.7238627602474 6712.234667637747
889.6566890958475 6759.935323395373
890.5892825118208 6533.374827213195
891.5216430773125 6593.176374333794
892.4537708614189 6558.220111062472
893.3856659332196 6455.713112835375
894.3173283617652 6416.73602013881
895.2487582160684 6408.662703900654
896.179955565116 6345.550283461661
897.110920477864 6330.697672152675
898.0416530232451 6192.258987049582
898.9721532701478 6206.453123077359
899.9024212874428 6349.098291638103
900.8324571439662 6154.764074790895
901.7622609085302 6079.188692088449
902.6918326499072 6066.432299574394
903.6211724368477 6122.400782519429
904.5502803380696 6151.848843982706
905.4791564222614 6257.896727743901
906.4078007580792 6004.737343493323
907.3362134141571 6036.557904714393
908.2643944590909 6151.340952894925
909.1923439614493 6036.055578576798
910.1200619897754 6052.1811247114765
911.0475486125779 6164.615137047786
911.9748038983344 6036.012251526148
912.9018279155007 6002.509870421039
913.8286207324982 5881.31259303924
914.7551824177117 5970.0396641035895
915.6815130395116 5940.717858453374
916.6076126662283 5786.553173950421
917.533481366163 5898.621850025839
918.4591192075914 5927.893767992641
919.3845262587565 5956.763183330906
920.3097025878706 5849.916558095543
921.2346482631237 5877.570614165638
922.1593633526682 5869.592209588916
923.0838479246304 5980.614923426439
924.0081020471061 5984.978629616873
924.9321257881656 5808.570698357231
925.8559192158464 5851.460764780933
926.7794823981512 5854.794315884716
927.7028154030686 5775.613024296154
928.6259182985414 5711.439361988382
929.5487911524906 5822.737000697475
930.4714340328119 5869.77751235179
931.3938470073608 5720.203455771133
932.3160301439748 5815.917553917445
933.2379835104548 5746.762877444539
934.1597071745709 5938.368677789121
935.0812012040769 5783.273911147963
936.002465666681 5797.355985492721
936.9235006300696 5799.775235977876
937.8443061619055 5804.550905104958
938.7648823298077 5699.155395312799
939.6852292013809 5689.20967863654
940.6053468441951 5794.660553406842
941.5252353257874 5683.25005421098
942.4448947136698 5749.919257661559
943.364325075323 5759.472807287837
944.2835264782043 5799.943385431523
945.2024989897309 5803.190521156015
946.1212426773054 5709.8681255887695
947.0397576082851 5782.148350335559
947.9580438500125 5864.124462088311
948.8761014697939 5883.774418106668
949.7939305349064 5839.843527063905
950.7115311125999 5735.178674034343
951.6289032700952 5757.968359250224
952.5460470745875 5833.880719954401
953.4629625932339 5700.425532918054
954.3796498931715 5759.303882731879
955.2961090415029 5823.885863724883
956.2123401053068 5847.592441833133
957.1283431516276 5705.108918704809
958.0441182474842 5670.625487328888
958.9596654598663 5831.153723004731
959.8749848557309 5684.782920817443
960.7900765020167 5656.642627227043
961.7049404656209 5660.919808553979
962.6195768134185 5723.399061150693
963.5339856122537 5731.245896593662
964.4481669289453 5774.853099178615
965.3621208302793 5759.50257251167
966.2758473830145 5636.065385015408
967.1893466538822 5859.131839647604
968.1026187095813 5702.290061339115
969.0156636167867 5682.53134468015
969.9284814421426 5689.415133056052
970.8410722522622 5647.777795605829
971.753436113735 5645.307117258313
972.6655730931161 5588.089133681269
973.5774832569368 5659.251092416275
974.4891666716958 5621.936496093471
975.4006234038698 5548.979480872786
976.3118535198955 5521.795317865207
977.2228570861935 5689.940418493391
978.1336341691494 5651.68955053611
979.0441848351202 5550.319041672247
979.9545091504333 5686.29933348618
980.864607181391 5569.060144713815
981.7744789942699 5608.356833406712
982.6841246553086 5697.676850969651
983.5935442307236 5554.580047332133
984.5027377867027 5623.970019580964
985.4117053894024 5662.125172493103
986.3204471049557 5544.845402257534
987.2289629994648 5651.195026483654
988.1372531390007 5756.042434432563
989.0453175896091 5696.78830592517
989.9531564173067 5681.816147344508
990.860769688079 5623.777973765784
991.7681574678918 5567.220052880822
992.6753198226706 5709.727143120873
993.582256818323 5627.103984204407
994.4889685207218 5607.303757218269
995.3954549957143 5868.58713369454
996.301716309119 5787.010018304278
997.2077525267232 5749.08586884437
998.1135637142943 5716.027908407221
999.0191499375615 5817.520331594031
999.924511262232 5879.871685403913
1000.8296477539861 5781.346432908998
1001.7345594784656 5816.691040252996
1002.6392465012996 5802.406581401047
1003.5437088880753 5866.504405778871
1004.4479467043584 5843.98458849054
1005.3519600156869 5750.015006674216
1006.2557488875718 5862.3888592911335
1007.1593133854858 5841.828096212319
1008.0626535748888 5698.695433654921
1008.9657695212009 5703.952567406442
1009.8686612898182 5923.2578667192665
1010.7713289461135 5892.55298354736
1011.6737725554212 5805.308442672867
1012.5759921830577 5743.716736061133
1013.4779878943027 5771.89495843847
1014.379759754418 5766.682914027617
1015.2813078286254 5642.938402248135
1016.18263218213 5657.325898271457
1017.0837328801026 5639.977455595311
1017.9846099876886 5670.248133786029
1018.8852635700023 5561.618551320909
1019.7856936921362 5518.4597256667275
1020.6859004191447 5649.207124673229
1021.5858838160675 5529.775393753179
1022.4856439479063 5477.817450170651
1023.3851808796389 5427.07802965658
1024.2844946762143 5599.519313413746
1025.183585402554 5537.766035607758
1026.082453123554 5361.064484687364
1026.9810979040776 5438.57248059866
1027.8795198089647 5356.268461821429
1028.777718903024 5459.499977416714
1029.6756952510368 5402.634145639004
1030.5734489177648 5356.403500579743
1031.4709799679313 5376.543114262583
1032.3682884662358 5443.847059752517
1033.2653744773506 5263.621400348609
1034.1622380659192 5290.450085813156
1035.058879296559 5403.073207463355
1035.9552982338591 5515.369711260757
1036.8514949423825 5382.563242010875
1037.7474694866614 5418.844480230722
1038.6432219312028 5432.590143330753
1039.5387523404825 5570.288577562454
1040.4340607789582 5474.079092723981
1041.3291473110476 5522.408684983173
1042.2240120011465 5659.953384750084
1043.1186549136273 5696.628435179391
1044.0130761128294 5688.490547770129
1044.9072756630649 5692.982588190026
1045.8012536286205 5800.20565644652
1046.6950100737577 5857.630963746449
1047.588545062701 5977.787748267198
1048.481858659663 5934.708328927445
1049.3749509288118 5975.708225357537
1050.2678219343034 5967.7741502933
1051.1604717402515 5964.348035535301
1052.0529004107575 5870.331677976286
1052.9451080098825 5916.091042248109
1053.8370946016694 5918.409392492018
1054.7288602501267 5877.562589950473
1055.6204050192446 5841.485686103513
1056.511728972977 5970.308058305559
1057.402832175254 5912.208343140224
1058.2937146899785 5719.195954687964
1059.1843765810263 5651.006867391221
1060.0748179122456 5726.074611542243
1060.9650387474576 5675.920531462292
1061.855039150456 5600.884899858017
1062.7448191850071 5594.504173425748
1063.6343789148505 5592.686071977667
1064.5237184037014 5716.492389718627
1065.412837715241 5585.065526074805
1066.3017369131267 5543.440458467432
1067.190416060992 5449.138873699217
1068.0788752224398 5437.383217971201
1068.9671144610438 5448.6383414288175
1069.8551338403558 5445.85255896435
1070.7429334239023 5434.593564730975
1071.6305132751695 5356.804667909624
1072.517873457633 5439.876540960232
1073.4050140347335 5319.155987113709
1074.2919350698776 5375.289388758194
1075.1786366264623 5325.2712711855675
1076.0651187678395 5281.605066742829
1076.95138155735 5201.870889469848
1077.8374250582929 5209.318338866942
1078.7232493339507 5257.385523325619
1079.608854447577 5224.272741100207
1080.4942404623907 5142.19562789842
1081.3794074415982 5227.531789419659
1082.2643554483657 5248.388103763564
1083.149084545841 5084.715076845578
1084.033594797138 5104.988991748121
1084.9178862653516 5130.039973314972
1085.8019590135427 5228.312261593478
1086.6858131047484 5057.955576538911
1087.5694486019802 5124.053840972704
1088.4528655682225 5146.605351401513
1089.3360640664287 5285.679213198596
1090.2190441595321 5117.2458671304985
1091.1018059104317 5171.402903641274
1091.98434938201 5224.801995776829
1092.866674637111 5210.574242869157
1093.748781738559 5180.625706653268
1094.6306707491512 5040.812409241048
1095.5123417316554 5182.674839275673
1096.3937947488157 5130.413391865304
1097.2750298633455 5024.2873315815905
1098.156047137938 5017.222653076741
1099.0368466352556 5075.8317497774215
1099.9174284179317 5228.811767547929
1100.7977925485757 4991.490023725945
1101.6779390897755 5030.240390037875
1102.5578681040806 5071.493456574648
1103.4375796540226 5068.1968086934485
1104.3170738021054 4926.080254425028
1105.1963506108077 4872.564754389188
1106.0754101425773 4879.197083094187
1106.9542524598382 4972.195956134576
1107.8328776249855 4924.008850237653
1108.7112857003904 4890.5331971763535
1109.5894767483987 4962.139186775885
1110.4674508313292 5077.322623968804
1111.3452080114657 4967.598403597725
1112.2227483510815 5068.347793810082
1113.1000719124077 5054.993364837004
1113.9771787576592 5166.88963242615
1114.854068949022 5112.704743756476
1115.7307425486542 5214.281549020106
1116.6071996186893 5212.056574524472
1117.483440221229 5334.399743286744
1118.3594644183577 5221.044719172702
1119.235272272128 5271.317628984014
1120.1108638445658 5384.043031763948
1120.9862391976712 5618.204341770398
1121.8613983934229 5545.4992133082815
1122.7363414937627 5619.768076169085
1123.6110685606182 5631.506642824234
1124.485579655884 5825.516160810621
1125.359874841426 5729.615406155646
1126.2339541790916 5773.308796777929
1127.1078177306936 6006.025984052537
1127.9814655580267 5841.945468210243
1128.854897722851 5979.782829812854
1129.7281142869106 5931.130651617322
1130.6011153119125 6018.025540211211
1131.473900859548 6110.6548071311845
1132.3464709914697 5984.8301941472955
1133.2188257693178 5933.622142926868
1134.0909652546961 5940.744886012997
1134.96288950919 5782.460089526781
1135.8345985943506 5915.978831966055
1136.7060925717087 5706.816810344908
1137.57737150277 5802.997302206125
1138.4484354490069 5745.71284009748
1139.3192844718778 5580.2876993877035
1140.1899186327992 5443.974710180277
1141.060337993178 5566.659696603927
1141.930542614382 5452.825364544164
1142.8005325577597 5364.638903705698
1143.670307884635 5289.524741867378
1144.5398686563003 5410.223313610661
1145.409214934025 5183.999472145563
1146.2783467790541 5059.343307423948
1147.1472642526023 5065.258726103079
1148.0159674158622 5108.909932593996
1148.8844563300026 4942.454155016158
1149.7527310561618 4881.496163289415
1150.6207916554504 4835.7699084078795
1151.4886381889592 4818.862426630411
1152.3562707177498 4857.118981388017
1153.2236893028585 4722.961277866927
1154.090894005296 4744.099367383738
1154.9578848860474 4785.87959210167
1155.8246620060709 4681.446398499461
1156.6912254262988 4625.300533496766
1157.5575752076438 4618.847251416691
1158.42371141098 4704.368965823975
1159.2896340971656 4733.919405453877
1160.1553433270346 4637.623653158477
1161.0208391613887 4608.358785138372
1161.8861216610057 4599.817180809068
1162.75119088664 4632.5377658979905
1163.6160468990201 4617.742773253243
1164.4806897588442 4535.589081498464
1165.3451195267917 4625.561418423501
1166.2093362635114 4559.829877050324
1167.0733400296285 4599.503528950041
1167.9371308857444 4523.241236744025
1168.8007088924278 4490.938904623445
1169.6640741102328 4522.880009722374
1170.5272265996773 4445.722987588675
1171.390166421259 4431.584661563904
1172.252893635452 4546.252449929904
1173.1154083026995 4641.72496844529
1173.977710483421 4569.518213028564
1174.8398002380145 4440.834519737948
1175.7016776268483 4611.609544729905
1176.563342710264 4520.52155997315
1177.4247955485826 4490.0953480206435
1178.2860362020947 4556.837793778065
1179.147064731069 4425.069949249764
1180.0078811957483 4539.41793931753
1180.8684856563486 4529.282777879502
1181.7288781730604 4576.8927401584315
1182.589058806052 4535.96026353506
1183.4490276154593 4748.051087168086
1184.3087846614017 4578.782976866589
1185.1683300039676 4621.290184450065
1186.027663703222 4771.967220064356
1186.8867858192025 4617.59017004513
1187.7456964119228 4752.973509166777
1188.6043955413716 4711.995370981671
1189.4628832675116 4840.527050770646
1190.3211596502842 4890.731580803263
1191.179224749596 4929.289325865179
1192.0370786253388 4796.177885335252
1192.8947213373758 4999.922374641084
1193.7521529455407 5073.196716953854
1194.6093735096438 4847.604607149469
1195.466383089477 4915.536328916017
1196.3231817447977 4909.233434249255
1197.1797695353398 5122.9528446051445
1198.0361465208189 4836.983569877897
1198.8923127609214 4915.331363239967
1199.7482683153048 5070.242919892825
1200.6040132436028 5137.529337536768
1201.459547605431 4986.686156986192
1202.3148714603722 5060.1497532806625
1203.1699848679855 5050.519948396266
1204.0248878878065 5125.901827375814
1204.8795805793507 4839.424963801434
1205.7340630020935 4911.664049758912
1206.5883352155033 4988.166763778496
1207.4423972790064 5055.298984562325
1208.2962492520237 4811.380703147678
1209.1498911939307 4878.392150226124
1210.0033231640937 4900.856904147696
1210.8565452218427 4869.637758714772
1211.7095574264913 4651.383915613631
1212.5623598373222 4696.522835536118
1213.4149525135963 4602.971275217691
1214.2673355145507 4675.318424231244
1215.1195088993936 4589.42533186318
1215.9714727273113 4585.820427573772
1216.8232270574663 4689.888441225666
1217.6747719489904 4469.990043956813
1218.5261074609934 4419.2344978939245
1219.3772336525653 4580.80062992257
1220.2281505827668 4571.797064855756
1221.0788583106296 4549.6045301059185
1221.9293568951707 4362.129561054666
1222.7796463953746 4323.258411415956
1223.629726870202 4497.469241238037
1224.4795983785934 4449.766638585121
1225.3292609794553 4388.753528976097
1226.1787147316809 4373.730651931435
1227.0279596941327 4405.750585666302
1227.8769959256424 4474.097627504176
1228.7258234850306 4405.265946640734
1229.5744424310833 4308.994861972634
1230.422852822563 4469.236734271758
1231.2710547182105 4470.901931618668
1232.119048176739 4376.073632531377
1232.9668332568417 4166.2355503216
1233.8144100171812 4396.933716524809
1234.6617785163999 4414.882279624266
1235.508938813111 4168.222703289061
1236.3558909659114 4312.749340301767
1237.2026350333617 4453.200577839616
1238.049171074008 4475.109179183516
1238.8954991463652 4344.536236976606
1239.741619308932 4384.97643087648
1240.587531620169 4409.6793906743205
1241.4332361385277 4433.291171596966
1242.2787329224248 4381.528368984647
1243.1240220302534 4310.968106275311
1243.9691035203869 4226.503120181957
1244.813977451171 4493.3506797929385
1245.6586438809263 4385.7640377339785
1246.5031028679496 4203.439825414993
1247.3473544705157 4376.106339099322
1248.1913987468706 4349.767005100458
1249.0352357552383 4205.362019192575
1249.8788655538228 4307.000999157897
1250.7222882007918 4382.773978518102
1251.565503754302 4411.866229395859
1252.4085122724755 4147.402407301071
1253.2513138134182 4389.653799591072
1254.0939084352049 4321.967173004566
1254.9362961958905 4366.564116219396
1255.7784771535007 4315.114133570222
1256.6204513660432 4339.768595929657
1257.4622188915 4502.627970795988
1258.3037797878242 4314.578734315934
1259.1451341129468 4256.909978822641
1259.9862819247755 4310.301174238128
1260.8272232811978 4348.266102952742
1261.6679582400666 4483.723455374643
1262.5084868592203 4303.239571067381
1263.34880919647 4270.669478905002
1264.1889253095997 4367.082446361598
1265.0288352563712 4425.7774948871565
1265.8685390945266 4257.34828575899
1266.7080368817751 4388.2070766425295
1267.5473286758115 4426.813796331337
1268.386414534294 4447.288814783195
1269.2252945148703 4131.554425762968
1270.0639686751547 4202.940420489594
1270.9024370727402 4277.497867002328
1271.7406997651997 4290.555300448905
1272.5787568100714 4164.568694533438
1273.4166082648808 4174.295353317991
1274.2542541871244 4281.667632278941
1275.091694634275 4468.638978516973
1275.9289296637817 4044.1352140602526
1276.7659593330663 4296.882443739298
1277.6027836995308 4223.58248959648
1278.4394028205552 4313.470126284108
1279.2758167534867 4292.440850416487
1280.112025555658 4226.175847653858
1280.9480292843746 4321.328110247638
1281.7838279969128 4106.227920257779
1282.6194217505326 4144.027316417541
1283.4548106024686 4115.227637352566
1284.289994609926 4139.489712390071
1285.1249738300921 4310.5938989572
1285.959748320127 4237.111572899678
1286.7943181371702 4232.436009698073
1287.6286833383328 4221.455263917562
1288.4628439807038 4199.71175330689
1289.2968001213521 4177.429237467649
1290.1305518173194 4240.88318744052
1290.9640991256183 4284.761786640682
1291.7974421032523 4172.406275825435
1292.630580807183 4091.2507252717746
1293.463515294361 4278.676679670368
1294.29624562171 4325.988058265907
1295.12877184613 4109.030482223161
1295.961094024493 4159.216807642727
1296.79321221365 4265.812728806025
1297.6251264704333 4297.433375451836
1298.4568368516466 4475.625353898953
1299.2883434140658 4225.590032387652
1300.1196462144526 4151.652431361946
1300.9507453095375 4296.516790792872
1301.7816407560313 4297.10033366475
1302.6123326106172 4344.457572242838
1303.4428209299622 4199.267118128488
1304.2731057707024 4484.806634232456
1305.1031871894502 4338.940439426615
1305.933065242798 4417.901096857582
1306.7627399873181 4359.524523516298
1307.5922114795467 4634.555688063317
1308.4214797760123 4464.9674463790325
1309.2505449332057 4392.158914861791
1310.0794070076026 4460.520235535839
1310.9080660556538 4626.727867016556
1311.736522133786 4632.854273994847
1312.5647752983987 4401.637159157012
1313.3928256058734 4383.752631459028
1314.2206731125661 4565.617437449522
1315.048317874809 4520.543881977456
1315.8757599489109 4504.153627731724
1316.7029993911547 4536.176349219355
1317.5300362578055 4639.964610711356
1318.356870605101 4433.778894439072
1319.183502489257 4427.558050220319
1320.0099319664623 4562.578159308865
1320.836159092889 4626.0398705053085
1321.66218392468 4634.499229563588
1322.4880065179532 4519.862223542118
1323.3136269288134 4543.2399447029
1324.1390452133292 4748.184302673605
1324.9642614275563 4761.81031247333
1325.7892756275214 4477.615407122193
1326.6140878692295 4526.112080646793
1327.4386982086617 4899.993245503393
1328.2631067017755 4644.3815559060595
1329.0873134045069 4628.255172598614
1329.911318372764 4626.168692404005
1330.735121662441 4587.511655195766
1331.558723329399 4516.845386341114
1332.3821234294774 4494.073376095453
1333.2053220185007 4485.5235561619365
1334.0283191522612 4578.993298122193
1334.851114886529 4590.465640613338
1335.6737092770582 4352.923506697613
1336.4961023795695 4477.995726663021
1337.3182942497697 4353.435203884077
1338.1402849433325 4470.691754640793
1338.962074515921 4269.473696255968
1339.7836630231632 4329.862434431287
1340.6050505206676 4766.924517881946
1341.426237064028 4486.21147184862
1342.2472227088037 4385.357772689675
1343.0680075105338 4260.569071970539
1343.888591524741 4388.049116655256
1344.7089748069138 4481.542220741572
1345.5291574125276 4351.324233135798
1346.3491393970307 4284.677272157214
1347.168920815846 4515.796607569051
1347.9885017243778 4452.236445819451
1348.8078821780036 4297.573159177326
1349.6270622320844 4382.39603878409
1350.4460419419447 4237.744582453364
1351.2648213629054 4424.1228874895905
1352.0834005502438 4207.308556347693
1352.90177955923 4229.650468170886
1353.7199584451064 4325.695386463581
1354.5379372630887 4429.820809221377
1355.355716068374 4264.4636666334
1356.1732949161305 4188.98441592101
1356.9906738615155 4218.259503346037
1357.8078529596478 4279.182963670631
1358.6248322656375 4409.092868760121
1359.441611834567 4273.108276504424
1360.2581917214866 4262.588808484375
1361.0745719814367 4323.64805363604
1361.890752669433 4184.136078889935
1362.7067338404577 4155.530907918991
1363.5225155494845 4380.6170261560055
1364.3380978514506 4422.691594532445
1365.1534808012839 4156.469340062084
1365.9686644538815 4072.7540614580234
1366.783648864117 4272.662460102978
1367.5984340868417 4439.387094579508
1368.413020176893 4305.471121805231
1369.2274071890715 4110.142640873328
1370.0415951781652 4404.685372763441
1370.8555841989346 4555.910297060572
1371.6693743061223 4156.086501245179
1372.48296555444 4094.127423538528
1373.2963579985844 4260.459626555194
1374.1095516932255 4246.8470308575115
1374.9225466930166 4078.6092923109777
1375.7353430525782 4278.272885711831
1376.5479408265164 4111.542760870139
1377.36034006941 4332.365201904944
1378.1725408358216 4230.201853951717
1378.9845431802805 4041.8503234030622
1379.796347157304 4347.068816811705
1380.6079528213813 4203.525318265697
1381.4193602269788 4075.3347037025296
1382.230569428546 4055.7760078634938
1383.0415804805016 4199.751728709824
1383.852393437246 4298.269820267825
1384.6630083531563 4118.262991376223
1385.4734252825892 4081.9822535227277
1386.2836442798798 4184.295862256831
1387.0936653993322 4123.694541817647
1387.9034886952395 4073.7119821621695
1388.713114221864 4136.640967234116
1389.5225420334482 4172.090041893797
1390.331772184214 4083.5469543695667
1391.1408047283585 4016.9653370880806
1391.9496397200564 4086.1786605842926
1392.758277213461 4134.889894224672
1393.5667172627054 4207.8649365124975
1394.3749599218918 4056.153639510875
1395.1830052451114 3978.8056487210647
1395.9908532864265 4007.274762279326
1396.7985040998774 4124.930038392425
1397.6059577394808 3920.3244412336717
1398.4132142592352 4041.304023028492
1399.2202737131156 4029.858806780468
1400.027136155073 4163.697525274657
1400.8338016390353 3914.383699090738
1401.6402702189134 3898.7789224053786
1402.446541948586 4056.0594346630314
1403.2526168819204 3916.5253085300233
1404.058495072757 3936.882695402758
1404.8641765749107 3875.9656156984483
1405.6696614421799 4011.6049416896776
1406.4749497283356 4327.903079519192
1407.280041487129 3858.67744482857
1408.084936772295 3778.8256532541172
1408.8896356375335 4017.3492104041557
1409.6941381365323 3915.9893252296883
1410.498444322955 3785.4283256536037
1411.3025542504402 3788.9559026604684
1412.106467972606 3883.09291062174
1412.9101855430508 3931.385133301067
1413.7137070153458 3643.4515206558217
1414.5170324430437 3857.840854654689
1415.320161879672 3874.3297262766173
1416.1230953787435 3927.673369745184
1416.925832993742 3695.6913918374676
1417.7283747781275 3637.6504551005833
1418.5307207853439 3813.216886840404
1419.3328710688093 3713.5347033446196
1420.134825681922 3489.1597763390323
1420.9365846780584 3588.732087610892
1421.7381481105713 3882.281290595627
1422.539516032788 3788.5036547433456
1423.3406884980232 3587.987510350003
1424.1416655595604 3520.160077113242
1424.942447270665 3657.8025055441008
1425.7430336845828 3712.067436594022
1426.5434248545298 3485.5299142801705
1427.3436208337116 3625.0941114287416
1428.143621675301 3608.2189083020044
1428.9434274324558 3838.286243463437
1429.7430381583108 3524.382255072801
1430.5424539059713 3599.9491261731846
1431.3416747285337 3880.2547792562173
1432.1407006790632 3729.748526111956
1432.9395318106053 3617.7723638985926
1433.7381681761835 3573.1654057586625
1434.5366098288014 3684.6838618992115
1435.3348568214424 3698.5862557712617
1436.1329092070573 3516.756343086397
1436.9307670385879 3609.563913855097
1437.7284303689503 3783.53529230862
1438.5258992510335 3757.707160320196
1439.3231737377118 3667.8065709365815
1440.1202538818306 3664.796905949994
1440.9171397362225 3552.718800201771
1441.7138313536925 3643.8130028208557
1442.5103287870243 3460.9602082547326
1443.3066320889775 3478.0368186104015
1444.1027413122956 3683.661296417489
1444.8986565096966 3577.294752407967
1445.694377733882 3563.8837846253277
1446.4899050375207 3470.5885084572756
1447.2852384732687 3521.5095896824437
1448.0803780937622 3570.617930484919
1448.8753239516063 3450.088147879977
1449.6700760993954 3341.8716483042494
1450.464634589689 3488.9822515279193
1451.2589994750397 3724.385710215242
1452.0531708079689 3299.349679081296
1452.8471486409799 3319.0648557942213
1453.6409330265524 3650.5562124931794
1454.4345240171442 3392.5537549111386
1455.2279216651987 3344.6380744582775
1456.0211260231263 3435.538871780015
1456.8141371433194 3739.693010787062
1457.6069550781594 3530.359491380876
1458.3995798799897 3301.627580142701
1459.1920116011424 3326.7611156131197
1459.98425029393 3255.5223412438963
1460.7762960106338 3314.325957180875
1461.5681488035225 3328.957527239951
1462.3598087248392 3413.3739023432836
1463.1512758268036 3581.7138295292666
1463.942550161617 3355.074562525674
1464.7336317814625 3339.235356634644
1465.524520738496 3406.831381911796
1466.3152170848552 3311.5879915919113
1467.1057208726506 3344.7673521564807
1467.8960321539817 3233.4973724492975
1468.6861509809169 3200.9634439803203
1469.4760774055085 3255.4714050739785
1470.265811479785 3295.217336211751
1471.055353255755 3201.2328602271928
1471.844702785409 3155.1524170012267
1472.6338601207044 3199.9437291332442
1473.4228253135934 3335.8295360639218
1474.2115984159936 3127.9799311878246
1475.0001794798063 3047.0082021158787
1475.7885685569145 3318.2762137084515
1476.576765699172 3208.8682264625177
1477.3647709584238 3159.414041475127
1478.1525843864802 3406.7728287048035
1478.9402060351367 3242.2490500810454
1479.7276359561693 3306.8012301296135
1480.514874201328 3156.985438141553
1481.3019208223468 3079.4881663572896
1482.0887758709323 3007.149596736775
1482.8754393987747 3369.184320326014
1483.6619114575406 3055.615885931898
1484.4481920988783 3167.8420948177823
1485.2342813744108 3216.3422178095466
1486.0201793357446 3403.0215983008507
1486.8058860344572 3074.3339704920245
1487.591401522117 3161.103314704618
1488.3767258502594 3151.900931705034
1489.1618590704056 3301.8898743710547
1489.9468012340494 2935.0517587790614
1490.7315523926754 3206.414595279497
1491.5161125977356 3266.2387340091564
1492.3004819006637 3286.77132853643
1493.084660352877 3101.09591104076
1493.8686480057622 3274.6521751228174
1494.6524449106964 3407.2105794640293
1495.4360511190262 3326.806187237499
1496.219466682087 3285.7282035180797
1497.0026916511779 3149.579212043898
1497.7857260775945 3243.4719111833315
1498.5685700125996 3403.8716338232907
1499.3512235074395 3072.4101751915596
1500.133686613337 3071.2126017709606
1500.9159593814966 3140.7924769913825
1501.698041863101 3596.7590812826884
1502.4799341093094 3051.9068714921336
1503.2616361712662 3035.5246572722763
1504.043148100087 3254.3171165381204
1504.8244699468742 3295.60623664124
1505.6056017626997 3066.233357279584
1506.3865435986281 3099.9715245502493
1507.1672955056893 3232.2519469031004
1507.9478575348967 3079.219711614567
1508.7282297372512 3240.845681512127
1509.5084121637192 3175.1507674893264
1510.2884048652577 3120.045710357318
1511.0682078927948 3119.10695097372
1511.8478212972423 3069.2901163479833
1512.6272451294917 3102.225298045635
1513.4064794404076 3167.0645010525614
1514.1855242808433 3263.303874177439
1514.9643797016215 3077.9524194576366
1515.743045753552 3250.0461684392058
1516.5215224874191 3222.157699277284
1517.2998099539836 2989.2499766061096
1518.077908203999 3122.3737671721906
1518.8558172881785 3073.0586621994794
1519.633537257234 3233.6810682656314
1520.4110681618404 3199.424229665831
1521.1884100526604 3167.0815325812487
1521.9655629803365 3085.8501412436713
1522.7425269954856 3343.9948968853446
1523.5193021487103 3399.868112729876
1524.2958884905856 3070.4003781760366
1525.0722860716687 3100.8847106271455
1525.848494942502 3124.6130574957883
1526.624515153595 3159.370290545115
1527.4003467554485 3178.783962331264
1528.175989798534 3291.6615838207085
1528.9514443333064 3173.9372289890534
1529.726710410203 3350.312967130559
1530.5017880796331 3069.7510737065377
1531.276677391992 3200.5801996449964
1532.0513783976457 3441.320408703171
1532.825891146953 3167.4773294442575
1533.6002156902414 3268.7535445823382
1534.3743520778207 3160.0057089164247
1535.1483003599806 3208.8193285249426
1535.9220605869923 3153.8329923342744
1536.6956328091019 3297.645163310945
1537.4690170765407 3160.5794320688337
1538.242213439511 3369.4646493891523
1539.015221948208 3264.854265796908
1539.78804265279 3112.333920442878
1540.560675603405 3121.1576001813096
1541.3331208501804 3407.942077867088
1542.1053784432224 3353.2223734863537
1542.8774484326168 3234.0790168247363
1543.649330868422 3248.6676354836704
1544.4210258006842 3279.4509749800723
1545.1925332794308 3350.928534093234
1545.9638533546604 3245.301654025717
1546.7349860763552 3222.8923788657876
1547.5059314944829 3517.283689527565
1548.27668965898 3321.4183984467772
1549.0472606197673 3267.575771624658
1549.817644426752 3181.018607821931
1550.5878411298072 3354.28031687548
1551.3578507787988 3318.444723972185
1552.1276734235635 3176.163794756786
1552.8973091139233 3225.0768614726153
1553.6667578996767 3487.797062740501
1554.436019830604 3251.874141867953
1555.20509495646 3215.654724096957
1555.9739833269869 3203.879778996699
1556.7426849919011 3231.7393488479775
1557.511200000903 3420.1947619942002
1558.2795284036674 3303.9820240060153
1559.0476702498509 3221.082938535232
1559.8156255890954 3431.1016209641175
1560.5833944710157 3547.570273054079
1561.3509769452048 3200.152767120819
1562.1183730612447 3292.9862291775216
1562.8855828686865 3318.1965638543165
1563.6526064170703 3535.397122538508
1564.4194437559127 3433.86986319848
1565.1860949347047 3312.4542454623975
1565.9525600029283 3563.2358154508606
1566.7188390100328 3613.012418328931
1567.4849320054564 3135.8680222548146
1568.250839038612 3215.70667425932
1569.0165601588997 3269.1902248342403
1569.7820954156887 3452.207546152753
1570.5474448583373 3272.402782779418
1571.31260853618 3306.2660232650246
1572.0775864985299 3163.8923289214326
1572.8423787946813 3463.597199949852
1573.6069854739108 3151.2636990949986
1574.371406585471 3349.3246065950143
1575.1356421785986 3415.1211154173097
1575.899692302506 3224.286700219714
1576.6635570063845 3354.2048338334803
1577.4272363394157 3205.598965359002
1578.190730350747 3253.947565281322
1578.9540390895163 3371.9547020244872
1579.7171626048384 2998.5843160208824
1580.480100945806 3141.5905965129723
1581.2428541614918 3174.4260062570174
1582.0054223009538 3259.7427472457607
1582.767805413223 3186.7788610828543
1583.5300035473156 3279.9682764801314
1584.292016752228 3365.1632479470245
1585.0538450769309 3314.854480365012
1585.8154885703807 3201.5757532504713
1586.5769472815136 3115.020855660436
1587.3382212592405 3200.7956581030603
1588.099310552463 3371.3481226610347
1588.8602152100484 3395.831748623636
1589.6209352808564 3317.927930123368
1590.3814708137234 3249.150756577366
1591.14182185746 3299.9487286443737
1591.9019884608679 3221.8274028738933
1592.6619706727215 3081.0273716464753
1593.4217685417734 3310.93472396736
1594.1813821167616 3416.49739824454
1594.9408114464022 3080.8604459989606
1595.7000565793933 3198.24792628396
1596.459117564409 3403.6246927090824
1597.2179944501113 3186.3441297464224
1597.9766872851324 3165.9499312096787
1598.735196118092 3331.6142974416193
1599.4935209975883 3353.3309620048503
1600.2516619721973 3435.5854582732936
1601.0096190904787 3206.3566735882805
1601.7673924009723 3239.7194085631936
1602.524981952196 3041.2070405417153
1603.2823877926476 3228.6643065814237
1604.0396099708087 3138.035065416037
1604.7966485351371 3060.413554933243
1605.5535035340745 3311.138491439564
1606.3101750160404 3342.6261245027863
1607.0666630294363 3109.777416363643
1607.822967622642 3011.458232492528
1608.5790888440224 3298.466282298574
1609.3350267419137 3360.3484522012864
1610.0907813646445 3381.299403666026
1610.8463527605145 3151.149454928278
1611.601740977805 3360.426381548009
1612.356946064785 3333.3869472530655
1613.1119680696902 3008.273269497874
1613.8668070407512 3229.0115667839127
1614.6214630261748 3187.8989116257703
1615.375936074137 3278.177552785242
1616.1302262328118 3167.2746980240972
1616.8843335503425 3263.508962153903
1617.638258074854 3026.168790699893
1618.391999854457 3330.3082975045654
1619.1455589372363 3309.6819469514203
1619.8989353712623 3204.587771104461
1620.65212920458 3009.7003407681877
1621.4051404852235 3100.0512437449634
1622.1579692611976 3092.076406652789
1622.9106155804966 3044.1186275283853
1623.663079491087 3050.311783574922
1624.4153610409248 3287.3923197910603
1625.1674602779385 3075.4522511564965
1625.9193772500403 2977.8410125849946
1626.6711120051277 3261.337200695209
1627.4226645910676 3125.1169714615608
1628.174035055721 3010.6708479987074
1628.9252234469168 3258.475576708335
1629.676229812474 3030.9054879898863
1630.4270542001905 3466.0987887356932
1631.1776966578382 3167.2110594057676
1631.9281572331747 3031.908602844195
1632.678435973945 3258.324966322457
1633.4285329278573 3202.178488273422
1634.1784481426203 2906.3645369169026
1634.9281816659113 3025.0687140426976
1635.677733545388 3258.4840260017113
1636.4271038286934 3083.4841384244573
1637.176292563452 3234.722675365719
1637.9252997972635 3106.1260990103046
1638.674125577716 3233.3488683685073
1639.4227699523672 3388.4200501101745
1640.171232968767 2997.696979249332
1640.9195146744423 3123.573297056268
1641.6676151168977 3340.3149647345526
1642.4155343436178 3419.1187166073405
1643.1632724020765 3270.7049486345227
1643.9108293397167 3151.3007132722655
1644.658205203974 3142.9931416463232
1645.4054000422566 3705.841979262984
1646.1524139019566 3199.904881617018
1646.8992468304423 3162.5356412341425
1647.6458988750728 3189.276579697844
1648.3923700831765 3220.9386193056193
1649.1386605020743 3223.105922381458
1649.8847701790564 3349.255917440963
1650.6306991614038 3311.9478668027086
1651.3764474963682 3251.360221075275
1652.1220152311944 3075.262629686389
1652.867402413096 3435.6760214189076
1653.6126090892776 3294.473856778005
1654.3576353069184 3544.8436074586825
1655.1024811131829 3216.6344202065616
1655.8471465552066 3173.929359965977
1656.5916316801213 3346.5691768369916
1657.3359365350298 3347.5207096187287
1658.0800611670165 3265.6224986686275
1658.824005623148 3316.5961522765565
1659.5677699504722 3173.2430994208726
1660.3113541960192 3303.014542399645
1661.054758406799 3176.2193636687534
1661.7979826297997 3046.1982594945825
1662.5410269119966 3079.015986949429
1663.283891300338 3354.890342753847
1664.0265758417645 3043.5221541721144
1664.7690805831826 3219.348732213619
1665.5114055714948 3261.0143712491563
1666.2535508535748 3478.0845573106117
1666.9955164762814 2892.567866282464
1667.7373024864555 3070.198925865805
1668.478908930916 3147.8052392011286
1669.220335856462 3059.1181947162213
1669.9615833098778 2985.0815012294224
1670.7026513379296 2913.723422464245
1671.44353998736 3046.5089987496126
1672.1842493048916 3095.573291108364
1672.9247793372379 3019.507863952368
1673.6651301310812 3079.8090895092446
1674.4053017330934 2918.496334504261
1675.1452941899242 3075.042483379958
1675.885107548207 2659.0779721542335
1676.6247418545518 2665.410877489144
1677.3641971555535 2794.946292922355
1678.1034734977893 2999.8787638939
1678.8425709278108 2840.9162638243283
1679.5814894921605 2983.2899399565645
1680.320229237359 2817.904717352036
1681.0587902098978 3058.717102873217
1681.7971724562685 2851.1470159667265
1682.5353760229264 2695.8462457670057
1683.2734009563173 2977.2396361739716
1684.0112473028657 2719.3744288069092
1684.7489151089794 2969.431617263538
1685.4864044210462 2850.7766766802
1686.2237152854377 2526.798837417091
1686.960847748498 2944.6963740793335
1687.6978018565642 2533.70487463671
1688.434577655944 2507.6475497424863
1689.1711751929379 2515.722656303954
1689.9075945138156 2791.7349711600455
1690.6438356648396 2613.3729792506647
1691.3798986922448 2394.618884250871
1692.1157836422499 2631.7682196766077
1692.851490561059 2587.208713224152
1693.587019494853 2658.2858719501723
1694.3223704897991 2363.078964226537
1695.0575435920364 2261.5034085848183
1695.792538847696 2757.7609021191734
1696.527356302886 2494.627323418071
1697.2619960036936 2303.57342121059
1697.9964579961907 2433.401664149092
1698.730742326432 2080.518416000438
1699.4648490404488 2195.8231212555
1700.1987781842563 2304.706511894827
1700.9325298038548 2507.5709928059064
1701.6661039452174 2569.193180888629
1702.3995006543082 2366.817590284302
1703.1327199770658 2475.600913774886
1703.865761959416 2309.845677965146
1704.598626647261 2496.930419185678
1705.3313140864866 2212.7004550924894
1706.0638243229587 2219.0250487172175
1706.7961574025303 2310.92005328069
1707.528313371029 2335.0670791797793
1708.260292274268 2156.816032983294
1708.9920941580403 2291.5039521971266
1709.7237190681226 2239.1089957779272
1710.4551670502697 2269.3744650729745
1711.18643815022 2068.538764114308
1711.9175324136959 2440.138016275371
1712.6484498863938 2236.216249152463
1713.379190614005 2002.4942413937256
1714.109754642188 2249.616164331649
1714.8401420165883 2177.8419616911847
1715.570352782839 2368.563208605468
1716.3003869865497 2196.5470931981076
1717.0302446733076 2071.9305921147925
1717.7599258886876 2164.0167677919712
1718.4894306782444 2081.9812539995246
1719.2187590875183 1999.7598089719781
1719.9479111620203 2353.531711370411
1720.6768869472544 2093.6841909011728
1721.4056864887025 2472.1098803231357
1722.1343098318284 2431.5323058175936
1722.8627570220742 2236.380204123945
1723.591028104871 2079.152897283161
1724.3191231256242 1932.1132743037856
1725.0470421297232 2097.5253748370733
1725.7747851625427 2231.4277623340395
1726.5023522694337 2284.0108334349616
1727.2297434957363 2245.3392590550393
1727.9569588867635 1969.100854662458
1728.6839984878152 2250.5990426583257
1729.4108623441734 1808.1815320839464
1730.1375505011038 2164.1763504716496
1730.8640630038426 2031.3584544117325
1731.5903998976264 1885.7511945165188
1732.316561227657 2138.303929528641
1733.0425470391274 1971.7376435989754
1733.7683573772065 2116.7571272612845
1734.4939922870508 2148.1820671416895
1735.2194518137949 2153.7572373940507
1735.9447360025606 2140.190197345063
1736.669844898439 2105.0909346587496
1737.3947785465189 1885.867802815867
1738.1195369918605 1922.6736939135449
1738.8441202795093 2131.356068297784
1739.5685284544943 2025.0624814176845
1740.292761561821 2154.233470472969
1741.0168196464838 2102.723650456718
1741.7407027534518 2042.6777981684481
1742.464410927687 2080.719315884935
1743.187944214118 1956.972777320131
1743.9113026576688 2023.5808316458683
1744.634486303241 2058.14464350262
1745.3574951957125 1957.5614188422976
1746.0803293799509 2222.5394792142406
1746.8029889008048 2069.014291618373
1747.5254738031017 2098.0405427509386
1748.2477841316504 2034.5252981425353
1748.969919931249 1981.7079608514953
1749.6918812466665 1962.8099141341659
1750.4136681226646 2122.7412795510636
1751.1352806039777 2114.8340706484123
1751.856718735331 1855.5861117402571
1752.5779825614281 1811.7829557078778
1753.2990721269507 2061.882509437854
1754.0199874765676 1992.6094598101395
1754.7407286549314 1891.1907344530937
1755.4612957066693 1899.456041726928
1756.1816886763954 1902.88228833329
1756.9019076087097 2062.4275247307714
1757.6219525481865 2155.4981959794222
1758.3418235393856 2026.1482642986134
1759.061520626854 2020.2010052953524
1759.7810438551096 2255.4392000319444
1760.5003932686614 1908.4103042019183
1761.2195689119999 2193.9533734118077
1761.938570829594 2040.4564972845285
1762.657399065898 2083.969017970281
1763.376053665348 1775.7546052117154
1764.0945346723602 1845.3830596163593
1764.812842131334 2152.835633277213
1765.5309760866512 1809.788686673524
1766.2489365826787 1789.3569021264684
1766.9667236637597 1962.2340501029562
1767.684337374223 1747.0492683886478
1768.401777758383 1862.683365847149
1769.1190448605284 1974.6769277860353
1769.836138724937 1892.107583198748
1770.5530593958665 2017.9680785562846
1771.2698069175603 2187.7827966705768
1771.9863813342326 2111.5400803072434
1772.702782690094 1844.857963571915
1773.4190110293293 2103.9809152241914
1774.1350663961111 2033.3703215858272
1774.8509488345844 1877.8793977085684
1775.5666583888924 1966.3363127942564
1776.2821951031437 2070.802394182882
1776.9975590214362 1960.274840961536
1777.7127501878585 1980.0444223200914
1778.4277686464684 2155.258268386703
1779.1426144413108 2075.225967712794
1779.8572876164162 2187.6889934134583
1780.571788215797 1760.2010244405806
1781.2861162834415 1964.4082888851704
1782.0002718633277 1909.2526013338884
1782.7142549994132 2058.494524595258
1783.4280657356376 1943.6010913608486
1784.141704115922 2031.6566960292162
1784.855170184177 1925.1510119010277
1785.5684639842839 1979.1318765088054
1786.2815855601148 1657.1421712683798
1786.9945349555237 2065.3064023453644
1787.707312214343 1780.2145275865144
1788.4199173803918 1782.075289532046
1789.132350497468 1784.094232767692
1789.8446116093583 1934.4527788866449
1790.556700759822 1746.3287436541766
1791.2686179926077 1989.122359343443
1791.9803633514493 1878.1391988989744
1792.6919368800554 1697.5644231515312
1793.4033386221236 1901.9044616640763
1794.1145686213295 2105.0077875134484
1794.8256269213307 1991.0588410394582
1795.536513565774 1966.9392161894077
1796.247228598284 1734.5121800697675
1796.9577720624693 1860.2446046016175
1797.6681440019165 1928.7003506661076
1798.3783444602013 1866.475165435965
1799.0883734808776 1999.1438162056334
1799.7982311074884 1949.0366228218932
1800.5079173835475 1929.2340844657313
1801.2174323525633 2007.483813695858
1801.9267760580187 1876.7963130841333
1802.635948543386 1960.7025028023013
1803.3449498521113 1799.0523268506654
1804.0537800276325 1956.5555657387285
1804.7624391133668 1900.6330663012445
1805.47092715271 1683.936231360903
1806.1792441890484 1781.2000096356144
1806.8873902657433 1959.9397551201546
1807.5953654261448 1858.3796358227555
1808.3031697135812 1854.7317895714682
1809.0108031713662 1745.490463389909
1809.71826584279 1830.7292605088364
1810.425557771141 1889.3759298949476
1811.1326789996747 2187.0625316603864
1811.839629571632 1817.3825724231287
1812.5464095302468 1869.1515958532386
1813.2530189187182 1901.7007942811804
1813.959457780249 1832.4039516737964
1814.6657261580076 1955.8972479137053
1815.371824095153 1945.0231258417912
1816.0777516348262 2042.8167716579458
1816.78350882015 1583.9489779361786
1817.4890956942272 1584.7515316226904
1818.1945123001533 1792.3257263303453
1818.8997586809928 1792.4883781573812
1819.6048348798067 1859.6856019375887
1820.3097409396287 1745.845899657435
1821.0144769034796 2143.4560286479214
1821.7190428143622 1874.2338408148698
1822.423438715261 1984.1079021700775
1823.1276646491478 1776.5270273481412
1823.8317206589727 1836.6836424226676
1824.5356067876692 1857.31385683086
1825.2393230781581 1758.5726622798825
1825.942869573335 1624.4588306225319
1826.646246316086 1608.8338534999968
1827.3494533492758 1809.3363812048149
1828.052490715756 1872.0159183865828
1828.7553584583547 1896.91085033065
1829.458056619891 1901.6758166277257
1830.1605852431585 1902.3048013801672
1830.8629443709433 1684.8849798976637
1831.5651340460063 1798.5011724251708
1832.2671543110919 1692.3058508332856
1832.9690052089318 1899.8574853300656
1833.6706867822395 1559.231700433113
1834.3721990737104 1902.3801249377218
1835.0735421260233 1982.5918031192864
1835.774715981841 1736.6968444081558
1836.4757206838058 2032.814016163728
1837.1765562745459 1777.9559127657453
1837.8772227966747 1695.321752260772
1838.5777202927839 1764.463912946135
1839.2780488054523 1703.713407780931
1839.9782083772352 1617.2412801962018
1840.6781990506806 1669.8108463127057
1841.378020868313 1722.4504796155616
1842.0776738726418 1801.1975639136144
1842.777158106157 1631.7722576670126
1843.4764736113375 1717.9314101633572
1844.1756204306403 1768.8633141955306
1844.8745986065078 1910.8472359992088
1845.5734081813607 1657.1907724764158
1846.2720491976124 1777.0197837854994
1846.970521697649 1690.3259578382156
1847.6688257238511 1886.1632547890313
1848.3669613185684 1720.4136664835569
1849.0649285241452 1541.9807909253564
1849.7627273829057 1789.0949000433582
1850.460357937156 1740.4552268249136
1851.1578202291857 1517.3081341229167
1851.8551143012664 1754.456481798983
1852.5522401956569 1729.2755014526163
1853.2491979545957 1955.0180595195893
1853.9459876203055 1735.9423358879242
1854.6426092349902 1629.012463276971
1855.3390628408451 1641.1693840889486
1856.0353484800362 1906.283804094838
1856.7314661947203 1879.2127014906036
1857.4274160270397 1652.562110074373
1858.123198019115 1727.374496456286
1858.8188122130487 1534.0227083732566
1859.5142586509319 1828.8388491204885
1860.209537374838 1704.58067746393
1860.9046484268183 1725.841752545804
1861.599591848917 1997.127304024747
1862.294367683151 1606.8086332570656
1862.988975971528 1676.6584538967188
1863.6834167560355 1686.558564399169
1864.3776900786452 1876.6776133661956
1865.0717959813119 1593.1113096876743
1865.7657345059724 1660.5214466318885
1866.4595056945564 1753.374248320321
1867.1531095889586 1845.5557897102221
1867.846546231076 1613.729326067426
1868.5398156627743 1866.997528452873
1869.2329179259123 1639.2496510291069
1869.9258530623283 1823.7786429262128
1870.618621113843 1592.0584530537117
1871.3112221222636 1593.3501211257908
1872.0036561293764 1515.5475297115624
1872.695923176956 1815.5419380433736
1873.3880233067594 1903.1034281276904
1874.0799565605212 1583.2353967293916
1874.7717229799673 1675.1918263384407
1875.4633226068036 1936.6001598584921
1876.1547554827175 1788.1646017575779
1876.8460216493859 1699.5468659229973
1877.5371211484617 1677.0694646256918
1878.2280540215852 1837.6371026374138
1878.9188203103804 1542.5464829263344
1879.6094200564548 1623.486594338736
1880.299853301396 1543.169967898619
1880.9901200867826 1794.5478222154238
1881.6802204541673 1767.4747315979052
1882.3701544450942 1729.6702422634185
1883.059922101087 1448.1396902063557
1883.7495234636517 1544.3660964468143
1884.4389585742792 1640.6999167856036
1885.1282274744517 1596.357754113472
1885.8173302056166 1703.0792638057676
1886.506266809225 1809.9458480553567
1887.195037326701 1534.3968680580585
1887.8836417994517 1612.30554010882
1888.5720802688702 2002.4051756408815
1889.260352776333 1839.2605630494884
1889.9484593632042 1814.7087442410648
1890.63640007082 1644.0823521030168
1891.3241749405151 1420.2949009565878
1892.0117840135954 1824.5090503047963
1892.6992273313572 1658.0322910769398
1893.3865049350788 1538.02195691126
1894.0736168660223 1906.4071029305844
1894.7605631654333 1701.6533766186362
1895.4473438745408 1541.5724077731873
1896.133959034556 1836.6031914669172
1896.820408686679 1809.779742856978
1897.506692872088 1937.26095774942
1898.192811631945 1740.5215368460729
1898.8787650073991 1638.4888293391027
1899.5645530395832 1855.6831081897071
1900.2501757696118 1758.272319832712
1900.9356332385796 1571.1726244326485
1901.620925487574 1676.7180508459235
1902.3060525576602 1782.5772718471912
1902.9910144898859 1771.5961581411048
1903.6758113252872 1543.4021430411046
1904.3604431048789 1756.2210934105133
1905.0449098696663 1850.1834845262772
1905.7292116606295 1613.2452658497152
1906.4133485187394 1703.6091072678523
1907.0973204849488 1311.452506903996
1907.7811276001976 1496.8022551704685
1908.4647699053967 1717.3031091777534
1909.1482474414588 1481.5052836340624
1909.8315602492694 1494.8430405346537
1910.5147083696957 1849.8809354906075
1911.1976918436012 1598.5745461640252
1911.880510711815 1496.7722197087119
1912.5631650151681 1512.6247731210426
1913.2456547944657 1528.4590520495985
1913.927980090495 1636.5153953938438
1914.6101409440362 1617.3714556662055
1915.2921373958416 1745.056071646078
1915.9739694866603 1583.6796665486204
1916.655637257214 1901.1857564115496
1917.3371407482136 1735.0952703874602
1918.0184800003572 1908.6901917827581
1918.6996550543154 1797.913629563604
1919.3806659507554 1651.6545728781025
1920.0615127303208 1634.1346590528342
1920.7421954336423 1779.0387538349994
1921.4227141013343 1768.8558014232162
1922.103068773993 1710.2866004335742
1922.783259492202 1820.0476393612666
1923.4632862965227 1626.5667420402006
1924.1431492275078 1618.2701240953893
1924.8228483256917 1480.5021891322617
1925.5023836315922 1553.3929244286915
1926.1817551857057 1683.3908885647947
1926.8609630285227 1813.6618776701605
1927.5400072005123 1708.6253925380638
1928.218887742125 1524.8902058045146
1928.8976046938005 1602.2381464861178
1929.5761580959588 1529.8261746642145
1930.2545479890086 1645.0978448077808
1930.9327744133352 1425.215373005307
1931.6108374093164 1655.534973311875
1932.2887370173066 1465.3300487596312
1932.9664732776473 1829.1800415888065
1933.6440462306673 1654.6859358598663
1934.3214559166754 1594.1067573976873
1934.9987023759659 1881.5411722557558
1935.675785648813 1743.319647748486
1936.3527057754836 1304.242749408472
1937.029462796223 1400.5303667563549
1937.70605675126 1497.0561574195308
1938.3824876808085 1483.489102470425
1939.058755625072 1555.6304689034323
1939.7348606242267 1467.792320884145
1940.4108027184448 1652.744957879629
1941.0865819478713 1703.384832557779
1941.7621983526478 1515.9182942905973
1942.4376519728921 1581.8159634497265
1943.1129428487038 1681.3950559696627
1943.7880710201734 1617.014416462929
1944.4630365273733 1720.6104382191727
1945.1378394103576 1426.1271783044463
1945.8124797091714 1420.3446328022465
1946.4869574638324 1414.5009338282996
1947.161272714353 1395.5799032352436
1947.8354255007234 1715.5303807703845
1948.5094158629272 1555.674739506071
1949.1832438409183 1623.8216292125921
1949.8569094746435 1697.8957997635953
1950.530412804037 1870.9481645349667
1951.2037538690092 1764.9483508132812
1951.8769327094578 1530.5862940453992
1952.5499493652678 1616.428024229381
1953.222803876306 1813.2054173872784
1953.895496282421 1763.9901524347001
1954.5680266234522 1730.1912238391008
1955.2403949392155 1580.2986978002261
1955.9126012695142 1441.86289093186
1956.5846456541403 1548.1635191300818
1957.2565281328643 1564.7885504883175
1957.9282487454457 1708.506720741793
1958.5998075316202 1655.9602400720821
1959.27120453112 1471.3010636717183
1959.9424397836501 1662.4598501062228
1960.613513328908 1571.6746924366194
1961.2844252065697 1811.2942681460183
1961.9551754563017 1459.2988310574315
1962.6257641177453 1465.2791480344958
1963.29619123054 1357.1627057623982
1963.966456834296 1541.9687176761943
1964.6365609686181 1495.6418323704106
1965.306503673086 1656.0189803958515
1965.976284987275 1488.4113657498306
1966.645904950734 1603.5220005308997
1967.315363603002 1276.8272012403108
1967.9846609836077 1548.7184643609241
1968.6537971320486 1533.5085034284768
1969.3227720878222 1628.8120635976752
1969.9915858904042 1544.380286360211
1970.660238579252 1752.3902075495948
1971.3287301938108 1467.4217140253036
1971.997060773514 1493.8568639966777
1972.665230357772 1438.370279252422
1973.3332389859843 1416.6433163381548
1974.0010866975335 1446.5456108635376
1974.6687735317864 1616.4335184937877
1975.3362995280932 1644.6449086476684
1976.003664725793 1713.5706430059872
1976.6708691642052 1315.128381214409
1977.3379128826364 1491.149156807651
1978.004795920373 1709.116828449099
1978.6715183166925 1498.893677937647
1979.3380801108524 1731.004902611352
1980.0044813420973 1566.4725625437698
1980.6707220496555 1264.092646064689
1981.3368022727373 1530.6946377369923
1982.0027220505417 1612.9115081860016
1982.66848142225 1442.770439085195
1983.3340804270283 1272.4058986767075
1983.999519104027 1517.2733145929997
1984.6647974923835 1596.0776111060645
1985.329915631215 1611.7418254036618
1985.99487355963 1578.1201193708198
1986.6596713167146 1766.7769981492256
1987.3243089415428 1372.4849920737659
1987.9887864731754 1796.0834016549366
1988.6531039506553 1346.581894955124
1989.3172614130071 1385.097907523152
1989.9812588992481 1423.7022202726175
1990.645096448372 1112.3692007867796
1991.3087740993633 1537.6424198512466
1991.9722918911848 1445.8168798366476
1992.635649862792 1496.8742821381818
1993.2988480531185 1615.075408492152
1993.9618865010852 1877.8915922094075
1994.6247652455968 1543.052569345216
1995.287484325545 1476.4857527010447
1995.9500437798033 1376.1918634475255
1996.6124436472292 1382.9185597516494
1997.2746839666706 1611.5012599787508
1997.936764776954 1420.0332493472295
1998.598686116895 1342.8443154518454
1999.2604480252903 1661.413803765853
1999.9220505409212 1684.879110757834
2000.5834937025593 1259.009766667471
2001.2447775489582 1451.7226822316607
2001.9059021188514 1530.3518521557335
2002.5668674509616 1439.8993330371238
2003.2276735839987 1491.570000902537
2003.8883205566508 1741.4758130311316
2004.5488084075987 1453.3435647889933
2005.2091371755014 1420.2195221095458
2005.8693068990033 1389.179439775703
2006.5293176167397 1596.3748919541183
2007.1891693673224 1305.5180380920594
2007.848862189354 1317.1831573381735
2008.5083961214223 1379.8793995492401
2009.1677712020955 1365.86800944236
2009.8269874699254 1261.3397250517546
2010.4860449634598 1268.6868682801805
2011.1449437212177 1276.1280596105594
2011.8036837817108 1659.433145466393
2012.4622651834325 1595.8906749458426
2013.1206879648653 1603.5141394982857
2013.7789521644736 1777.0916069359894
2014.4370578207036 1687.7977810129582
2015.0950049719922 1598.2098534771403
2015.7527936567585 1672.3196035919761
2016.4104239134067 1427.6020278151723
2017.067895780323 1831.5968945670688
2017.725209295886 1814.0401534627574
2018.3823644984514 1796.3903638300005
2019.0393614263648 1628.8927886546257
2019.6962001179545 1486.4452578532841
2020.3528806115355 1740.8664671880786
2021.0094029454067 1581.1254404157553
2021.6657671578487 1274.6653128565415
2022.321973287133 1582.3320999839602
2022.9780213715148 1374.722504894367
2023.6339114492293 1524.835779185231
2024.2896435585026 1496.0902896589857
2024.9452177375442 1480.2423764518912
2025.600634024544 1785.6233745864113
2026.2558924576842 1587.8370268148415
2026.9109930751292 1770.1188997455333
2027.565935915025 1807.2988827667086
2028.2207210155066 1844.58426796352
2028.8753484146964 1745.5108007692093
2029.529818150695 1703.75053600405
2030.1841302615903 1661.7450701318187
2030.8382847854573 1442.5079437313905
2031.4922817603601 1479.5389897255836
2032.1461212243357 1550.4479566160217
2032.7998032154192 1237.5373147500372
2033.4533277716218 1389.208359936646
2034.1066949309443 1424.55826560839
2034.7599047313688 1325.6875929861587
2035.4129572108704 1595.2437888086208
2036.0658524074006 1382.7888290640544
2036.7185903589016 1660.4922961148939
2037.3711711032956 1392.6914773742442
2038.023594678496 1450.23597212277
2038.675861122394 1463.82784598087
2039.3279704728757 1462.6617173649934
2039.9799227678031 1461.627520494793
2040.6317180450278 1409.1160380682422
2041.2833563423865 1505.3177752171655
2041.9348376977014 1523.9198706529723
2042.5861621487784 1542.5052131149446
2043.2373297334088 1691.4315229036142
2043.8883404893695 1588.379853272115
2044.5391944544208 1663.6616244587244
2045.1898916663158 1725.5015821012573
2045.8404321627804 1788.3988555870485
2046.4908159815368 1374.3050488745525
2047.1410431602853 1418.8480921122477
2047.7911137367173 1268.3189054538989
2048.441027748504 1310.448734763932
2049.090785233302 1352.5704964871238
2049.7403862287592 1384.603489583734
2050.389830772503 1335.8249491453157
2051.0391189021466 1287.038201299889
2051.688250655294 1522.6625233814398
2052.337226069527 1282.874496062011
2052.986045182417 1678.811684469413
2053.634708031521 1116.893690748671
2054.283214654375 1637.5225733274829
2054.931565088511 1106.3847625106785
2055.579759371436 1342.245038071018
2056.2277975406523 1534.3612181050441
2056.8756796336384 1366.9610321353227
2057.5234056878617 1583.3897664980818
2058.1709757407752 1432.9693821679716
2058.8183898298194 1649.7741915856636
2059.465647992416 1561.763509363194
2060.1127502659747 1677.5510760018992
2060.759696687888 1655.6282372981295
2061.4064872955405 1633.7164401148852
2062.053122126292 1790.384708469305
2062.699601217497 1599.1685476443238
2063.345924606485 1407.9617909705246
2063.992092330587 1540.0261991730754
2064.638104427102 1412.3746178275796
2065.283960933324 1718.3417892933376
2065.92966188653 1462.3778849144082
2066.5752073239855 1684.5743755551441
2067.2205972829397 1658.593459740719
2067.86583180062 1632.6009977376523
2068.5109109142522 1458.1254224966228
2069.15583466104 1462.2177521862739
2069.8006030781708 1346.7381820625483
2070.445216202821 1392.9338792917572
2071.089674072153 1709.3095957342819
2071.7339767233116 1694.1201182517943
2072.3781241934303 1348.0644102677443
2073.0221165196253 1606.6877521337617
2073.6659537390024 1431.6433930183582
2074.3096358886505 1630.1271715591772
2074.953163005637 1393.2775881760683
2075.596535127028 1320.924193921112
2076.2397522898664 1190.1155322640627
2076.882814531182 1403.9568215644317
2077.5257218879924 1521.7811902442322
2078.1684743973 1230.2563945738339
2078.8110720960885 1326.2816980841653
2079.453515021336 1410.336113360975
2080.095803209997 1494.449480251545
2080.7379366990135 1491.8041833005987
2081.37991552532 1545.481259806565
2082.0217397258275 1595.7404607997153
2082.6634093374414 1572.9539571051096
2083.3049243970418 1550.2075428675807
2083.9462849415067 1418.5990533299607
2084.587491007689 1611.0944622568263
2085.2285426324324 1477.2720918534117
2085.869439852564 1509.7069913842872
2086.510182704902 1361.8323054851637
2087.1507712262483 1494.9759948283577
2087.791205453381 1252.972420770231
2088.4314854230743 1492.8624584819777
2089.0716111720867 1415.1784093419274
2089.7115827371617 1641.0751556510902
2090.351400155023 1360.6183995753693
2090.991063462385 1548.010949252723
2091.6305726959527 1225.7697262809331
2092.2699278924047 1572.0853616466957
2092.9091290884153 1382.370093442342
2093.548176320641 1279.8977713362922
2094.187069625721 1519.8868377596332
2094.8258090402887 1288.5614168514335
2095.464394600951 1557.2191923022042
2096.102826344313 1463.891373553998
2096.741104306955 1404.43274629785
2097.379228525453 1344.8447133749814
2098.017199036358 1119.117801453651
2098.6550158762147 1277.6979175777374
2099.2926790815527 1436.6130747604889
2099.9301886888825 1496.039835223223
2100.5675447347076 1456.2484226161503
2101.2047472555114 1682.6938512086053
2101.841796287761 1583.1694223982602
2102.47869186792 1483.4395762986442
2103.1154340324265 1442.2929069609627
2103.752022817709 1414.1444766167608
2104.388458260184 1346.6710927999227
2105.024740396251 1510.1987743314417
2105.660869262292 1375.9222254550236
2106.296844894685 1634.2309215991475
2106.93266732978 1468.767869876477
2107.5683366039284 1264.6479918447217
2108.2038527534532 1474.7136920802957
2108.8392158146726 1547.3382711775887
2109.4744258238843 1521.6589377908354
2110.1094828173755 1645.1004777618382
2110.744386831422 1396.0939542397878
2111.3791379022787 1491.4002204275107
2112.01373606619 1643.1300479239794
2112.648181359389 1558.2351857407925
2113.28247381809 1642.6062281727923
2113.916613478492 1542.8488329887678
2114.550600376786 1453.689538180282
2115.1844345491445 1365.4505054408587
2115.818116031729 1293.9626954906585
2116.451644860679 1401.2756246586437
2117.085021072133 1188.1050000417822
2117.718244702204 1374.708160359857
2118.3513157869984 1301.435634783639
2118.984234362604 1249.9775998239688
2119.617000465092 1336.6276259531046
2120.249614130529 1673.1526268901732
2120.8820753949585 1553.1678183291656
2121.5143842944162 1341.0663494350315
2122.14654086492 1429.4087579845004
2122.7785451424734 1617.5764745212477
2123.4103971630702 1575.0860155620608
2124.042096962681 1532.6700399246486
2124.6736445772767 1701.1466037565624
2125.305040042802 1297.2182827373158
2125.936283395191 1489.3990560258271
2126.567374670365 1528.4937768045363
2127.198313904233 1511.7661935762253
2127.8291011326855 1431.5320575506655
2128.4597363916037 1350.9599403679174
2129.0902197168507 1298.680850482026
2129.720551144279 1552.9017105806329
2130.3507307097225 1807.3846595143277
2130.980758449008 1655.295488213688
2131.6106343979427 1630.0898766960436
2132.2403585923203 1604.7715018216365
2132.8699310679276 1762.8182769858456
2133.499351860526 1582.629603443416
2134.1286210058715 1494.7075607492902
2134.7577385397053 1589.8360742236769
2135.3867044977487 1685.1404069993598
2136.0155189157176 1716.2190243297591
2136.644181829308 1649.783205017558
2137.2726932742025 1491.8770594948585
2137.901053286074 1343.8384508715305
2138.5292619005777 1497.4775209020581
2139.1573191533535 1293.3940947479427
2139.7852250800315 1458.0202032783893
2140.4129797162295 1524.8081586572273
2141.0405830975433 1113.0484893331457
2141.6680352595613 1187.8716424537172
2142.2953362378576 1262.8516730055364
2142.9224860679915 1265.3449949725982
2143.549484785508 1344.9886279167627
2144.1763324259373 1369.0822744112606
2144.803029024799 1343.7685477651135
2145.429574617594 1227.0330850021369
2146.0559692398165 1349.8950273754122
2146.682212926942 1245.4796056713956
2147.308305714432 1508.1416559776094
2147.9342476377333 1575.1941618233764
2148.5600387322847 1765.7221841102012
2149.185679033506 1785.8899822624135
2149.8111685768017 1397.1895168632232
2150.4365073975678 1277.1111562906735
2151.061695531187 1302.4654289254745
2151.686733013021 1364.3982975016745
2152.311619878423 1426.5444401136408
2152.9363561627342 1285.9422792683515
2153.560941901278 1233.4182529701272
2154.1853771293663 1498.761737140817
2154.809661882293 1433.213664173934
2155.433796195348 1766.8419120357594
2156.0577801037944 1208.759760760859
2156.681613642895 1668.2910666442253
2157.3052968478896 1202.0342218535986
2157.928829754006 1641.2306156823263
2158.552212396462 1479.7015976365694
2159.1754448104566 1377.375638357054
2159.7985270311783 1286.674875695636
2160.4214590938027 845.2784369150698
2161.0442410334927 944.0006122291621
2161.6668728853874 1055.8749444116215
2162.289354684628 1167.993139016623
2162.911686466332 1461.4671572692241
2163.533868265602 1531.4125745163008
2164.1559001175337 1737.5158309876238
2164.7777820572046 1428.9144029826728
2165.399514119681 1414.4581097130501
2166.021096340013 1302.523908297873
2166.6425287532384 1601.3125403058737
2167.263811394385 1229.1957073518831
2167.8849442984574 1565.1047236622546
2168.505927500455 1360.7155440483468
2169.126761035366 1302.2333979373466
2169.7474449381552 1243.7387217406267
2170.367979243778 1049.0702695597515
2170.9883639871823 1615.3655886316485
2171.608599203293 1124.1398524377805
2172.2286849270276 1652.6597512225276
2172.8486211932886 1874.6195728901998
2173.4684080369625 1439.5928065349729
2174.0880454929265 1168.3146460294683
2174.7075335960417 1148.634122760701
2175.3268723811543 1156.6797407255913
2175.9460618831 1164.7624626690654
2176.565102136701 1357.2001103698783
2177.1839931767627 1928.5636628295474
2177.802735038078 1552.229407092919
2178.421327755432 1152.260403967168
2179.0397713635866 1191.0938299888628
2179.658065897298 1153.9077215218824
2180.276211391305 1116.5714780456751
2180.8942078803357 1306.5282653662257
2181.5120553991 1384.359035500129
2182.129753982299 1187.4479734501524
2182.7473036646206 1255.8973266302305
2183.3647044807367 1535.53159288825
2183.9819564653044 1492.2767956918253
2184.599059652968 1448.9696341962706
2185.216014078367 1469.6432781116432
2185.832819776113 1497.0865486756472
2186.4494767808137 1524.5093023862566
2187.065985127063 1465.2381311228032
2187.682344849436 1564.8944146857743
2188.298555982501 1277.4555331591487
2188.9146185608097 1379.6198837339575
2189.530532618901 1655.092578678852
2190.1462981912937 1630.6029270782642
2190.761915312507 1595.241145039638
2191.377384017036 1196.3183843512638
2191.9927043393654 1287.3868846955484
2192.6078763139667 1107.1909308921468
2193.2228999753006 1241.4482593648922
2193.837775357808 1375.998634375264
2194.452502495922 1187.1929179265394
2195.0670814240602 1296.616909977693
2195.6815121766285 1142.9808677078167
2196.2957947880186 1063.1491558724051
2196.9099292926057 983.1599873922839
2197.523915724758 1482.0593371804084
2198.137754118825 1402.399230465665
2198.7514445091456 1704.427484716558
2199.3649869300443 1727.7688530897176
2199.9783814158327 1751.237300167198
2200.5916280008096 1728.4793964555306
2201.2047267192593 1456.4055992100605
2201.8176776054515 1491.5240349052415
2202.430480693649 1532.3031895522824
2203.0431360180955 1573.2085874236122
2203.6556436130195 1449.987660452085
2204.268003512645 1494.464046284103
2204.8802157511727 1539.130573945718
2205.492280362796 1647.5994592160132
2206.1041973816937 1449.8184368968255
2206.715966842032 1381.843559884154
2207.3275887779655 1581.7808231932136
2207.93906322363 1327.993365366677
2208.550390213153 1667.3856214272023
2209.1615697806465 1522.5348829533539
2209.7726019602105 1398.3331402138099
2210.3834867859277 1273.705095550576
2210.9942242918787 1349.2505333158138
2211.6048145121167 1378.124603898241
2212.2152574806914 2092.3799093439115
2212.825553231638 1343.9413255961038
2213.435701798975 2067.4315116590465
2214.045703216707 1356.7372280379248
2214.655557518832 1099.9493908133923
2215.2652647393297 971.9211364175301
2215.874824912169 1141.102661916982
2216.4842380713 1310.7904857359295
2217.09350425067 1242.7047115222572
2217.7026234842033 1566.1926252223175
2218.311595805819 1503.9850735671412
2218.9204212494133 1358.7281144936965
2219.52909984888 1654.7578037816972
2220.137631638092 1713.047605676331
2220.7460166509154 1771.349484407789
2221.354254921198 1348.6254463844086
2221.9623464827764 1555.1149954469302
2222.5702913694713 1310.911909746393
2223.178089615096 1307.8180344133061
2223.7857412534486 1304.7188162771224
2224.39324631831 1232.4599151704583
2225.000604843457 1346.0338738604023
2225.607816862641 1452.5343165230315
2226.214882409611 1430.5914993728904
2226.8218015180973 1529.9219445463834
2227.4285742218217 1360.2724010091692
2228.0352005544864 1405.9429283883014
2228.6416805497847 1394.4084599970765
2229.248014241399 1382.8275758587383
2229.8542016629945 1325.5807517173084
2230.460242848223 1530.7839267861148
2231.0661378307304 1360.4444733605883
2231.671886644139 1189.9418236905697
2232.277489322065 1181.969963853931
2232.8829458981127 923.9566735601127
2233.48825640587 1381.3292403043238
2234.0934208789095 1817.4707931261153
2234.6984393507955 1584.1719708348598
2235.3033118550793 1462.8333250360888
2235.9080384252975 1186.7485079147714
2236.5126190949723 1196.419661471405
2237.1170538976166 1235.36140754128
2237.721342866729 1144.252597304833
2238.32548603579 1298.8450081473134
2238.9294834382763 1339.4376617780392
2239.533335107646 1317.0501219605953
2240.1370410773434 1310.7489364994813
2240.740601380803 1106.2497145929685
2241.3440160514474 1161.486078116183
2241.9472851226783 1524.1414437669025
2242.550408627896 1422.3926855168036
2243.1533866004793 1590.0277014457868
2243.756219073799 1233.190814807623
2244.3589060812064 1260.8299654643592
2244.961447656049 1126.0989013017822
2245.5638438316564 1316.328066579535
2246.166094641343 1324.970728729489
2246.7682001184166 1093.7540974989392
2247.3701602961664 1145.2365446480255
2247.971975207871 1391.2065097902127
2248.5736448867974 1597.5284387387012
2249.175169366197 1340.3330560487725
2249.7765486793123 1304.3051320898799
2250.3777828593684 1290.465439888444
2250.9788719395783 1464.2932044770446
2251.579815953146 1305.7260394635541
2252.1806149332606 1199.118698019857
2252.781268913097 1220.0115074887722
2253.381777925817 1240.9175143849134
2253.9821420045737 1400.137613996287
2254.5823611825035 1326.2169762596466
2255.1824354927303 1358.507890156356
2255.782364968365 1175.9350244797427
2256.38214964251 993.1461089146085
2256.9817895482483 1163.3901060990052
2257.5812847186553 1386.4752825610426
2258.180635186791 1174.2536548944147
2258.779840985704 1263.9660778119921
2259.37890214843 1245.5036932537173
2259.97781870799 1614.1642928651274
2260.5765906973957 1482.9349764615858
2261.175218149645 1538.588078843843
2261.773701097718 1508.2217204298897
2262.3720395745895 1111.936116269208
2262.970233613216 1215.7249414018602
2263.568283246548 1304.4916379595384
2264.1661885075137 1220.604916659197
2264.763949429038 1080.4552827952457
2265.3615660440246 1445.3674701926561
2265.959038385374 1180.655619606029
2266.5563664859637 1190.6277050139104
2267.153550378669 1200.6716490181977
2267.7505900963424 1452.8016836818929
2268.3474856718312 1147.9329688465618
2268.9442371379664 1266.4678707154571
2269.5408445275643 1139.5553517587482
2270.1373078734377 1455.5388185126567
2270.7336272083758 1333.188425541653
2271.32980256516 1376.7096170259567
2271.925833976562 1420.2867066763042
2272.5217214753357 1562.8889192528634
2273.117465094223 1108.269309734254
2273.7130648659586 1107.819834196319
2274.308520823257 1312.042225677818
2274.903832998827 1550.5492210614848
2275.4990014253563 1154.2313683515183
2276.094026135528 1464.0065473618217
2276.6889071620117 1154.841234735517
2277.2836445374614 1469.7173175558767
2277.878238294519 1269.754191511071
2278.472688465812 1163.1056603007282
2279.066995083962 1056.2568665009114
2279.6611581815705 1334.638091746274
2280.255177791232 1542.8380721371288
2280.8490539455233 1328.1548538514676
2281.442786677013 1572.5859918647375
2282.0363760182554 1472.8947914472365
2282.6298220017943 1385.5747305270531
2283.223124660155 1620.924062234837
2283.816284025859 1112.2886986044073
2284.4093001314086 1632.4125551991851
2285.002173009292 1083.590514723814
2285.5949026919952 1324.5327686760388
2286.1874892119777 1475.0480908060129
2286.7799326016993 1493.9609667025584
2287.3722328936 1189.0583859834014
2287.964390120109 1028.1869119477474
2288.556404313642 1449.5516072665873
2289.1482755066027 1696.633075015197
2289.7400037313873 1399.9011969124447
2290.3315890203703 1198.9552001501593
2290.9230314059205 1229.1328397488953
2291.5143309203904 1259.397631956455
2292.1054875961236 1285.8180008613756
2292.6965014654506 1844.5536741570727
2293.287372560684 1118.6561302238222
2293.878100914131 1794.3687627364427
2294.468686558086 1206.8439289081768
2295.059129524827 1079.3348563025845
2295.649429846617 1113.956635866879
2296.239587555716 1148.6215988068202
2296.8296026843636 1247.125512256955
2297.419475264791 1212.3871479373342
2298.0092053292137 1177.5088474783845
2298.598792909839 1564.0927282790658
2299.1882380388597 1526.8707344727668
2299.777540748455 1657.7384062522347
2300.3667010707904 1501.670321153119
2300.9557190380256 1616.4567752193595
2301.544594682302 1724.8865577324668
2302.1333280357503 1568.4079334838616
2302.721919130485 1411.788612380552
2303.3103679986198 1785.6825885101257
2303.898674672242 1680.7430758399817
2304.486839183437 1428.494629073404
2305.0748615642697 1175.970330162652
2305.6627418468015 1227.2158832540242
2306.2504800630704 1050.8905665332288
2306.8380762451143 1386.8523412844531
2307.425530424949 1367.3996872075109
2308.012842634582 1347.8917331054208
2308.6000129060103 1649.6335088105134
2309.187041271214 1477.6819651182827
2309.773927762164 1305.360680399046
2310.3606724108213 1531.6319605221884
2310.9472752491274 1554.6846684953766
2311.5337363090184 1577.8266550783271
2312.120055622414 1321.5484973765922
2312.706233221221 1378.8387416648875
2313.2922691373424 1021.712959928296
2313.8781634026564 1079.5655103599227
2314.463916049037 1137.5428394856408
2315.049527108342 1334.6013080127727
2315.6349966124235 1736.2592519073387
2316.2203245931123 1573.443880982458
2316.8055110822315 1406.0878670371417
2317.3905561115935 1238.32645138245
2317.9754597129977 1233.0900449570026
2318.560221918229 1205.498856564245
2319.1448427590603 1177.8713085895358
2319.729322267256 1003.3478127605189
2320.313660474563 1022.8690036252563
2320.8978574127195 1252.1405444276947
2321.481913113452 1482.0812517525965
2322.0658276084705 1238.88745500466
2322.6496009294806 1016.7603399131569
2323.233233108165 1182.1749004837054
2323.8167241762058 1252.5330664222588
2324.4000741652617 1301.2232572346425
2324.983283106987 1418.8304536104024
2325.5663510330232 1352.4209038333788
2326.1492779749933 1285.7004186344946
2326.7320639645204 1462.225980313703
2327.3147090332004 1158.127654269164
2327.897213212629 1313.428091510021
2328.4795765343843 1468.8424488002124
2329.0617990300307 1043.812962923901
2329.643880731124 1616.1203439037379
2330.22582166921 1358.277067873367
2330.807621875816 1191.6215263895974
2331.3892813824623 1024.8019689513173
2331.9708002206517 1039.3114309313444
2332.5521784218818 1379.9980362728716
2333.133416017634 1512.3236702194868
2333.7145130393765 1553.0641866749643
2334.295469518571 1593.9243470218642
2334.876285486658 1614.4255646704069
2335.456960975076 1609.3840847437705
2336.037496015242 1604.3592115249921
2336.6178906385667 1412.8178742268988
2337.198144876451 1542.9685821569515
2337.778258760278 1464.1604460042745
2338.3582323214214 1472.747857038392
2338.938065591243 1481.3182500667724
2339.517758601087 1563.8760093826
2340.0973113822965 1365.6836233927763
2340.676723966193 1341.2385747096125
2341.255996384094 1466.9336110428917
2341.835128667295 1520.2796935252732
2342.4141208470883 1509.7131586983915
2342.992972954751 1590.9251942227627
2343.5716850215467 1434.7660106593228
2344.1502570787306 807.9508500282778
2344.7286891575386 1145.693337123624
2345.3069812892045 1621.315972757175
2345.885133504944 1412.073081466317
2346.4631458359618 1057.8894619583518
2347.04101831345 1194.4942725583944
2347.6187509685915 1169.087401353263
2348.196343832553 1265.7417841978004
2348.7737969364935 1202.7978701295053
2349.351110311558 1139.8007962101838
2349.9282839888765 1088.117196887549
2350.5053179995757 1120.3667458906507
2351.0822123747585 1073.9537222786905
2351.658967145526 1028.4023759411293
2352.2355823429643 982.8345564908523
2352.812057998144 1354.032838354361
2353.3883941421263 1218.34016593351
2353.9645908059647 1381.3645559591878
2354.540648020693 1315.943865870862
2355.116565817336 1091.813201553606
2355.6923442269126 1167.1136313404816
2356.2679832804224 1242.5723615939123
2356.8434830088518 1378.27411667995
2357.41884344318 1016.8814838340162
2357.994064614377 999.2856142535022
