#exp_cfg={"servo_angle": 0.0, "laser_lim": 100.0, "servo_angle_to": 18.0, "laser_wup": 0.0, "bt_dev": "EnSpectr-25AE3", "laser_wdn_max": 0.0, "frames": 10.0, "servo_used": 0, "servo_calib_use": 0, "laser_wdn_min": 0.0, "servo_pix_from": 90.0, "cooler_tout": 300.0, "servo_angle_from": 0.0, "servo_calib": "[-1.9174921013161362e-09, 3.9322238269163779e-05, -0.27385609119055809, 653.59552119713567]", "laser_autoctl": 0, "servo_pix_to": 3682.0, "laser_pw": 100.0, "cooler_on": 0, "laser_volt": 4.0, "cooler_autoctl": 0, "cooler_curr": 70.0, "cooler_startup": 10.0, "laser_fixed_pw": 0, "gain": 1.3, "offset": 2.53059635486, "servo_calib_degree": 3.0, "laser_curr": 55.0, "shutter": 8200.0, "servo_calib_step": 1.0, "laser_fixed_curr": 0, "exp": 2000.0, "ccd_volt": 4.7, "bt_addr": "00:06:66:62:5A:E3", "servo_delay": 500.0, "laser_autooff": 1}
#proc_cfg={"flat_auto_wnd": 200.0, "flat_auto_fr": 200.0, "flat_auto_shift": 5.0, "yconv": 1, "flatten": 1, "flatten_strength": 100.0, "xfrom": 300.0, "auto_max_frame": 2000.0, "auto_signal": 48000.0, "flat_auto_tol": 0.1, "autoclip": 1, "xrel_range": 0.0, "flat_auto_to": 4000.0, "intensity_adj": 1.0, "xrel": 7852.0, "rmhot": 1, "flat_auto_slit": 4.999999999999997, "auto_ini_exp": 300.0, "auto_off": 0, "xto": 2860.0, "flat_auto_ref": "", "flat_auto_rank": 1, "autobackg": 0, "xrel_adj": 0.0, "auto_black_lvl": 1, "base_wnd": 100.0, "sub_baseline": 0, "xconv": 2, "auto_max_exp": 1000.0, "auto_total_exp": 10000.0, "auto_exp": 0, "rmripple": 0, "black_lvl": 8261.0875, "shutter_clip_adj": 0.0, "auto_bckg": 0, "flat_auto_thr": 0.9, "subbackg": 1}
316.8218498245369 6798.333871640205
317.89969571804795 6609.566247245353
318.977263876126 6625.0479295470195
320.05455438786703 6567.621563338219
321.1315673423287 6523.443586642201
322.2083028285215 6631.764190556491
323.2847609354267 6524.106689897294
324.3609417519747 6493.985339590399
325.43684536705587 6507.171437903164
326.5124718695279 6509.643262615719
327.58782134820103 6447.368623316916
328.66289389184385 6489.080996503205
329.7376895891921 6334.470045334483
330.8122085289342 6347.039941242745
331.88645079971866 6326.356900594729
332.9604164901575 6319.1141009115545
334.03410568881554 6295.453854347355
335.1075184842266 6342.135202332655
336.18065496487543 6316.726891722718
337.2535152192122 6298.266722302295
338.32609933564163 6267.412791302618
339.39840740253203 6240.326573503769
340.4704395082099 6266.84229209136
341.5421957409617 6194.909276162354
342.6136761890357 6255.102508222684
343.6848809406365 6185.8609288147945
344.75581008392874 6159.173672650636
345.82646370703696 6132.590229541798
346.8968418980512 6142.514498222716
347.96694474501055 6158.445496282027
349.0367723359268 6145.20339319718
350.106324758759 6147.793430073895
351.1756021014353 6043.130513836222
352.2446044518383 6080.339921540992
353.31333189781435 6139.760086468601
354.38178452716966 6144.428833005733
355.449962427665 6045.165551592896
356.51786568702846 6026.232766784343
357.58549439294256 6122.041110563998
358.6528486330535 6109.401882712317
359.71992849496564 6034.607122624771
360.7867340662433 6077.623070276956
361.8532654344144 6087.306550524218
362.9195226869597 6088.748872278948
363.9855059113288 6015.419430355562
365.05121519492604 5995.607048077237
366.11665062511565 6049.745581981143
367.1818122892273 6072.000980567827
368.2467002745434 6113.979282770183
369.31131466831175 6080.76544896397
370.375655557742 6006.8147564487645
371.4397230299983 6043.063931546725
372.5035171722102 6059.582649696792
373.5670380714637 5973.930126419804
374.6302858148101 6083.680870836941
375.6932604892554 6034.992415118695
376.7559621817709 6022.329740718512
377.81839097928605 5985.098648740985
378.8805469686886 5984.281870857034
379.94243023683157 6150.139185327222
381.0040408705263 6007.945716204656
382.0653789565458 5908.046316539322
383.1264445816196 5957.825380511046
384.1872378324406 5976.775591509895
385.2477587956637 5996.439152506998
386.3080075579037 5925.030781560201
387.3679842057336 5847.098916767363
388.4276888256918 5931.080627057352
389.48712150426945 5861.818388804691
390.54628232792857 5883.251813385635
391.6051713830857 5804.70176118465
392.66378875611736 5867.375423075871
393.7221345333637 5805.157308342342
394.7802088011249 5799.018273770047
395.838011645661 5801.817346803604
396.89554315319765 5759.8200159670305
397.9528034099112 5699.532793412725
399.00979250194723 5674.600059234821
400.06651051541485 5681.099274277727
401.1229575363741 5811.590761154029
402.17913365085224 5656.071672596319
403.23503894483656 5744.558147434245
404.2906735042761 5706.827400991575
405.3460374150818 5604.052317260996
406.401130763119 5633.479888745651
407.455953634224 5700.403577495825
408.5105061141876 5615.061192379575
409.56478828876243 5625.085837200104
410.6188002436629 5618.433618217605
411.6725420645689 5541.536176430893
412.72601383711117 5547.503141359584
413.77921564689314 5599.2168205546495
414.8321475794728 5521.33848578658
415.88480972036814 5538.029327368784
416.93720215506437 5573.994053596527
417.9893249690049 5482.096920929318
419.04117824759123 5441.96845864664
420.09276207619223 5450.829783678229
421.144076540133 5478.689174573805
422.1951217247042 5476.688363578073
423.24589771515275 5487.1990215832775
424.2964045966928 5478.690938169859
425.34664245449494 5468.498239534905
426.3966113736933 5435.208628439507
427.4463114393875 5330.533226841702
428.49574273662984 5493.723904500129
429.5449053504417 5350.44793498797
430.5937993658026 5420.672242877625
431.6424248676558 5370.809565860085
432.6907819409007 5340.962408951693
433.73887067040596 5387.214003143234
434.7866911409965 5343.487983222709
435.8342434374608 5342.575389633754
436.88152764455117 5373.167364754604
437.9285438469724 5313.319032275166
438.9752921294057 5287.266565264311
440.02177257648145 5304.7973898847
441.06798527279716 5235.228024633625
442.1139303029122 5364.5515610080365
443.1596077513459 5308.068116859938
444.2050177025794 5249.485887946691
445.25016024105753 5295.865037157186
446.2950354511886 5308.925270652005
447.33964341733736 5310.985744775878
448.383984223834 5278.666648898424
449.4280579549686 5232.6307192590975
450.471864694995 5270.466480111308
451.5154045281306 5317.0746564800265
452.5586775385509 5278.741531613781
453.60168381039693 5276.807171826581
454.64442342776783 5269.401570167573
455.6868964747264 5297.210023031637
456.7291030353008 5208.37554863848
457.77104319347563 5319.04953255537
458.8127170332027 5200.195816022094
459.854124638392 5244.736096111697
460.895266092919 5328.628621701124
461.93614148061897 5250.158610850931
462.97675088529104 5284.309191939456
464.01709439069236 5341.188015696376
465.0571720805492 5296.595857513327
466.0969840385442 5326.402352421422
467.1365303483253 5378.585939644197
468.17581109350067 5272.973670273403
469.2148263576437 5218.817279920132
470.2535762242878 5322.745249937141
471.29206077693016 5390.434542108413
472.33028009902773 5337.34679461019
473.3682342740012 5303.994299471215
474.40592338523857 5253.2044472022335
475.4433475160804 5359.211706644239
476.4805067498364 5339.373073197803
477.51740116978 5331.91200501428
478.5540308591426 5418.903237412186
479.59039590112116 5462.380539676884
480.6264963788726 5462.5604441519845
481.6623323755193 5462.383571199638
482.6979039741436 5506.323921115609
483.7332112577915 5613.54745610947
484.76825430947247 5739.984877521414
485.80303321215797 5615.552003512306
486.837548048783 5739.541745191739
487.8717989022425 5799.343602075203
488.90578585539697 5782.839815197182
489.9395089910686 5867.0644108846445
490.97296839203955 5808.643355948378
492.00616414106116 5724.7875410706065
493.0390963208429 5704.015183823073
494.0717650140559 5755.832127918662
495.10417030333883 5670.958903201996
496.1363122712901 5622.920078126983
497.16819100046814 5558.39559861164
498.1998065734024 5485.879439199486
499.2311590725767 5486.63866409768
500.26224858044407 5395.565473177246
501.2930751794156 5348.83723897555
502.3236389518679 5362.555114325782
503.35393998014115 5241.93444952947
504.38397834653733 5252.851767313593
505.4137541333221 5293.067625401849
506.4432674227228 5194.359336325596
507.4725182969323 5191.236309313991
508.5015068381035 5209.43938481388
509.53023312835467 5190.849070828649
510.55869724976765 5118.060845906973
511.58689928438434 5122.665123189316
512.6148393142121 5052.9359481417105
513.6425174212218 5142.65538476001
514.6699336873462 5082.202858730024
515.6970881944835 5166.237186867698
516.7239810244901 5008.958116210682
517.7506122591931 5143.704564359965
518.7769819803761 5079.4717869907
519.8030902697901 5125.481200058099
520.8289372091476 5125.198562880241
521.8545228801249 5168.767405782442
522.8798473643619 5115.232937337643
523.9049107434621 5115.083511054498
524.9297130989908 5167.447086900227
525.9542545124805 5141.956053375872
526.9785350654201 5078.520860141021
528.0025548392696 5144.338190192988
529.0263139154504 5035.543413092236
530.0498123753423 5045.6795973948265
531.073050300296 5014.995460155411
532.0960277716204 5023.3219518874885
533.1187448705896 5019.562353049479
534.1412016784416 5051.2342589653945
535.1633982763833 4986.375062255645
536.1853347455726 5013.82305658216
537.2070111671401 4994.460997274106
538.2284276221817 4949.5676279971285
539.2495841917516 4884.412897969939
540.2704809568677 4886.162527876835
541.2911179985167 4896.731416309312
542.3114953976419 4882.92082800645
543.3316132351592 4792.322286041528
544.3514715919409 4850.979485160634
545.3710705488247 4803.8141313971155
546.3904101866156 4838.029809866394
547.4094905860784 4786.6678882749275
548.4283118279418 4784.953346561223
549.4468739929034 4856.030042020773
550.4651771616191 4794.783800590402
551.4832214147063 4703.084520460578
552.501006832761 4783.992377231427
553.5185334963226 4765.99324742237
554.5358014859103 4791.59678090177
555.5528108820035 4771.844702798497
556.5695617650363 4790.304904679123
557.5860542154242 4780.270127962789
558.6022883135283 4771.781607813174
559.6182641396881 4742.068514660877
560.6339817741991 4774.402357775638
561.6494412973225 4765.13629570083
562.6646427892883 4840.396193682509
563.6795863302796 4669.843646522657
564.694272000459 4776.273385176003
565.7086998799423 4865.358969762438
566.7228700488104 4774.495717824889
567.7367825871115 4716.07291035534
568.7504375748576 4787.003657613184
569.7638350920224 4746.228102941476
570.7769752185486 4771.189298053252
571.7898580343353 4773.371934165702
572.802483619258 4708.925239357774
573.8148520531431 4862.252618361791
574.8269634157932 4779.676418172076
575.8388177869692 4745.064039583531
576.8504152463938 4799.21470311869
577.8617558737587 4868.806666066964
578.8728397487175 4755.794976755138
579.883666950891 4802.910375071211
580.8942375598654 4919.8051922246095
581.9045516551851 4886.3523869042265
582.9146093163617 5040.064808779473
583.924410622878 4885.15955726703
584.9339556541727 4959.4539459370635
585.9432444896538 5000.330124470135
586.9522772086875 4976.075684098501
587.9610538906127 5021.485062504811
588.9695746147318 4965.920495525168
589.9778394603054 4984.527327826117
590.985848506567 4962.204232983441
591.9936018327098 4935.35687977003
593.0010995178891 4748.9427098599945
594.0083416412344 4916.31738500787
595.0153282818283 4736.114937837858
596.0220595187293 4757.996944089567
597.0285354309508 4768.4891450585565
598.0347560974806 4747.477909180514
599.0407215972609 4727.182513878789
600.0464320092051 4706.583479359842
601.0518874121954 4739.695014738796
602.0570878850685 4707.889016480501
603.062033506636 4693.560117207501
604.0667243556636 4670.848512426777
605.0711605108936 4644.379790206131
606.0753420510264 4819.5727679474785
607.0792690547278 4674.557908724974
608.082941600629 4600.098631045364
609.0863597673306 4752.013054494373
610.0895236333909 4731.8239806293295
611.0924332773357 4876.501630744615
612.0950887776617 4733.1261966219845
613.0974902128219 4740.387214534576
614.0996376612384 4914.1799951310395
615.1015312013005 4882.13876608262
616.1031709113595 4941.456064284599
617.1045568697336 4858.211663773185
618.1056891547069 4925.652397209009
619.1065678445229 5024.508572633946
620.1071930173985 5138.321953370004
621.1075647515099 5156.769201976586
622.1076831250048 5182.264880767506
623.1075482159849 5240.5820038788415
624.1071601025305 5264.139801176687
625.1065188626781 5295.51134219412
626.105624574433 5456.996841781108
627.1044773157682 5532.6156926649755
628.1030771646128 5453.87700796761
629.1014241988742 5612.121147807968
630.0995184964158 5672.773520376128
631.0973601350688 5669.724908708921
632.0949491926294 5820.120315491599
633.0922857468631 5662.18292326053
634.089369875499 5759.861664578806
635.0862016562278 5742.655423809975
636.0827811667077 5526.558963361722
637.0791084845641 5593.031128575135
638.0751836873878 5506.472468996278
639.0710068527369 5574.88684805333
640.0665780581294 5436.898122041685
641.0618973810506 5324.047036150613
642.0569648989604 5454.660042070553
643.0517806892676 5273.6332798181
644.0463448293649 5301.797207330249
645.040657396592 5163.912230854677
646.0347184682723 5110.867389507923
647.0285281216875 4985.163260346302
648.0220864340772 4956.069030780282
649.0153934826558 4924.40603247737
650.0084493446047 4899.355587961272
651.0012540970674 4929.578402148463
651.9938078171526 4798.544313387669
652.9861105819346 4765.1204709301865
653.9781624684565 4808.749122977561
654.9699635537254 4736.785577722701
655.9615139147136 4722.337382321467
656.9528136283589 4604.521844977453
657.9438627715699 4709.331609858963
658.9346614212154 4659.614414009365
659.925209654135 4535.166189850997
660.9155075471263 4609.522607720415
661.9055551769616 4604.4233251020205
662.895352620375 4685.82621270133
663.8848999540678 4518.360402804814
664.8741972547068 4486.89469138633
665.863244598926 4498.2194049990785
666.8520420633213 4548.912788268596
667.8405897244611 4386.513630662516
668.8288876588758 4336.738187342799
669.8169359430613 4431.146832853303
670.8047346534822 4451.241102946245
671.7922838665672 4286.3513985389545
672.7795836587156 4461.0438133234575
673.766634106285 4537.373296234941
674.7534352856092 4323.8672537541515
675.7399872729766 4338.005115090849
676.7262901446538 4396.652211636583
677.712343976862 4347.860667518187
678.6981488457986 4387.32226132844
679.6837048276229 4296.650451313262
680.6690119984596 4369.5460825150085
681.6540704344043 4369.080962817487
682.6388802115107 4308.598073249265
683.6234414058108 4384.7111906523405
684.6077540932874 4269.353630489254
685.591818349907 4304.357715757548
686.575634251587 4365.816972800723
687.5592018742263 4307.563197339981
688.5425212936734 4210.114333783966
689.5255925857564 4277.111238524367
690.5084158262707 4307.5029626510095
691.4909910909646 4217.081444476762
692.4733184555644 4229.842190561861
693.4553979957618 4354.214559517425
694.4372297872123 4271.177209457825
695.4188139055404 4248.328193595787
696.4001504263324 4150.745870140648
697.3812394251509 4236.294096285539
698.3620809775111 4177.047481818661
699.3426751589104 4211.927000883837
700.3230220448004 4171.674053239425
701.3031217106054 4186.306602864358
702.2829742317172 4349.195553999054
703.2625796834873 4079.660238182765
704.2419381412474 4139.985884824995
705.22104968028 4184.886948817245
706.1999143758458 4148.6892633417765
707.178532303169 4189.042407563831
708.1569035374378 4199.110303913233
709.1350281538107 4211.423352237265
710.1129062274158 4158.203508062794
711.0905378333373 4292.114469199376
712.0679230466376 4301.367333882295
713.0450619423427 4407.278065048879
714.0219545954424 4461.901387959511
714.9986010808989 4369.249842562154
715.9750014736292 4406.968472307954
716.9511558485392 4498.321602204213
717.9270642804786 4606.427915586801
718.9027268442787 4598.134005695241
719.8781436147328 4629.76921129467
720.8533146666014 4552.828469703951
721.828240074612 4628.693127749128
722.8029199134635 4610.44822104472
723.7773542578125 4559.219198152286
724.751543182294 4573.231786219713
725.7254867615029 4560.15655483879
726.6991850700015 4373.567359596147
727.6726381823228 4455.375060164327
728.6458461729599 4437.851015473623
729.6188091163858 4416.89157979431
730.5915270870246 4339.862056650966
731.5640001592856 4365.131265442358
732.536228407529 4334.561221709695
733.5082119060917 4374.706697371266
734.4799507292755 4280.395012000816
735.4514449513481 4285.45492347357
736.4226946465496 4354.907089929614
737.3936998890786 4420.145208978968
738.3644607531078 4270.044629130004
739.3349773127793 4290.445657498251
740.3052496421951 4281.363604025073
741.27527781543 4244.183715688405
742.2450619065221 4130.992470194375
743.2146019894826 4154.895632900369
744.183898138288 4188.632519422534
745.1529504268801 4145.686380836993
746.1217589291682 4038.4345583971494
747.0903237190341 4121.746465416741
748.058644870318 4014.5841828104917
749.0267224568397 4053.808296540699
749.994556552374 3898.4408417045356
750.9621472306771 4034.067772279914
751.9294945654583 3938.816131775635
752.8965986304011 3980.012789208842
753.8634594991636 3934.1726446250423
754.8300772453586 3988.5662640081355
755.7964519425768 3934.0204776696637
756.762583664371 4032.529417439423
757.7284724842611 3973.093829677221
758.6941184757416 3954.810725736798
759.6595217122667 3946.3342238785744
760.6246822672638 3953.4625379423132
761.5896002141235 3816.6155831630153
762.5542756262093 3904.4278776817837
763.5187085768503 3964.1632868165552
764.4828991393406 3880.642996412219
765.4468473869474 3868.668521035961
766.4105533929032 3990.7005898023117
767.3740172304078 3863.6310153602535
768.3372389726283 3979.389085248924
769.3002186926988 3827.7912905686376
770.2629564637282 3823.9536301660737
771.2254523587872 3809.0487064092786
772.1877064509154 3837.8165740414747
773.1497188131179 3761.093621309074
774.1114895183728 3730.673301723603
775.0730186396268 3726.830088408359
776.0343062497905 3768.932828059334
776.9953524217381 3681.5012896214976
777.9561572283274 3717.2693557371704
778.9167207423689 3725.854886921162
779.8770430366476 3655.1882681331617
780.8371241839159 3688.0742724190554
781.7969642568951 3704.4811607748716
782.7565633282757 3821.7832933008203
783.7159214707099 3694.6192048206185
784.6750387568281 3755.8022840803765
785.6339152592227 3679.6932488998755
786.5925510504512 3629.3164321880126
787.5509462030477 3723.5728954279693
788.5091007895098 3711.7431893932217
789.4670148823006 3717.9583550041593
790.4246885538596 3690.469771331396
791.3821218765861 3727.0379353503777
792.3393149228505 3574.7817099158956
793.2962677649975 3733.7550375021465
794.2529804753303 3709.998894485799
795.20945312613 3749.8489367264083
796.1656857896378 3605.8668262535853
797.1216785380675 3637.0705499036403
798.0774314435985 3671.005607255476
799.0329445783846 3805.50715233519
799.9882180145414 3728.8302293508314
800.9432518241574 3730.5588977157167
801.89804607929 3821.604966138668
802.852600851962 3837.5506453403855
803.8069162141637 3806.3452410246855
804.760992237856 3871.0934885150427
805.714828994971 3910.5493847575103
806.6684265574077 3878.7815498862205
807.6217849970271 3850.7473585216335
808.574904385674 3796.1629859962077
809.527784795142 3948.1660468544846
810.4804262972102 3984.0265308443886
811.4328289636178 3853.1203065742498
812.3849928660748 3805.519701799093
813.3369180762638 3741.7465426762333
814.2886046658241 3882.8415996966696
815.2400527063783 3686.6657743063165
816.1912622695108 3709.8610377257332
817.1422334267718 3762.384175259962
818.0929662496856 3667.273787621919
819.0434608097457 3543.5597520555625
819.9937171784059 3591.321477320893
820.9437354271013 3580.035487618838
821.8935156272255 3656.717148482542
822.8430578501484 3576.2559433769757
823.7923621672016 3435.726979090317
824.7414286496896 3451.8443582685795
825.6902573688876 3558.8016704544425
826.6388483960363 3494.856224353224
827.5872018023492 3427.9612832960643
828.5353176590033 3557.478028545584
829.4831960371503 3431.507493822547
830.4308370079016 3407.7107078956046
831.3782406423525 3497.2815404454923
832.3254070115545 3527.285639489285
833.2723361865319 3416.1048328643396
834.2190282382799 3368.650936818256
835.1654832377644 3495.1622602440575
836.1117012559116 3309.9441802756132
837.0576823636256 3511.968561173623
838.003426631778 3352.138220475486
838.9489341312074 3319.746976154017
839.8942049327197 3490.7355140419686
840.8392391070975 3504.917286907536
841.7840367250865 3363.2982148967485
842.7285978573982 3340.6147564002204
843.672922574724 3410.108451238329
844.6170109477152 3342.5928736207325
845.560863046996 3404.804194067778
846.5044789431595 3392.583674246837
847.4478587067697 3339.1647404230453
848.3910024083561 3544.019029492834
849.333910118421 3330.149241179793
850.2765819074339 3254.432756217342
851.2190178458332 3372.9883010128497
852.161218004032 3442.236916134277
853.1031824524016 3404.3412429210534
854.0449112612987 3323.9125277991416
854.9864045010327 3406.4365813622508
855.9276622418947 3323.4044898908846
856.8686845541379 3372.3931326274846
857.8094715079915 3366.08738139875
858.7500231736467 3566.3519370489485
859.690339621271 3449.2087053860478
860.6304209209939 3405.1492371259737
861.5702671429244 3395.973407356961
862.5098783571284 3409.468935357533
863.4492546336569 3437.1626480416658
864.3883960425155 3315.69070326676
865.3273026536863 3375.1688656892825
866.2659745371238 3255.4508099323098
867.2044117627465 3492.510269987461
868.1426144004472 3339.6147092723463
869.0805825200823 3433.342574000082
870.0183161914847 3429.607342614935
870.9558154844526 3483.191341432734
871.8930804687552 3480.3847324982335
872.8301112141307 3379.1336306724916
873.7669077902865 3444.345616030573
874.7034702669062 3578.305586387755
875.6397987136315 3459.0732619840637
876.5758932000863 3531.779241075864
877.5117537958522 3499.921499283456
878.4473805704911 3445.762936002577
879.3827735935283 3507.4458977038908
880.3179329344603 3596.502986906514
881.2528586627541 3659.254873069721
882.1875508478479 3634.4159542741772
883.1220095591489 3602.6862660938846
884.0562348660296 3479.1892299205538
884.9902268378391 3634.325732149183
885.9239855438955 3534.6745399767897
886.8575110534839 3481.6271069355053
887.7908034358588 3577.1450549908122
888.7238627602474 3510.8068968111133
889.6566890958475 3526.802247773839
890.5892825118208 3447.1134154457186
891.5216430773125 3485.1917749534814
892.4537708614189 3500.2067778850055
893.3856659332196 3353.695381117577
894.3173283617652 3340.7451137753624
895.2487582160684 3431.3727356580844
896.179955565116 3351.047842870551
897.110920477864 3306.5099470594373
898.0416530232451 3289.042763337032
898.9721532701478 3260.6374145896484
899.9024212874428 3405.4319183924345
900.8324571439662 3292.291345365694
901.7622609085302 3255.6180658512176
902.6918326499072 3209.7660158015606
903.6211724368477 3269.50363919951
904.5502803380696 3367.4254988032612
905.4791564222614 3392.2005685937233
906.4078007580792 3253.8348804061293
907.3362134141571 3269.8728660513843
908.2643944590909 3412.759520253677
909.1923439614493 3241.2251967262937
910.1200619897754 3224.0143539930355
911.0475486125779 3386.6087872861076
911.9748038983344 3296.721597170489
912.9018279155007 3238.6304650817633
913.8286207324982 3161.590177222535
914.7551824177117 3267.1286323616723
915.6815130395116 3208.1481607896326
916.6076126662283 3124.6627115664123
917.533481366163 3189.593779765102
918.4591192075914 3190.274695557446
919.3845262587565 3268.8240675249035
920.3097025878706 3238.082043052896
921.2346482631237 3155.4802524062698
922.1593633526682 3167.210739283705
923.0838479246304 3250.7030316754344
924.0081020471061 3293.989700132281
924.9321257881656 3124.7393732563182
925.8559192158464 3176.7275192444204
926.7794823981512 3120.3928666279876
927.7028154030686 3027.1779102031733
928.6259182985414 3107.139572484485
929.5487911524906 3153.4025550018305
930.4714340328119 3277.502996054102
931.3938470073608 3027.268471726323
932.3160301439748 3125.587265717315
933.2379835104548 3088.085848779803
934.1597071745709 3218.293030068303
935.0812012040769 3159.4821862356266
936.002465666681 3211.9899097195967
936.9235006300696 3234.0825151745485
937.8443061619055 3161.6856207551273
938.7648823298077 3063.1562814890635
939.6852292013809 3084.4122247616374
940.6053468441951 3160.0505105939374
941.5252353257874 3040.0862852213945
942.4448947136698 3082.6265704271486
943.364325075323 3108.9999739232453
944.2835264782043 3121.8752496101256
945.2024989897309 3070.2641458563417
946.1212426773054 3081.4543860812087
947.0397576082851 3124.6785955434966
947.9580438500125 3308.114615120133
948.8761014697939 3254.7309259155836
949.7939305349064 3178.9712820988107
950.7115311125999 3111.5473606737605
951.6289032700952 3054.547268826688
952.5460470745875 3192.157382901221
953.4629625932339 3112.352474890928
954.3796498931715 3124.0364945145166
955.2961090415029 3136.629986038125
956.2123401053068 3140.0966757245055
957.1283431516276 3096.1160481085217
958.0441182474842 3088.3969324168656
958.9596654598663 3248.6225564859906
959.8749848557309 3143.5461966204743
960.7900765020167 3083.180038904844
961.7049404656209 3077.3640123267787
962.6195768134185 3080.901319111346
963.5339856122537 3140.595319566104
964.4481669289453 3139.7080715646675
965.3621208302793 3119.718812411992
966.2758473830145 3039.5891445828006
967.1893466538822 3261.945715734941
968.1026187095813 3089.163315825094
969.0156636167867 3092.131553221835
969.9284814421426 3155.602844306034
970.8410722522622 3129.216843521483
971.753436113735 3015.250055239424
972.6655730931161 3085.3095617126496
973.5774832569368 3148.488394796713
974.4891666716958 3034.6961240537635
975.4006234038698 2986.490383610965
976.3118535198955 3034.085358874019
977.2228570861935 3111.5292679886365
978.1336341691494 3168.7843923337987
979.0441848351202 2945.358321150451
979.9545091504333 3187.469909357341
980.864607181391 3047.6604134510044
981.7744789942699 3132.8514856879906
982.6841246553086 3067.361183659942
983.5935442307236 3052.803439438977
984.5027377867027 3094.5755008446185
985.4117053894024 3121.9754905097025
986.3204471049557 3015.0693379713302
987.2289629994648 3137.0821800703397
988.1372531390007 3137.831155464883
989.0453175896091 3127.330921988087
989.9531564173067 3184.8306914017967
990.860769688079 3073.9559913513017
991.7681574678918 3099.437696737044
992.6753198226706 3165.1326506181294
993.582256818323 3109.2019517580807
994.4889685207218 3044.6682095302867
995.3954549957143 3188.887290156372
996.301716309119 3228.6581817043198
997.2077525267232 3079.1838768207945
998.1135637142943 3068.2025440926213
999.0191499375615 3220.0498855751935
999.924511262232 3284.590237851067
1000.8296477539861 3123.1111260135394
1001.7345594784656 3135.4569957337385
1002.6392465012996 3079.776974735014
1003.5437088880753 3250.913793854442
1004.4479467043584 3202.9822423436585
1005.3519600156869 3006.489280904109
1006.2557488875718 3242.518420601039
1007.1593133854858 3208.806435471811
1008.0626535748888 3075.14014539162
1008.9657695212009 3070.2783242768746
1009.8686612898182 3251.134587578429
1010.7713289461135 3244.4924247018525
1011.6737725554212 3157.727332115374
1012.5759921830577 3152.5239885849123
1013.4779878943027 3129.5230881137827
1014.379759754418 3170.602061124114
1015.2813078286254 3078.3001107194327
1016.18263218213 3033.610730179108
1017.0837328801026 3061.621045404034
1017.9846099876886 3152.0102009238135
1018.8852635700023 3059.9918929370197
1019.7856936921362 2933.9254080818
1020.6859004191447 3177.976483776079
1021.5858838160675 3027.0277824478007
1022.4856439479063 2984.8168674039084
1023.3851808796389 2916.194600755717
1024.2844946762143 3151.7860588767116
1025.183585402554 3055.2561189440994
1026.082453123554 2847.838740126283
1026.9810979040776 3042.4351436084917
1027.8795198089647 2951.118183201591
1028.777718903024 3005.500294492708
1029.6756952510368 2917.5748362284567
1030.5734489177648 2885.024902569452
1031.4709799679313 2872.552710784993
1032.3682884662358 3147.4415329893122
1033.2653744773506 2844.4646487057025
1034.1622380659192 2851.0162237515165
1035.058879296559 2925.994563120882
1035.9552982338591 3097.527843269131
1036.8514949423825 2984.119519294359
1037.7474694866614 2958.7182667932225
1038.6432219312028 2932.1291786289034
1039.5387523404825 3102.4197620086034
1040.4340607789582 2926.1774851941605
1041.3291473110476 2977.8657873104635
1042.2240120011465 3053.7139378422767
1043.1186549136273 3095.6494186627765
1044.0130761128294 2965.9477931355646
1044.9072756630649 3011.6985299809558
1045.8012536286205 3098.222688664501
1046.6950100737577 3116.6262140570598
1047.588545062701 3160.653207421966
1048.481858659663 3068.407204071177
1049.3749509288118 3221.1045321175457
1050.2678219343034 3052.2123330067157
1051.1604717402515 3115.871425955565
1052.0529004107575 3056.90480296536
1052.9451080098825 3150.8788971246217
1053.8370946016694 3089.409270825834
1054.7288602501267 3098.8819055273175
1055.6204050192446 3107.8985926472724
1056.511728972977 3089.4925231897114
1057.402832175254 3089.411473660547
1058.2937146899785 3024.0282643349883
1059.1843765810263 3028.2248939971514
1060.0748179122456 3081.701087968142
1060.9650387474576 3074.1220631384235
1061.855039150456 3032.479420554872
1062.7448191850071 3083.1445509511873
1063.6343789148505 3017.7873257207643
1064.5237184037014 3160.8663861191
1065.412837715241 3009.3419459525694
1066.3017369131267 3009.3322111413718
1067.190416060992 2908.794974934827
1068.0788752224398 2996.3552686031185
1068.9671144610438 2951.655642253921
1069.8551338403558 3059.631891601929
1070.7429334239023 3029.257173100784
1071.6305132751695 2946.224386914965
1072.517873457633 3043.319284046347
1073.4050140347335 2939.6057026222165
1074.2919350698776 2931.095827236837
1075.1786366264623 2947.1762707057314
1076.0651187678395 2966.0921224536974
1076.95138155735 2978.4931376589975
1077.8374250582929 2856.373147576286
1078.7232493339507 2970.074323200334
1079.608854447577 2895.1035095881075
1080.4942404623907 2810.3985720564224
1081.3794074415982 2949.5521787499647
1082.2643554483657 2989.096017363013
1083.149084545841 2889.3682957445844
1084.033594797138 2853.649395913617
1084.9178862653516 2809.3000377101466
1085.8019590135427 2977.0345923212017
1086.6858131047484 2786.9498043025765
1087.5694486019802 2913.6901654335416
1088.4528655682225 2837.7350659311533
1089.3360640664287 3003.447100700382
1090.2190441595321 2950.90771299517
1091.1018059104317 2895.49716676061
1091.98434938201 2941.8754062289595
1092.866674637111 3026.5050373636645
1093.748781738559 2925.3516791742804
1094.6306707491512 2805.2254961050776
1095.5123417316554 2973.416099790811
1096.3937947488157 2847.5098439303006
1097.2750298633455 2860.2920309510196
1098.156047137938 2847.2039566934586
1099.0368466352556 2901.998963813354
1099.9174284179317 3029.621573869372
1100.7977925485757 2794.1699298061126
1101.6779390897755 2852.625649527365
1102.5578681040806 2863.104646726723
1103.4375796540226 2835.752194201267
1104.3170738021054 2807.4957377296932
1105.1963506108077 2718.465930663869
1106.0754101425773 2675.548556336435
1106.9542524598382 2859.7082957140815
1107.8328776249855 2696.673509386551
1108.7112857003904 2742.5299795388196
1109.5894767483987 2741.939764755018
1110.4674508313292 2909.7032838494024
1111.3452080114657 2759.7322001799607
1112.2227483510815 2881.296010995592
1113.1000719124077 2838.745507488905
1113.9771787576592 2861.5691894226607
1114.854068949022 2893.0206286116745
1115.7307425486542 2922.991145443305
1116.6071996186893 2935.249593068391
1117.483440221229 3189.756886476385
1118.3594644183577 2898.9554956446345
1119.235272272128 2947.039570876582
1120.1108638445658 2978.9619170656324
1120.9862391976712 3151.26655417247
1121.8613983934229 3061.867729697474
1122.7363414937627 3090.791945199123
1123.6110685606182 3108.2813427766023
1124.485579655884 3251.974593047802
1125.359874841426 3078.235998798886
1126.2339541790916 3175.115674671534
1127.1078177306936 3341.983021377623
1127.9814655580267 3231.4784992491727
1128.854897722851 3216.208824132816
1129.7281142869106 3227.587443811199
1130.6011153119125 3252.0749738817913
1131.473900859548 3415.798191345527
1132.3464709914697 3258.249241143967
1133.2188257693178 3280.905644909203
1134.0909652546961 3170.5575151509724
1134.96288950919 3133.8974302617135
1135.8345985943506 3201.083930671083
1136.7060925717087 3030.869029585603
1137.57737150277 3136.342813474538
1138.4484354490069 3298.491289321856
1139.3192844718778 3109.7497024383124
1140.1899186327992 2899.42290482477
1141.060337993178 3138.428716460499
1141.930542614382 3024.836617047129
1142.8005325577597 2909.254219489407
1143.670307884635 2800.441524301705
1144.5398686563003 2907.1906142452835
1145.409214934025 2911.029849270935
1146.2783467790541 2760.218377204359
1147.1472642526023 2903.1613441883915
1148.0159674158622 2950.4778342503837
1148.8844563300026 2783.58701228831
1149.7527310561618 2729.933362757165
1150.6207916554504 2738.63086677018
1151.4886381889592 2694.6490706613395
1152.3562707177498 2879.2570131019984
1153.2236893028585 2671.691582063937
1154.090894005296 2575.3106421706616
1154.9578848860474 2687.173171653207
1155.8246620060709 2692.039428957516
1156.6912254262988 2577.450654801303
1157.5575752076438 2610.7244391599393
1158.42371141098 2779.3817653600768
1159.2896340971656 2706.9175545071985
1160.1553433270346 2619.5777685254725
1161.0208391613887 2672.9274905850593
1161.8861216610057 2628.828806790082
1162.75119088664 2738.0988184488733
1163.6160468990201 2678.0798246060867
1164.4806897588442 2601.8429100062467
1165.3451195267917 2674.548614886986
1166.2093362635114 2606.0417791991354
1167.0733400296285 2614.18964452521
1167.9371308857444 2574.2165113327596
1168.8007088924278 2583.499277993621
1169.6640741102328 2591.381484352831
1170.5272265996773 2578.4789721751263
1171.390166421259 2542.1783566463937
1172.252893635452 2576.0489246183965
1173.1154083026995 2732.550760454208
1173.977710483421 2727.880016580402
1174.8398002380145 2476.9761763639303
1175.7016776268483 2649.788653949223
1176.563342710264 2608.7042850000444
1177.4247955485826 2592.3353661614738
1178.2860362020947 2711.3500881148266
1179.147064731069 2459.965160197221
1180.0078811957483 2695.4603141951857
1180.8684856563486 2566.083032653713
1181.7288781730604 2623.7032391378734
1182.589058806052 2620.7522109507217
1183.4490276154593 2791.9106646594464
1184.3087846614017 2554.542719721068
1185.1683300039676 2605.321368878958
1186.027663703222 2794.9081832603597
1186.8867858192025 2667.7116698149252
1187.7456964119228 2696.694774675355
1188.6043955413716 2716.3783514429992
1189.4628832675116 2695.522630596356
1190.3211596502842 2867.7455318639204
1191.179224749596 2823.7655309578277
1192.0370786253388 2699.5800231099442
1192.8947213373758 2908.3271884968735
1193.7521529455407 2937.2703053485898
1194.6093735096438 2735.9447894114232
1195.466383089477 2759.7525706991955
1196.3231817447977 2725.930462777591
1197.1797695353398 2935.4070337889552
1198.0361465208189 2722.9000426789416
1198.8923127609214 2716.100458660262
1199.7482683153048 2903.0295221418173
1200.6040132436028 2967.036164001518
1201.459547605431 2810.3534259782637
1202.3148714603722 2898.476431641324
1203.1699848679855 2861.485410947175
1204.0248878878065 2956.1533402785667
1204.8795805793507 2667.7013414823027
1205.7340630020935 2851.655424587706
1206.5883352155033 2915.461117346135
1207.4423972790064 2866.564252511422
1208.2962492520237 2782.227504983748
1209.1498911939307 2780.8402546352636
1210.0033231640937 2730.6234949487193
1210.8565452218427 2814.3264040512586
1211.7095574264913 2532.4923979286614
1212.5623598373222 2602.423914858614
1213.4149525135963 2524.789244541286
1214.2673355145507 2700.46338436904
1215.1195088993936 2574.685514868061
1215.9714727273113 2620.9134953523367
1216.8232270574663 2753.3872300081935
1217.6747719489904 2408.7198202669074
1218.5261074609934 2545.193213424457
1219.3772336525653 2688.5956291943994
1220.2281505827668 2665.935974213933
1221.0788583106296 2707.658463510007
1221.9293568951707 2507.982675656833
1222.7796463953746 2513.3897591868854
1223.629726870202 2576.5624190009535
1224.4795983785934 2613.5120031089127
1225.3292609794553 2606.5478745082155
1226.1787147316809 2499.464628018727
1227.0279596941327 2554.3869532150024
1227.8769959256424 2674.204226309992
1228.7258234850306 2614.213843998586
1229.5744424310833 2411.8378553426705
1230.422852822563 2613.671573861049
1231.2710547182105 2727.17714894296
1232.119048176739 2605.2399328539486
1232.9668332568417 2440.7434256323895
1233.8144100171812 2563.995701785332
1234.6617785163999 2601.3406257568886
1235.508938813111 2333.9651888056187
1236.3558909659114 2438.237666396396
1237.2026350333617 2610.123811653154
1238.049171074008 2606.6287737443436
1238.8954991463652 2432.4769802638866
1239.741619308932 2515.81358194959
1240.587531620169 2570.162317461817
1241.4332361385277 2623.964450611144
1242.2787329224248 2487.676052861642
1243.1240220302534 2450.730186701741
1243.9691035203869 2332.666224653184
1244.813977451171 2635.7250677076318
1245.6586438809263 2528.1490169176104
1246.5031028679496 2300.2786405566076
1247.3473544705157 2590.444217372193
1248.1913987468706 2485.1776558444217
1249.0352357552383 2381.1558607463357
1249.8788655538228 2460.273468991357
1250.7222882007918 2602.976164401973
1251.565503754302 2581.3189526497845
1252.4085122724755 2266.7634466126606
1253.2513138134182 2519.782579064002
1254.0939084352049 2490.6672557706675
1254.9362961958905 2504.403285400091
1255.7784771535007 2506.677233676142
1256.6204513660432 2609.479056894862
1257.4622188915 2666.996505725644
1258.3037797878242 2435.4421400188485
1259.1451341129468 2437.761437060791
1259.9862819247755 2575.8003278998226
1260.8272232811978 2525.9041195003774
1261.6679582400666 2661.595402354517
1262.5084868592203 2394.735070587261
1263.34880919647 2457.8317420020226
1264.1889253095997 2569.9789315304415
1265.0288352563712 2700.9345578407424
1265.8685390945266 2445.2606681730344
1266.7080368817751 2598.646444094887
1267.5473286758115 2686.0949215110604
1268.386414534294 2611.974555138956
1269.2252945148703 2333.251101371749
1270.0639686751547 2493.82693526949
1270.9024370727402 2503.5778824803806
1271.7406997651997 2417.0906156339074
1272.5787568100714 2307.889525492822
1273.4166082648808 2440.6451823294883
1274.2542541871244 2407.203042158383
1275.091694634275 2659.7786807835387
1275.9289296637817 2355.1720294679676
1276.7659593330663 2548.079268780883
1277.6027836995308 2443.4445208797633
1278.4394028205552 2561.067123017308
1279.2758167534867 2573.2242124544214
1280.112025555658 2466.069742644525
1280.9480292843746 2516.8847986387536
1281.7838279969128 2355.987621724606
1282.6194217505326 2459.2751182356324
1283.4548106024686 2414.8163683742778
1284.289994609926 2420.4585153549656
1285.1249738300921 2576.300876986762
1285.959748320127 2364.5242597522874
1286.7943181371702 2451.328215696749
1287.6286833383328 2407.7853058109035
1288.4628439807038 2540.8609425476448
1289.2968001213521 2400.8161214121383
1290.1305518173194 2464.482135039173
1290.9640991256183 2442.32986549569
1291.7974421032523 2397.4944654430196
1292.630580807183 2361.3903541485006
1293.463515294361 2470.903861270971
1294.29624562171 2535.2698874284793
1295.12877184613 2364.9927890819704
1295.961094024493 2349.893168513291
1296.79321221365 2399.98094532687
1297.6251264704333 2566.8751639135867
1298.4568368516466 2688.0358682024716
1299.2883434140658 2471.030491762515
1300.1196462144526 2366.2047725753278
1300.9507453095375 2575.4157251051615
1301.7816407560313 2538.598576185057
1302.6123326106172 2529.575955231091
1303.4428209299622 2376.1799199284796
1304.2731057707024 2656.490154828259
1305.1031871894502 2402.6532386663494
1305.933065242798 2547.189422105347
1306.7627399873181 2509.069650654567
1307.5922114795467 2790.92371502872
1308.4214797760123 2628.208995207659
1309.2505449332057 2543.797909433054
1310.0794070076026 2612.617733810012
1310.9080660556538 2696.533016825733
1311.736522133786 2755.8942950812407
1312.5647752983987 2582.5664658814558
1313.3928256058734 2351.5881476116183
1314.2206731125661 2611.005040040226
1315.048317874809 2637.06001179613
1315.8757599489109 2617.291657149931
1316.7029993911547 2603.554180850032
1317.5300362578055 2746.3075479507015
1318.356870605101 2554.8733259841656
1319.183502489257 2596.258285313069
1320.0099319664623 2639.2756894814784
1320.836159092889 2714.8460079210768
1321.66218392468 2714.0928453736587
1322.4880065179532 2517.1215408859816
1323.3136269288134 2661.5541381775365
1324.1390452133292 2785.9855547443804
1324.9642614275563 2851.1730672241583
1325.7892756275214 2589.1081676923754
1326.6140878692295 2532.909209481976
1327.4386982086617 2932.5362132696505
1328.2631067017755 2660.9290168238585
1329.0873134045069 2724.4171368290777
1329.911318372764 2583.3311360647035
1330.735121662441 2662.438273044867
1331.558723329399 2561.812488666019
1332.3821234294774 2594.6793372876728
1333.2053220185007 2670.589978659942
1334.0283191522612 2516.755140177772
1334.851114886529 2700.9890881200945
1335.6737092770582 2424.282664449537
1336.4961023795695 2582.0495238795384
1337.3182942497697 2522.0541090268634
1338.1402849433325 2558.7932743214624
1338.962074515921 2427.7765488989094
1339.7836630231632 2397.6341456705354
1340.6050505206676 2849.7235074374225
1341.426237064028 2712.5667249875323
1342.2472227088037 2523.034347897237
1343.0680075105338 2405.5825967119595
1343.888591524741 2551.7974440078315
1344.7089748069138 2652.6688795561304
1345.5291574125276 2486.836481853103
1346.3491393970307 2351.3366118087893
1347.168920815846 2558.135124024877
1347.9885017243778 2587.6082323064797
1348.8078821780036 2434.1447616849555
1349.6270622320844 2589.3745349143537
1350.4460419419447 2411.674042382952
1351.2648213629054 2567.5780040281725
1352.0834005502438 2323.899037902745
1352.90177955923 2373.0472257543383
1353.7199584451064 2529.3173046392058
1354.5379372630887 2544.829580620487
1355.355716068374 2457.4459986143434
1356.1732949161305 2407.679204963117
1356.9906738615155 2416.5642211521
1357.8078529596478 2421.8792392211685
1358.6248322656375 2560.026411203834
1359.441611834567 2370.272826909505
1360.2581917214866 2507.179057528956
1361.0745719814367 2543.3436650959256
1361.890752669433 2361.508401827043
1362.7067338404577 2311.0887686061824
1363.5225155494845 2648.4114998316695
1364.3380978514506 2612.821906994515
1365.1534808012839 2268.321642871262
1365.9686644538815 2162.334916498331
1366.783648864117 2547.590011247401
1367.5984340868417 2629.166375103931
1368.413020176893 2518.7660842945274
1369.2274071890715 2278.045090570818
1370.0415951781652 2551.639731300559
1370.8555841989346 2733.001312242485
1371.6693743061223 2317.683855854085
1372.48296555444 2270.080077504951
1373.2963579985844 2521.1161422394466
1374.1095516932255 2522.519707207189
1374.9225466930166 2213.1159294217537
1375.7353430525782 2484.2713698742177
1376.5479408265164 2367.21348097998
1377.36034006941 2504.2413289090687
1378.1725408358216 2529.7719199067506
1378.9845431802805 2229.1947551850294
1379.796347157304 2693.8258061090773
1380.6079528213813 2519.853522304164
1381.4193602269788 2296.926489277226
1382.230569428546 2304.7188924855895
1383.0415804805016 2503.964342206474
1383.852393437246 2585.9239564249683
1384.6630083531563 2378.062071196225
1385.4734252825892 2328.4123419688563
1386.2836442798798 2365.220831149729
1387.0936653993322 2445.59176872561
1387.9034886952395 2358.117899539044
1388.713114221864 2492.8463038592085
1389.5225420334482 2444.528514004263
1390.331772184214 2370.788648816155
1391.1408047283585 2216.071986121833
1391.9496397200564 2358.918722347885
1392.758277213461 2440.340846130249
1393.5667172627054 2532.0473740554744
1394.3749599218918 2340.248319351975
1395.1830052451114 2249.2865383912513
1395.9908532864265 2304.1500540267853
1396.7985040998774 2477.4315010265773
1397.6059577394808 2274.9489572886637
1398.4132142592352 2293.621702894242
1399.2202737131156 2265.2712185618448
1400.027136155073 2520.1888193385385
1400.8338016390353 2356.20105040287
1401.6402702189134 2362.99589905243
1402.446541948586 2364.082484744838
1403.2526168819204 2259.026201928716
1404.058495072757 2189.3304564856107
1404.8641765749107 2324.151695173427
1405.6696614421799 2369.493145071071
1406.4749497283356 2607.3006164885264
1407.280041487129 2244.386028217924
1408.084936772295 2075.079643509077
1408.8896356375335 2439.3622865817406
1409.6941381365323 2397.8284689343504
1410.498444322955 2163.488109206962
1411.3025542504402 2320.053428992845
1412.106467972606 2333.7917420831495
1412.9101855430508 2278.976803548204
1413.7137070153458 2093.8243277902607
1414.5170324430437 2292.352179098242
1415.320161879672 2303.43502432856
1416.1230953787435 2523.9607463084926
1416.925832993742 2228.878406911691
1417.7283747781275 2177.8268270025246
1418.5307207853439 2309.0315651426668
1419.3328710688093 2301.574822656536
1420.134825681922 2014.5247514011814
1420.9365846780584 2186.4771692655804
1421.7381481105713 2422.659740330163
1422.539516032788 2381.8141765042556
1423.3406884980232 2176.459264143348
1424.1416655595604 2137.681021445296
1424.942447270665 2141.7412285077635
1425.7430336845828 2358.852946002694
1426.5434248545298 2077.2335894467133
1427.3436208337116 2300.246911573066
1428.143621675301 2199.7206504463625
1428.9434274324558 2387.424475747905
1429.7430381583108 2073.68345294696
1430.5424539059713 2190.9393451074766
1431.3416747285337 2556.8332522128803
1432.1407006790632 2311.5236814687196
1432.9395318106053 2223.920090885451
1433.7381681761835 2089.880911221852
1434.5366098288014 2303.1169858803746
1435.3348568214424 2299.8024769446242
1436.1329092070573 2200.2830451991417
1436.9307670385879 2236.924307096704
1437.7284303689503 2334.803529110144
1438.5258992510335 2298.5011315090374
1439.3231737377118 2265.607152165024
1440.1202538818306 2217.388043925458
1440.9171397362225 2156.645970029117
1441.7138313536925 2171.0116699362525
1442.5103287870243 2001.8759120340899
1443.3066320889775 2076.0773022007807
1444.1027413122956 2341.8364650732856
1444.8986565096966 2149.337164121548
1445.694377733882 2251.8139337123202
1446.4899050375207 1998.9927741103365
1447.2852384732687 2121.956873659935
1448.0803780937622 2234.1262460473235
1448.8753239516063 2036.5869510704754
1449.6700760993954 1949.0805855595656
1450.464634589689 2037.533396464587
1451.2589994750397 2398.0056185473154
1452.0531708079689 1975.4442257829837
1452.8471486409799 2048.4292775327385
1453.6409330265524 2313.7643229745177
1454.4345240171442 2041.526866000228
1455.2279216651987 2006.5371093783656
1456.0211260231263 2109.796458126945
1456.8141371433194 2442.52397860448
1457.6069550781594 2195.732148859071
1458.3995798799897 1909.751825860998
1459.1920116011424 2031.3260461607788
1459.98425029393 1952.7181191885059
1460.7762960106338 1984.9776079848848
1461.5681488035225 2137.6475249172317
1462.3598087248392 2111.800700742112
1463.1512758268036 2300.7960179626325
1463.942550161617 1944.4898238117694
1464.7336317814625 1981.9476694025204
1465.524520738496 2112.249317406989
1466.3152170848552 2012.0500395298536
1467.1057208726506 2063.648079367017
1467.8960321539817 2007.0979304736818
1468.6861509809169 1956.25606951798
1469.4760774055085 2003.032069430416
1470.265811479785 2105.3967246408865
1471.055353255755 1856.730442254632
1471.844702785409 1915.5903014177243
1472.6338601207044 1963.9425975879585
1473.4228253135934 2133.8702212981984
1474.2115984159936 1900.7282469203287
1475.0001794798063 1786.7140582413783
1475.7885685569145 2047.1515263494045
1476.576765699172 1960.368352529443
1477.3647709584238 1952.386519009046
1478.1525843864802 2174.132377199502
1478.9402060351367 2052.3963762863445
1479.7276359561693 2053.085958141662
1480.514874201328 1948.0072456508722
1481.3019208223468 1902.954123582788
1482.0887758709323 1805.2203410960822
1482.8754393987747 2091.603872299592
1483.6619114575406 1836.548421853582
1484.4481920988783 1976.5497362449812
1485.2342813744108 1898.8855810601867
1486.0201793357446 2141.0827196168107
1486.8058860344572 1907.0613942160385
1487.591401522117 1969.957562730502
1488.3767258502594 1960.5670296626554
1489.1618590704056 1972.5667466409475
1489.9468012340494 1761.7293730100118
1490.7315523926754 2050.744942506876
1491.5161125977356 2032.449475841014
1492.3004819006637 2083.7593549469066
1493.084660352877 1879.4712515979504
1493.8686480057622 1933.6548892667172
1494.6524449106964 2079.7462749147344
1495.4360511190262 2123.325832434336
1496.219466682087 2021.231428483959
1497.0026916511779 1979.9670667040186
1497.7857260775945 1966.1584190325098
1498.5685700125996 2019.3346103569784
1499.3512235074395 1843.9100289124096
1500.133686613337 1817.4364111039401
1500.9159593814966 1852.097031864887
1501.698041863101 1879.9579541677952
1502.4799341093094 1907.9434507728172
1503.2616361712662 1795.2358492040075
1504.043148100087 1982.9873866186194
1504.8244699468742 2100.1843547579347
1505.6056017626997 1808.2953267308433
1506.3865435986281 1778.7252920615251
1507.1672955056893 1977.2237297716765
1507.9478575348967 1880.250211391157
1508.7282297372512 2108.9358628669606
1509.5084121637192 1927.1041330968335
1510.2884048652577 1964.0890111056628
1511.0682078927948 1825.7345984821936
1511.8478212972423 1947.2550030808234
1512.6272451294917 1793.684483912751
1513.4064794404076 1942.2601949284424
1514.1855242808433 2050.7084243707677
1514.9643797016215 1903.785066446674
1515.743045753552 2036.5009694117168
1516.5215224874191 2019.6812573135205
1517.2998099539836 1779.53377484501
1518.077908203999 1946.1305558875738
1518.8558172881785 1863.8090692654666
1519.633537257234 1984.5892851748936
1520.4110681618404 1990.3095543471431
1521.1884100526604 1872.1391575823177
1521.9655629803365 1847.9496500536056
1522.7425269954856 1992.5568174809753
1523.5193021487103 2177.7720761700975
1524.2958884905856 1776.3023401285548
1525.0722860716687 1952.9737556025316
1525.848494942502 1900.3994709235133
1526.624515153595 1942.2707492543323
1527.4003467554485 1940.5570384102562
1528.175989798534 1991.0907648236848
1528.9514443333064 1981.379450714964
1529.726710410203 2150.7958728746153
1530.5017880796331 1811.5231778643526
1531.276677391992 1879.8905358511977
1532.0513783976457 2100.062531136527
1532.825891146953 1931.58056644473
1533.6002156902414 2022.8744287837585
1534.3743520778207 1936.2793332083445
1535.1483003599806 1974.4945497853253
1535.9220605869923 1958.3608819995993
1536.6956328091019 2015.3458296397835
1537.4690170765407 1900.9167051584107
1538.242213439511 2038.1554651814342
1539.015221948208 2015.6116975264322
1539.78804265279 1932.220426433459
1540.560675603405 1796.476858801228
1541.3331208501804 2163.0636844324035
1542.1053784432224 2106.7893287916986
1542.8774484326168 2047.828255558065
1543.649330868422 2001.796387585135
1544.4210258006842 2049.242644521909
1545.1925332794308 1990.068539177132
1545.9638533546604 1985.2677767345908
1546.7349860763552 1911.8402790073774
1547.5059314944829 2252.007898117771
1548.27668965898 2080.0110198552884
1549.0472606197673 2077.0014074308224
1549.817644426752 1938.4632397523237
1550.5878411298072 2121.209674577822
1551.3578507787988 2119.4244036111113
1552.1276734235635 1891.0840142009142
1552.8973091139233 2028.245008328876
1553.6667578996767 2105.7750592307593
1554.436019830604 2018.1204198771331
1555.20509495646 1952.9975914091344
1555.9739833269869 1888.3046450140598
1556.7426849919011 1897.4019062586783
1557.511200000903 2134.9064537999448
1558.2795284036674 2048.2558454613377
1559.0476702498509 1899.2920134840115
1559.8156255890954 2110.401222317733
1560.5833944710157 2196.8176097414594
1561.3509769452048 1948.7837527601173
1562.1183730612447 1914.1185140127423
1562.8855828686865 1925.3723330224434
1563.6526064170703 2230.3748781952195
1564.4194437559127 2123.6723046741563
1565.1860949347047 1984.9039184750716
1565.9525600029283 2176.767707118192
1566.7188390100328 2306.311656322919
1567.4849320054564 1800.9725721290167
1568.250839038612 1968.622650741191
1569.0165601588997 2086.4280572000926
1569.7820954156887 2147.174650613269
1570.5474448583373 2069.7958641168702
1571.31260853618 1933.0911484190578
1572.0775864985299 1791.6675557948033
1572.8423787946813 2064.6240229277437
1573.6069854739108 1880.0479895463207
1574.371406585471 2019.637136293027
1575.1356421785986 2217.7614604235414
1575.899692302506 1981.7194753432468
1576.6635570063845 2142.520623108305
1577.4272363394157 2018.9367696035122
1578.190730350747 1930.8217407270254
1578.9540390895163 2126.9277712063317
1579.7171626048384 1781.8381694915715
1580.480100945806 1922.6978779290948
1581.2428541614918 1917.0227037490727
1582.0054223009538 2072.8693732157453
1582.767805413223 2020.4412226222776
1583.5300035473156 1985.3460563610952
1584.292016752228 2126.577204850559
1585.0538450769309 2065.0523174355576
1585.8154885703807 1887.5422590027222
1586.5769472815136 1838.8649052254573
1587.3382212592405 2041.845215175231
1588.099310552463 2176.2572903797286
1588.8602152100484 2159.2835433707114
1589.6209352808564 2133.765727281748
1590.3814708137234 1978.1242803401315
1591.14182185746 2067.538271534052
1591.9019884608679 1932.027228469186
1592.6619706727215 1741.6756842244474
1593.4217685417734 2112.3787421090865
1594.1813821167616 2134.7907007301446
1594.9408114464022 1826.0722307890105
1595.7000565793933 1947.973859163086
1596.459117564409 2035.6859814246677
1597.2179944501113 1966.2442452080945
1597.9766872851324 1915.2920426911885
1598.735196118092 2181.991676165103
1599.4935209975883 2110.789329021827
1600.2516619721973 2141.001415663156
1601.0096190904787 1962.4045467364147
1601.7673924009723 1963.467565675517
1602.524981952196 1989.773821854736
1603.2823877926476 2009.4094633199772
1604.0396099708087 1937.7833492257294
1604.7966485351371 1732.0542754750536
1605.5535035340745 1973.8686335463567
1606.3101750160404 2119.8798566981377
1607.0666630294363 1760.1341010864303
1607.822967622642 1813.9368597613097
1608.5790888440224 1891.1318046957135
1609.3350267419137 2140.1356303413377
1610.0907813646445 1985.9579592870384
1610.8463527605145 1931.8892594763536
1611.601740977805 2085.180358130445
1612.356946064785 2031.6180988762958
1613.1119680696902 1720.1554785149397
1613.8668070407512 1841.3150263404223
1614.6214630261748 1850.6610842196721
1615.375936074137 2009.5300052269736
1616.1302262328118 1963.9274417559725
1616.8843335503425 2039.6668953268745
1617.638258074854 1845.613593817981
1618.391999854457 2044.750982284689
1619.1455589372363 2070.7909474738585
1619.8989353712623 2066.0555986840354
1620.65212920458 1674.5192818608543
1621.4051404852235 1934.9008596352483
1622.1579692611976 1870.2973546801186
1622.9106155804966 1733.1426103983226
1623.663079491087 1892.4357524524953
1624.4153610409248 2002.9075460835052
1625.1674602779385 1823.3764838996117
1625.9193772500403 1804.2618253414366
1626.6711120051277 2142.1592905965326
1627.4226645910676 1885.2094945312879
1628.174035055721 1826.169603779966
1628.9252234469168 1988.5577562141902
1629.676229812474 1942.1076845361436
1630.4270542001905 2242.3756055563117
1631.1776966578382 1976.7644119649492
1631.9281572331747 1928.377268959306
1632.678435973945 2092.8558517270244
1633.4285329278573 2084.1693678473575
1634.1784481426203 1727.596835954954
1634.9281816659113 1794.3099704188335
1635.677733545388 2100.453656584673
1636.4271038286934 1896.6133608807722
1637.176292563452 2040.7969291714867
1637.9252997972635 2007.5998552554188
1638.674125577716 2019.6191801008022
1639.4227699523672 1903.415872901856
1640.171232968767 1787.086112341832
1640.9195146744423 1994.7455287429664
1641.6676151168977 2090.1596897569884
1642.4155343436178 2208.332114523889
1643.1632724020765 1929.5168142351445
1643.9108293397167 2051.4763223076216
1644.658205203974 1939.1085589531037
1645.4054000422566 1930.4985510920717
1646.1524139019566 1921.718905707277
1646.8992468304423 1868.6632524046404
1647.6458988750728 1905.2658651186314
1648.3923700831765 1884.6243426695576
1649.1386605020743 2021.5815669576582
1649.8847701790564 2153.997204910728
1650.6306991614038 2079.969138793557
1651.3764474963682 2130.616210117222
1652.1220152311944 1817.8480784691874
1652.867402413096 2011.470905047196
1653.6126090892776 1993.8764183943763
1654.3576353069184 2237.4662842380685
1655.1024811131829 2053.3012665723827
1655.8471465552066 1982.2867617992495
1656.5916316801213 2159.244036459523
1657.3359365350298 2089.8192587844137
1658.0800611670165 1988.2654750664437
1658.824005623148 2002.6652576871588
1659.5677699504722 1941.5936908013177
1660.3113541960192 2003.1029493252584
1661.054758406799 1878.0554730684041
1661.7979826297997 1849.632850036509
1662.5410269119966 1799.2489660711585
1663.283891300338 2049.562319570491
1664.0265758417645 1893.2659583156524
1664.7690805831826 1937.8076809568215
1665.5114055714948 2069.308855136637
1666.2535508535748 1895.146192064244
1666.9955164762814 1720.50243120394
1667.7373024864555 1929.7494179712587
1668.478908930916 2016.4067970426877
1669.220335856462 1893.5453824638166
1669.9615833098778 1835.8013612807172
1670.7026513379296 1805.6721058449352
1671.44353998736 1987.5575020964375
1672.1842493048916 1929.8103214288785
1672.9247793372379 1869.974125742924
1673.6651301310812 1972.0994133657975
1674.4053017330934 1804.0453747244421
1675.1452941899242 1615.0705289431166
1675.885107548207 1855.2881579390535
1676.6247418545518 1727.9681370777575
1677.3641971555535 1728.9846948844283
1678.1034734977893 1930.0468035544866
1678.8425709278108 1864.9389017573274
1679.5814894921605 1997.9172446965415
1680.320229237359 1821.0288440109168
1681.0587902098978 2015.11299672447
1681.7971724562685 1782.388798752422
1682.5353760229264 1617.7779400180352
1683.2734009563173 1935.9965639249724
1684.0112473028657 1618.3328034282226
1684.7489151089794 1885.7336752930719
1685.4864044210462 1945.4987620267616
1686.2237152854377 1948.692346623601
1686.960847748498 1951.9933755796508
1687.6978018565642 1692.2286928149774
1688.434577655944 1680.6569185535932
1689.1711751929379 1680.7295696664992
1689.9075945138156 1757.782582484866
1690.6438356648396 1796.4583359148237
1691.3798986922448 1468.6080661198798
1692.1157836422499 1613.2540378909262
1692.851490561059 1669.882164098939
1693.587019494853 1793.5285517065477
1694.3223704897991 1526.953943411329
1695.0575435920364 1448.261728607205
1695.792538847696 1504.1377914959303
1696.527356302886 1560.0267696186993
1697.2619960036936 1458.4349325165708
1697.9964579961907 1516.185522526208
1698.730742326432 1310.6301145347727
1699.4648490404488 1437.2385912111981
1700.1987781842563 1555.957287372992
1700.9325298038548 1631.6044631425552
1701.6661039452174 1749.9039342010587
1702.3995006543082 1609.3845975672266
1703.1327199770658 1704.4451485496902
1703.865761959416 1494.7843205775202
1704.598626647261 1725.3633394071226
1705.3313140864866 1480.2393378096122
1706.0638243229587 1507.2944362160622
1706.7961574025303 1636.1625460479734
1707.528313371029 1532.8071516737766
1708.260292274268 1421.830509877172
1708.9920941580403 1553.7365889265002
1709.7237190681226 1517.8386510261926
1710.4551670502697 1502.5095179434543
1711.18643815022 1356.765575934384
1711.9175324136959 1382.345108827232
1712.6484498863938 1407.9845767221425
1713.379190614005 1282.0358219447758
1714.109754642188 1388.3512491003034
1714.8401420165883 1434.7616343293744
1715.570352782839 1501.0488767910933
1716.3003869865497 1567.5136810559964
1717.0302446733076 1457.9631581453536
1717.7599258886876 1500.2874157016017
1718.4894306782444 1715.0309503220026
1719.2187590875183 1349.8063629710484
1719.9479111620203 1711.2474553027528
1720.6768869472544 1341.6280789138923
1721.4056864887025 1723.9017825170533
1722.1343098318284 1828.813185149152
1722.8627570220742 1459.8703686536796
1723.591028104871 1351.522108777141
1724.3191231256242 1233.180865147447
1725.0470421297232 1537.1576520858068
1725.7747851625427 1574.3536681417233
1726.5023522694337 1611.4706510699107
1727.2297434957363 1466.210444048585
1727.9569588867635 1316.9577903351196
1728.6839984878152 1553.640555383572
1729.4108623441734 1545.0532767956843
1730.1375505011038 1536.6053167580783
1730.8640630038426 1327.7473013621284
1731.5903998976264 1386.4385740469972
1732.316561227657 1512.043428759914
1733.0425470391274 1301.5600056016588
1733.7683573772065 1501.169837322193
1734.4939922870508 1443.7230775500777
1735.2194518137949 1541.263953063735
1735.9447360025606 1540.7142088694816
1736.669844898439 1322.798456507869
1737.3947785465189 1345.4542501161727
1738.1195369918605 1291.6628889797778
1738.8441202795093 1465.4416502044317
1739.5685284544943 1499.4000313889114
1740.292761561821 1549.3852924555104
1741.0168196464838 1598.5945902320336
1741.7407027534518 1491.5010741814262
1742.464410927687 1421.8592114376886
1743.187944214118 1417.3894086905123
1743.9113026576688 1430.6484700575843
1744.634486303241 1400.9905892830093
1745.3574951957125 1469.8172248180977
1746.0803293799509 1582.7313565859554
1746.8029889008048 1521.0522110808442
1747.5254738031017 1376.024247168475
1748.2477841316504 1333.400736673036
1748.969919931249 1447.560078731798
1749.6918812466665 1438.9556191769527
1750.4136681226646 1578.2277749914247
1751.1352806039777 1472.105105090469
1751.856718735331 1185.0243776975476
1752.5779825614281 1274.8648803580982
1753.2990721269507 1428.713261754734
1754.0199874765676 1463.0374782563201
1754.7407286549314 1271.3965063737335
1755.4612957066693 1331.2722869916786
1756.1816886763954 1265.4155014759665
1756.9019076087097 1489.2840109770373
1757.6219525481865 1463.024416854186
1758.3418235393856 1495.2609242167978
1759.061520626854 1400.5284656922422
1759.7810438551096 1634.687798516324
1760.5003932686614 1344.6030035894962
1761.2195689119999 1521.6657911478646
1761.938570829594 1397.655570407997
1762.657399065898 1409.4132752853889
1763.376053665348 1248.4631550755817
1764.0945346723602 1181.7310170909263
1764.812842131334 1226.7008385207992
1765.5309760866512 1271.827191099797
1766.2489365826787 1225.6915001628772
1766.9667236637597 1307.3179142880854
1767.684337374223 1103.3242138178298
1768.401777758383 1198.5296681824077
1769.1190448605284 1252.8360492775587
1769.836138724937 1191.6460585606058
1770.5530593958665 1511.8032167623421
1771.2698069175603 1545.2775991997648
1771.9863813342326 1361.0131415169403
1772.702782690094 1259.8265841218245
1773.4190110293293 1496.0591138112536
1774.1350663961111 1419.3083292992303
1774.8509488345844 1286.444879376688
1775.5666583888924 1389.6255077220392
1776.2821951031437 1564.0014127245945
1776.9975590214362 1343.5816213958162
1777.7127501878585 1394.127708459
1778.4277686464684 1425.5783530708288
1779.1426144413108 1422.7015570410524
1779.8572876164162 1553.8552216685448
1780.571788215797 1459.7511018514242
1781.2861162834415 1365.5382345127935
1782.0002718633277 1354.02744586791
1782.7142549994132 1476.9528371188421
1783.4280657356376 1316.3697633933666
1784.141704115922 1296.5758059355126
1784.855170184177 1349.3162584657925
1785.5684639842839 1468.303461670363
1786.2815855601148 1100.668241161119
1786.9945349555237 1540.8001952219806
1787.707312214343 1201.8738043509147
1788.4199173803918 1212.175867681411
1789.132350497468 1222.6011028232438
1789.8446116093583 1222.1949891000982
1790.556700759822 1219.4380397189548
1791.2686179926077 1379.4631963078998
1791.9803633514493 1320.7408430328362
1792.6919368800554 1153.4059550066354
1793.4033386221236 1368.5772426767953
1794.1145686213295 1423.1750823342518
1794.8256269213307 1440.228375526526
1795.536513565774 1386.864910454642
1796.247228598284 1162.8492688801216
1796.9577720624693 1242.0268195565689
1797.6681440019165 1429.7984948296842
1798.3783444602013 1409.8407543508683
1799.0883734808776 1448.2306735561772
1799.7982311074884 1357.255363885879
1800.5079173835475 1389.7309082258555
1801.2174323525633 1436.2011971008237
1801.9267760580187 1382.7313998847899
1802.635948543386 1316.724767628331
1803.3449498521113 1277.0485777860063
1804.0537800276325 1399.4753301206813
1804.7624391133668 1372.1878357458713
1805.47092715271 1112.9067808689738
1806.1792441890484 1258.7105283787992
1806.8873902657433 1461.153467872307
1807.5953654261448 1393.2788441451953
1808.3031697135812 1279.6356472100117
1809.0108031713662 1229.8399600504795
1809.71826584279 1310.5606808238012
1810.425557771141 1362.205029068918
1811.1326789996747 1346.3692097233748
1811.839629571632 1330.4413506336991
1812.5464095302468 1281.9049715098874
1813.2530189187182 1366.7447953415563
1813.959457780249 1290.5436012514276
1814.6657261580076 1437.1912730394429
1815.371824095153 1265.724177631968
1816.0777516348262 1156.39317212381
1816.78350882015 1046.9958655001883
1817.4890956942272 1150.4126102120313
1818.1945123001533 1276.5711177905173
1818.8997586809928 1341.762520097544
1819.6048348798067 1233.5937184930526
1820.3097409396287 1354.9809672891247
1821.0144769034796 1627.420392021686
1821.7190428143622 1368.8719668441368
1822.423438715261 1451.6826174774274
1823.1276646491478 1267.433341706705
1823.8317206589727 1329.1216171277597
1824.5356067876692 1303.412232191998
1825.2393230781581 1332.2838499067896
1825.942869573335 1112.3400543569378
1826.646246316086 1125.190557696555
1827.3494533492758 1311.2892774053428
1828.052490715756 1274.5942301463872
1828.7553584583547 1305.2206419221318
1829.458056619891 1403.2308732381225
1830.1605852431585 1392.7504159469931
1830.8629443709433 1343.5811525473418
1831.5651340460063 1294.4384774216942
1832.2671543110919 1128.1512152141324
1832.9690052089318 1323.590399798913
1833.6706867822395 1080.5067955540176
1834.3721990737104 1339.7050567699098
1835.0735421260233 1413.525776760978
1835.774715981841 1292.2767512195762
1836.4757206838058 1479.4065695733784
1837.1765562745459 1285.6494707568222
1837.8772227966747 1184.2762455159148
1838.5777202927839 1197.8338363313014
1839.2780488054523 1110.1430501701361
1839.9782083772352 1209.6277931094073
1840.6781990506806 1237.9992737620455
1841.378020868313 1266.3701491309193
1842.0776738726418 1339.8134243701634
1842.777158106157 1199.7706319478725
1843.4764736113375 1201.4439929690504
1844.1756204306403 1314.2183225296517
1844.8745986065078 1342.5454096858907
1845.5734081813607 1094.924784806657
1846.2720491976124 1253.8862839030899
1846.970521697649 1173.553559556167
1847.6688257238511 1285.055102768599
1848.3669613185684 1235.577177388238
1849.0649285241452 1123.1618697868407
1849.7627273829057 1296.4510478336665
1850.460357937156 1319.6822799627766
1851.1578202291857 1297.4505354087783
1851.8551143012664 1275.4937908382472
1852.5522401956569 1216.7939420091486
1853.2491979545957 1186.3352451790402
1853.9459876203055 1156.0927020330846
1854.6426092349902 1146.270299211555
1855.3390628408451 1106.4166189545385
1856.0353484800362 1437.5988600959602
1856.7314661947203 1352.331644280144
1857.4274160270397 1144.2808584806344
1858.123198019115 1203.125173355445
1858.8188122130487 1095.03507390489
1859.5142586509319 1264.7867310848073
1860.209537374838 1244.9696026950126
1860.9046484268183 1283.2264769580825
1861.599591848917 1344.0961368851383
1862.294367683151 1112.2723229233598
1862.988975971528 1161.7666786390687
1863.6834167560355 1244.3786551334747
1864.3776900786452 1350.6049766987253
1865.0717959813119 1214.7766417548733
1865.7657345059724 1103.1817243810121
1866.4595056945564 1266.292520767772
1867.1531095889586 1369.4452917526276
1867.846546231076 1124.9951913694626
1868.5398156627743 1400.5898069420273
1869.2329179259123 1246.8495810320856
1869.9258530623283 1278.5890266832048
1870.618621113843 1102.5315811243595
1871.3112221222636 1152.5720711630777
1872.0036561293764 1116.5834438720306
1872.695923176956 1228.17849583454
1873.3880233067594 1162.247149494396
1874.0799565605212 1096.2214713080978
1874.7717229799673 1249.4701106030643
1875.4633226068036 1468.2233961994457
1876.1547554827175 1315.879585583271
1876.8460216493859 1186.2553433989212
1877.5371211484617 1228.7609183030372
1878.2280540215852 1381.890275702519
1878.9188203103804 1074.9304406863366
1879.6094200564548 1275.1022400677587
1880.299853301396 1144.8682073594514
1880.9901200867826 1373.7626525676799
1881.6802204541673 1363.2458407391925
1882.3701544450942 1286.9368606187252
1883.059922101087 1366.109748818453
1883.7495234636517 1105.0095419461181
1884.4389585742792 1193.4740923125833
1885.1282274744517 1122.9915964311238
1885.8173302056166 1191.0576586276848
1886.506266809225 1259.2164154092495
1887.195037326701 1048.4701150650203
1887.8836417994517 1133.18727965325
1888.5720802688702 1325.343776705126
1889.260352776333 1425.6520275417495
1889.9484593632042 1442.8683465005056
1890.63640007082 1106.1554993248553
1891.3241749405151 1081.9399251435884
1892.0117840135954 1258.7715495122754
1892.6992273313572 1182.5601301219626
1893.3865049350788 1106.2136805070757
1894.0736168660223 1476.949491992214
1894.7605631654333 1378.1292933717234
1895.4473438745408 1437.7081993646316
1896.133959034556 1497.2951904655104
1896.820408686679 1406.19023118991
1897.506692872088 1432.3056415461572
1898.192811631945 1167.518696427129
1898.8787650073991 1273.0619217095273
1899.5645530395832 1297.3669961872229
1900.2501757696118 1347.1168479835387
1900.9356332385796 1075.4717092331289
1901.620925487574 1147.9736568847113
1902.3060525576602 1220.6908591770048
1902.9910144898859 1299.079691084597
1903.6758113252872 1149.4967766863704
1904.3604431048789 1250.8517352704232
1905.0449098696663 1385.2600345071162
1905.7292116606295 1175.1713844209696
1906.4133485187394 1318.9287031342021
1907.0973204849488 986.6890315743085
1907.7811276001976 1049.0599626306532
1908.4647699053967 1147.2544393223302
1909.1482474414588 1160.7770710449404
1909.8315602492694 1174.2695704303574
1910.5147083696957 1337.9295303059457
1911.1976918436012 1139.523840668888
1911.880510711815 1168.948909340233
1912.5631650151681 1153.7066160804877
1913.2456547944657 1138.4102635475115
1913.927980090495 1083.882365737373
1914.6101409440362 1031.1240509591225
1915.2921373958416 1269.2103978905702
1915.9739694866603 1172.1782643349438
1916.655637257214 1350.6401896851792
1917.3371407482136 1253.5518092230145
1918.0184800003572 1421.2270774993153
1918.6996550543154 1317.5121274097223
1919.3806659507554 1260.9019377839113
1920.0615127303208 1260.7706537397582
1920.7421954336423 1402.6712612621216
1921.4227141013343 1372.769628599027
1922.103068773993 1299.11587421919
1922.783259492202 1422.608071794628
1923.4632862965227 1264.2671937612988
1924.1431492275078 1164.4722791456518
1924.8228483256917 1127.9822517427804
1925.5023836315922 1071.9104839701004
1926.1817551857057 1179.6045035058637
1926.8609630285227 1287.5160273059728
1927.5400072005123 1283.9378184822299
1928.218887742125 1158.771512584085
1928.8976046938005 1074.656935037658
1929.5761580959588 1349.5639523594023
1930.2545479890086 1242.1688480480418
1930.9327744133352 1249.713887963483
1931.6108374093164 1257.3080405065607
1932.2887370173066 1101.4849886393163
1932.9664732776473 1288.5542773554894
1933.6440462306673 1069.0754644974572
1934.3214559166754 1156.25167917528
1934.9987023759659 1503.778183653129
1935.675785648813 1266.6579681101007
1936.3527057754836 896.3002219457105
1937.029462796223 992.6330902170396
1937.70605675126 1089.1946123698526
1938.3824876808085 1026.6650627404229
1939.058755625072 1246.849397140376
1939.7348606242267 1182.492534727636
1940.4108027184448 1287.8942752450212
1941.0865819478713 1276.0007344622188
1941.7621983526478 1140.660801490227
1942.4376519728921 1004.041595267446
1943.1129428487038 1184.4735103981318
1943.7880710201734 1294.2474680501157
1944.4630365273733 1307.1690525966103
1945.1378394103576 1043.0369890141158
1945.8124797091714 977.1677387742077
1946.4869574638324 911.133538782549
1947.161272714353 1097.2290991216992
1947.8354255007234 1102.5866148212542
1948.5094158629272 1107.9342366823614
1949.1832438409183 1236.6244845770248
1949.8569094746435 1403.304191492961
1950.530412804037 1393.8984787608274
1951.2037538690092 1333.0625248525828
1951.8769327094578 1252.6840055725377
1952.5499493652678 1130.351835856087
1953.222803876306 1297.5605019877655
1953.895496282421 1300.5025154031352
1954.5680266234522 1264.4243550680612
1955.2403949392155 1302.3074371812154
1955.9126012695142 1068.1255934218561
1956.5846456541403 1166.3827970597918
1957.2565281328643 1051.9192014651194
1957.9282487454457 1292.9982770942556
1958.5998075316202 1334.9983926034113
1959.27120453112 1028.754840255309
1959.9424397836501 1166.6782225571485
1960.613513328908 1203.8867650332027
1961.2844252065697 1119.5141184841577
1961.9551754563017 1034.976328825218
1962.6257641177453 1252.8397660022579
1963.29619123054 997.1204469110398
1963.966456834296 1006.6047531801894
1964.6365609686181 1004.2509321534551
1965.306503673086 1037.3123165438128
1965.976284987275 1070.3826367701522
1966.645904950734 1206.9699315427392
1967.315363603002 972.8001768345166
1967.9846609836077 1122.2088120087499
1968.6537971320486 1029.8450113743236
1969.3227720878222 1258.2824674986928
1969.9915858904042 1097.678613413715
1970.660238579252 1319.3719133205445
1971.3287301938108 1220.0611051355922
1971.997060773514 1108.9116635758367
1972.665230357772 1109.5928615069745
1973.3332389859843 1068.810932318738
1974.0010866975335 1077.6154666292537
1974.6687735317864 1167.8271847454255
1975.3362995280932 1185.7204134822975
1976.003664725793 1156.8915126502568
1976.6708691642052 1006.6222952851842
1977.3379128826364 1204.325120806613
1978.004795920373 1358.394729590948
1978.6715183166925 1162.91435312763
1979.3380801108524 967.207166206271
1980.0044813420973 1191.2023637092163
1980.6707220496555 1177.0127874954164
1981.3368022727373 1162.893454851043
1982.0027220505417 1311.7830475028654
1982.66848142225 816.7132451303139
1983.3340804270283 880.5882526677455
1983.999519104027 1203.2553167922765
1984.6647974923835 1211.4987313346633
1985.329915631215 1166.508583251877
1985.99487355963 1209.8732392882728
1986.6596713167146 1301.5741543914673
1987.3243089415428 1058.968398315344
1987.9887864731754 1288.7315844254838
1988.6531039506553 972.9973332675787
1989.3172614130071 964.2351666999859
1989.9812588992481 955.4730479488547
1990.645096448372 810.6454569025921
1991.3087740993633 956.1772779163059
1991.9722918911848 1101.988006944936
1992.635649862792 1224.7499050388944
1993.2988480531185 1168.0405082045684
1993.9618865010852 1124.981638186678
1994.6247652455968 1081.8855702563428
1995.287484325545 1105.4704046761367
1995.9500437798033 1119.9842363897264
1996.6124436472292 1040.6505232773334
1997.2746839666706 1287.2205703592408
1997.936764776954 1118.8974204239034
1998.598686116895 1056.7158209390482
1999.2604480252903 1298.0095881310422
1999.9220505409212 1317.9786956147132
2000.5834937025593 1082.9424589213947
2001.2447775489582 1166.3825334266783
2001.9059021188514 1246.8031308425166
2002.5668674509616 1107.6495697281325
2003.2276735839987 1093.0269335162393
2003.8883205566508 1255.9147970131128
2004.5488084075987 1038.7483332428774
2005.2091371755014 1130.4500204878866
2005.8693068990033 950.1984781259907
2006.5293176167397 1005.8488625931059
2007.1891693673224 1061.6848670813656
2007.848862189354 927.8577166519924
2008.5083961214223 1088.8044958667454
2009.1677712020955 1069.2594737286554
2009.8269874699254 956.0415052971591
2010.4860449634598 918.174088978205
2011.1449437212177 880.2615361344144
2011.8036837817108 1228.5201488325467
2012.4622651834325 1218.786019905961
2013.1206879648653 1159.8007511649225
2013.7789521644736 1009.3218864252594
2014.4370578207036 1246.411156766121
2015.0950049719922 1107.1820742695513
2015.7527936567585 1260.716323808449
2016.4104239134067 1166.4416291082673
2017.067895780323 1487.5568209584412
2017.725209295886 1449.9212948793054
2018.3823644984514 1412.1456670459033
2019.0393614263648 1248.3730240310647
2019.6962001179545 1096.9023388863218
2020.3528806115355 1127.6724972520647
2021.0094029454067 1158.5321563115485
2021.6657671578487 917.7029578711101
2022.321973287133 1104.0163602177615
2022.9780213715148 1138.8301103261363
2023.6339114492293 1059.0385053325608
2024.2896435585026 1218.6411142687014
2024.9452177375442 1160.371744328433
2025.600634024544 1195.1988035667805
2026.2558924576842 1230.1704773601828
2026.9109930751292 1226.88134090058
2027.565935915025 1338.9681445144492
2028.2207210155066 1451.4238804698061
2028.8753484146964 1472.360681298143
2029.529818150695 1433.4154931003595
2030.1841302615903 1394.2516273292895
2030.8382847854573 973.619470185686
2031.4922817603601 1222.2040811110512
2032.1461212243357 1142.727172934401
2032.7998032154192 1095.806840867162
2033.4533277716218 1056.3307382065555
2034.1066949309443 1096.8652290461707
2034.7599047313688 920.7442938066031
2035.4129572108704 1140.4620903822592
2036.0658524074006 1138.0182045356173
2036.7185903589016 1227.0628197757565
2037.3711711032956 1281.005907682334
2038.023594678496 1067.959372914503
2038.675861122394 1104.3808535548592
2039.3279704728757 1271.540033121773
2039.9799227678031 1148.9902883366685
2040.6317180450278 1081.6693282529845
2041.2833563423865 1019.7627401570295
2041.9348376977014 1393.550329071278
2042.5861621487784 1316.2330784652174
2043.2373297334088 1337.8337958635934
2043.8883404893695 1231.051918593873
2044.5391944544208 1236.734485819461
2045.1898916663158 1313.846104847315
2045.8404321627804 1197.416835513477
2046.4908159815368 1080.7057420634114
2047.1410431602853 913.3418880633739
2047.7911137367173 947.4738026105485
2048.441027748504 1015.2350603335055
2049.090785233302 1083.0240716596832
2049.7403862287592 960.0394566019861
2050.389830772503 955.424002139189
2051.0391189021466 950.8311573900266
2051.688250655294 1189.648157081065
2052.337226069527 890.0473447663501
2052.986045182417 1199.0507086436683
2053.634708031521 1232.0678526184993
2054.283214654375 1265.2206380638358
2054.931565088511 992.1427257162811
2055.579759371436 932.026383116569
2056.2277975406523 1131.7159005230383
2056.8756796336384 1040.9319541910652
2057.5234056878617 949.8923910789697
2058.1709757407752 948.0710559980402
2058.8183898298194 1117.1459565506698
2059.465647992416 1286.1873395104692
2060.1127502659747 1275.0351269962512
2060.759696687888 1273.4675679025395
2061.4064872955405 1271.9118194295684
2062.053122126292 1363.9170969872798
2062.699601217497 1222.4934623823615
2063.345924606485 1081.0793454655632
2063.992092330587 1139.297499862444
2064.638104427102 1093.201927613945
2065.283960933324 1299.133659006967
2065.92966188653 1155.4354076380673
2066.5752073239855 1064.4612501663528
2067.2205972829397 1245.667985848534
2067.86583180062 1153.5322213541888
2068.5109109142522 960.6347882227201
2069.15583466104 1158.0070234192567
2069.8006030781708 967.2229351539543
2070.445216202821 1144.2694395143012
2071.089674072153 1345.4053980511778
2071.7339767233116 1406.4568258430165
2072.3781241934303 1164.0915894007364
2073.0221165196253 1164.6542140039812
2073.6659537390024 1037.3472319258015
2074.3096358886505 1251.6091426757757
2074.953163005637 1130.014797242046
2075.596535127028 1019.7423228229836
2076.2397522898664 1077.6366278740484
2076.882814531182 1074.8943731014747
2077.5257218879924 1201.677694268938
2078.1684743973 1092.3265942614944
2078.8110720960885 950.6848041921924
2079.453515021336 1083.3224570694283
2080.095803209997 1216.085013652718
2080.7379366990135 1298.367602141444
2081.37991552532 1212.7610071952804
2082.0217397258275 1334.2073386240215
2082.6634093374414 1249.108378710408
2083.3049243970418 1163.969758486434
2083.9462849415067 1163.540866078802
2084.587491007689 1302.7910422250436
2085.2285426324324 1165.2648371680139
2085.869439852564 1070.3356765992116
2086.510182704902 1003.0331141243893
2087.1507712262483 977.2867512284677
2087.791205453381 1063.849972746432
2088.4314854230743 1213.1454986382598
2089.0716111720867 1087.655952693122
2089.7115827371617 820.2835301876673
2090.351400155023 906.4251039298351
2090.991063462385 992.7659115105185
2091.6305726959527 915.7062482240023
2092.2699278924047 1154.45578881642
2092.9091290884153 1149.8477561926093
2093.548176320641 896.4176472528758
2094.187069625721 1224.8710498888172
2094.8258090402887 885.5063720437954
2095.464394600951 1275.6201625609579
2096.102826344313 1074.0288144731378
2096.741104306955 1285.4939074143476
2097.379228525453 1034.0831979271254
2098.017199036358 1140.6039213842491
2098.6550158762147 1247.3484484487649
2099.2926790815527 1228.654095712977
2099.9301886888825 1187.4562422682231
2100.5675447347076 1082.3018598941142
2101.2047472555114 1053.264997127145
2101.841796287761 1024.168496156876
2102.47869186792 1111.856830713717
2103.1154340324265 936.1210536457891
2103.752022817709 1088.1177880550865
2104.388458260184 1057.1795770210053
2105.024740396251 1102.4354249779103
2105.660869262292 1106.0604680650263
2106.296844894685 1052.3948589062234
2106.93266732978 998.6306445998431
2107.5683366039284 835.8421776327166
2108.2038527534532 1075.3448360605823
2108.8392158146726 1214.66766724487
2109.4744258238843 1015.5656123178411
2110.1094828173755 1004.8337774912923
2110.744386831422 1289.19433628236
2111.3791379022787 1108.76956493648
2112.01373606619 1311.9226130261698
2112.648181359389 1175.7998149376492
2113.28247381809 1216.081063372891
2113.916613478492 1157.0040190022835
2114.550600376786 1203.3281021385862
2115.1844345491445 1007.8524090056601
2115.818116031729 940.8356602988727
2116.451644860679 977.1402680071167
2117.085021072133 1089.6613612260328
2117.718244702204 932.0559460614597
2118.3513157869984 1036.0951299735075
2118.984234362604 884.1752192875003
2119.617000465092 1091.644220338223
2120.249614130529 1257.7914350877559
2120.8820753949585 1127.6759590206086
2121.5143842944162 1012.1038546201974
2122.14654086492 860.8058645062029
2122.7785451424734 1254.821607887572
2123.4103971630702 873.6811248407837
2124.042096962681 1287.295054373512
2124.6736445772767 1349.4031570322861
2125.305040042802 1220.9703403645112
2125.936283395191 1092.1847589276717
2126.567374670365 1226.0914237567902
2127.198313904233 1166.8482878825157
2127.8291011326855 1083.1308004385894
2128.4597363916037 999.1094461579639
2129.0902197168507 1048.471292739423
2129.720551144279 1216.6431599996997
2130.3507307097225 1384.9741565285897
2130.980758449008 1473.0782683604616
2131.6106343979427 1382.9389236402694
2132.2403585923203 1292.626488788174
2132.8699310679276 1249.5956645984793
2133.499351860526 1111.6098171220087
2134.1286210058715 1045.943964030203
2134.7577385397053 1205.8320384115807
2135.3867044977487 1093.9617956852667
2136.0155189157176 1299.227461890649
2136.644181829308 1387.7712430423774
2137.2726932742025 1071.7800178060338
2137.901053286074 974.8217447354461
2138.5292619005777 877.7450878188029
2139.1573191533535 873.4905180641574
2139.7852250800315 1233.8907568411573
2140.4129797162295 1211.1153582071358
2141.0405830975433 918.7354334037261
2141.6680352595613 940.4148019239838
2142.2953362378576 962.1464086231824
2142.9224860679915 990.8776500412565
2143.549484785508 864.121799906797
2144.1763324259373 898.507217017549
2144.803029024799 932.9328340633392
2145.429574617594 1042.8314901733165
2146.0559692398165 1012.5997546246186
2146.682212926942 982.2371828014645
2147.308305714432 1153.2100300145883
2147.9342476377333 1320.5177680966722
2148.5600387322847 1421.8195344956562
2149.185679033506 1450.6924150733719
2149.8111685768017 954.7395336376849
2150.4365073975678 819.0247334289704
2151.061695531187 988.1954926179009
2151.686733013021 1076.652293394001
2152.311619878423 1165.3562934224324
2152.9363561627342 1016.8008727195595
2153.560941901278 947.3478679555635
2154.1853771293663 1139.321846819406
2154.809661882293 1050.381556396827
2155.433796195348 1023.4661973076421
2156.0577801037944 996.3894499460732
2156.681613642895 1296.3990067034965
2157.3052968478896 1047.36868030031
2157.928829754006 1194.4337466181387
2158.552212396462 1203.921840299639
2159.1754448104566 1227.66964365454
2159.7985270311783 948.7586349483812
2160.4214590938027 655.4151518190737
2161.0442410334927 759.1523078097482
2161.6668728853874 868.2858173714405
2162.289354684628 977.6499256581694
2162.911686466332 1070.4056194750578
2163.533868265602 1272.089817328508
2164.1559001175337 1413.1644212587578
2164.7777820572046 1196.3965869398753
2165.399514119681 1135.0229161232064
2166.021096340013 931.928613897805
2166.6425287532384 1411.1541366359552
2167.263811394385 900.9330278790982
2167.8849442984574 1464.4821260837607
2168.505927500455 1077.4402711782473
2169.126761035366 1308.4341208396231
2169.7474449381552 1102.2506779931873
2170.367979243778 1163.2614661527664
2170.9883639871823 1224.4865972544249
2171.608599203293 1001.7599429275893
2172.2286849270276 1467.032245742536
2172.8486211932886 1490.0400474729852
2173.4684080369625 1390.5110999566966
2174.0880454929265 923.9159862206361
2174.7075335960417 859.019481587371
2175.3268723811543 873.9780532188719
2175.9460618831 888.9869687720053
2176.565102136701 1144.715462205479
2177.1839931767627 1105.0592615593598
2177.802735038078 1065.314128169708
2178.421327755432 887.0133704017604
2179.0397713635866 890.8418776016584
2179.658065897298 921.3410528597694
2180.276211391305 1227.1512249925277
2180.8942078803357 1177.7568395317303
2181.5120553991 1204.543881103668
2182.129753982299 922.9560682903896
2182.7473036646206 1060.9140019533213
2183.3647044807367 983.5096231676887
2183.9819564653044 905.9621256685283
2184.599059652968 1071.4241731156687
2185.216014078367 1256.1896682809381
2185.832819776113 1256.3642824061008
2186.4494767808137 1256.467425152777
2187.065985127063 1119.759664088248
2187.682344849436 954.2121724524641
2188.298555982501 1026.252839582308
2188.9146185608097 1098.3521595125126
2189.530532618901 1173.938312076209
2190.1462981912937 1230.6196737731807
2190.761915312507 1151.3864050414018
2191.377384017036 1166.0210702138909
2191.9927043393654 1103.0485522346758
2192.6078763139667 1272.6087519110736
2193.2228999753006 1442.538125233829
2193.837775357808 1210.2465480239437
2194.452502495922 918.6398048734931
2195.0670814240602 1101.7605159790644
2195.6815121766285 886.2236749618756
2196.2957947880186 856.9189799087753
2196.9099292926057 827.5581097475273
2197.523915724758 1175.0054567553507
2198.137754118825 1093.6424998458695
2198.7514445091456 1451.8431336835054
2199.3649869300443 1450.7462625578864
2199.9783814158327 1449.7077576306442
2200.5916280008096 1508.1940214658493
2201.2047267192593 1439.439447801729
2201.8176776054515 1201.348982963656
2202.430480693649 1220.9307115484546
2203.0431360180955 1240.5798952028122
2203.6556436130195 1428.7577181088323
2204.268003512645 750.4121046257203
2204.8802157511727 1064.155978142731
2205.492280362796 1122.3108158047246
2206.1041973816937 1180.662693527
2206.715966842032 1123.5091813859306
2207.3275887779655 1278.1491090046688
2207.93906322363 1132.2169332858884
2208.550390213153 1320.7650680360146
2209.1615697806465 1181.1996289579117
2209.7726019602105 1084.9090843297693
2210.3834867859277 889.5032122863764
2210.9942242918787 1043.9063744255843
2211.6048145121167 1028.8478447835353
2212.2152574806914 1737.3050967489296
2212.825553231638 916.6088086270223
2213.435701798975 1661.1062934599881
2214.045703216707 1097.3674978033812
2214.655557518832 786.5634074347677
2215.2652647393297 828.3791324977198
2215.874824912169 1000.2498809512481
2216.4842380713 1172.6162430826466
2217.09350425067 1104.3596781725662
2217.7026234842033 1372.1211238874314
2218.311595805819 1476.5313070372604
2218.9204212494133 1105.6343258103384
2219.52909984888 1534.3208122856804
2220.137631638092 1456.5331936740486
2220.7460166509154 1378.4921916313735
2221.354254921198 889.4350159721746
2221.9623464827764 1121.329673996774
2222.5702913694713 1123.8055184093967
2223.178089615096 1056.553056455524
2223.7857412534486 989.1756513339893
2224.39324631831 827.3120140624836
2225.000604843457 1109.2140960934387
2225.607816862641 1380.0203400881035
2226.214882409611 1280.0314248600516
2226.8218015180973 1341.673888076249
2227.4285742218217 1080.7878994528962
2228.0352005544864 1188.5169522001074
2228.6416805497847 1137.769976477594
2229.248014241399 1086.9406827855794
2229.8542016629945 878.7985288327485
2230.460242848223 1225.8779448032567
2231.0661378307304 995.1441374698843
2231.671886644139 764.165339533157
2232.277489322065 924.4554199890044
2232.8829458981127 890.1567047761258
2233.48825640587 1107.4818321692205
2234.0934208789095 1202.8223134564935
2234.6984393507955 1298.30909005666
2235.3033118550793 1140.3303686539653
2235.9080384252975 859.6336852676025
2236.5126190949723 990.2190639784305
2237.1170538976166 1042.145002902552
2237.721342866729 907.0127807883131
2238.32548603579 1013.1192278887254
2238.9294834382763 1211.6542287265704
2239.533335107646 1165.7134869547592
2240.1370410773434 1181.296778820439
2240.740601380803 1246.813251356378
2241.3440160514474 1312.4452932654444
2241.9472851226783 1232.6384796650868
2242.550408627896 1329.3140306352643
2243.1533866004793 1327.4931675186529
2243.756219073799 1013.1788860993223
2244.3589060812064 1219.149636027521
2244.961447656049 1169.2932530605917
2245.5638438316564 1119.3730916376044
2246.166094641343 1152.9806697276852
2246.7682001184166 889.0165106606846
2247.3701602961664 984.7681605908796
2247.971975207871 1306.2558289710782
2248.5736448867974 1358.0244947590481
2249.175169366197 1030.732380641181
2249.7765486793123 1086.68844694975
2250.3777828593684 1103.9459489734465
2250.9788719395783 1340.227397698632
2251.579815953146 1135.3450558002394
2252.1806149332606 888.356972749408
2252.781268913097 1193.5077770422938
2253.381777925817 1258.4728227380149
2253.9821420045737 1323.5201402907844
2254.5823611825035 1206.1702651198943
2255.1824354927303 1177.011759937822
2255.782364968365 1004.0524749259805
2256.38214964251 830.8850900824133
2256.9817895482483 902.004691012856
2257.5812847186553 901.2042423359826
2258.180635186791 900.4332904264327
2258.779840985704 992.9215266624802
2259.37890214843 1066.0292542590723
2259.97781870799 1136.2699825365542
2260.5765906973957 1206.645635991015
2261.175218149645 1390.3222503670136
2261.773701097718 1178.5784677703682
2262.3720395745895 939.2265215253801
2262.970233613216 1091.2873569821006
2263.568283246548 1040.6597419398654
2264.1661885075137 974.760369863691
2264.763949429038 922.3814812249914
2265.3615660440246 1303.874899788651
2265.959038385374 990.4752593704786
2266.5563664859637 931.1721023898374
2267.153550378669 871.8246684432777
2267.7505900963424 1243.9132860281618
2268.3474856718312 873.3506778825173
2268.9442371379664 1069.38339809603
2269.5408445275643 1073.5384155162155
2270.1373078734377 966.952991105613
2270.7336272083758 860.1431527141092
2271.32980256516 939.1485208116588
2271.925833976562 1435.232050773539
2272.5217214753357 1301.6562128624357
2273.117465094223 937.3971251238623
2273.7130648659586 896.8065324446392
2274.308520823257 1046.9598729200975
2274.903832998827 1311.395898173144
2275.4990014253563 1072.1235679143895
2276.094026135528 1313.9113910269075
2276.6889071620117 1055.5872602092973
2277.2836445374614 1302.3459983365474
2277.878238294519 1263.1776597856729
2278.472688465812 1058.9613904760147
2279.066995083962 854.4009004497515
2279.6611581815705 1061.2936645021393
2280.255177791232 942.5814238891217
2280.8490539455233 1093.2206570587953
2281.442786677013 1244.1744594271217
2282.0363760182554 1377.5869739749162
2282.6298220017943 1095.473367710316
2283.223124660155 1367.9378982498893
2283.816284025859 960.4843643329874
2284.4093001314086 1328.8441819831817
2285.002173009292 904.833772469944
2285.5949026919952 1284.9798646517118
2286.1874892119777 1162.5719586052307
2286.7799326016993 1148.1666516510106
2287.3722328936 901.0518442483057
2287.964390120109 738.3241390279848
2288.556404313642 1176.7457782664528
2289.1482755066027 1519.7301430716675
2289.7400037313873 948.4155633754405
2290.3315890203703 961.7883852763847
2290.9230314059205 1201.0925371953822
2291.5143309203904 1143.5864099358218
2292.1054875961236 885.0692477277478
2292.6965014654506 1517.873744745902
2293.287372560684 910.561713227629
2293.878100914131 1514.634122296575
2294.468686558086 963.3500332706511
2295.059129524827 1086.8902997104317
2295.649429846617 1248.9093025545847
2296.239587555716 1052.579338311567
2296.8296026843636 1061.6274352639173
2297.419475264791 1045.8773280312432
2298.0092053292137 1030.032983339386
2298.598792909839 1238.8942401796141
2299.1882380388597 1191.8138281992647
2299.777540748455 1138.1741670426295
2300.3667010707904 1084.3893590388989
2300.9557190380256 1245.4568330128197
2301.544594682302 1014.1847386795502
2302.1333280357503 782.6481060719149
2302.721919130485 1014.4751208405745
2303.3103679986198 1688.8061173905492
2303.898674672242 1458.2932652878342
2304.486839183437 1283.9643474310867
2305.0748615642697 1109.4801033223068
2305.6627418468015 1275.2193971359304
2306.2504800630704 911.5660414284296
2306.8380762451143 1151.9536574315948
2307.425530424949 1142.7547300846904
2308.012842634582 1133.525787427024
2308.6000129060103 1340.9040651696155
2309.187041271214 1600.7459754064264
2309.773927762164 1448.8985108424267
2310.3606724108213 1296.732195429145
2310.9472752491274 871.1410651482581
2311.5337363090184 1206.8613968911434
2312.120055622414 1056.360285334416
2312.706233221221 1082.2262981645408
2313.2922691373424 904.9691717837377
2313.8781634026564 995.488796664877
2314.463916049037 1086.2143113976686
2315.049527108342 1228.9432298736024
2315.6349966124235 1350.5839318013288
2316.2203245931123 1233.4736847379668
2316.8055110822315 949.3903628017964
2317.3905561115935 1127.2250370834824
2317.9754597129977 911.8188688545326
2318.560221918229 923.6052274732498
2319.1448427590603 935.4384770212788
2319.729322267256 891.7379454463126
2320.313660474563 919.4293115132901
2320.8978574127195 1086.172908109565
2321.481913113452 1253.4119319430902
2322.0658276084705 981.5375485193896
2322.6496009294806 1175.0646097404492
2323.233233108165 1106.465512783555
2323.8167241762058 1039.3270365555488
2324.4000741652617 1146.4480515227938
2324.983283106987 1075.6988083503716
2325.5663510330232 1267.0601751965576
2326.1492779749933 1036.0743735333224
2326.7320639645204 1035.3878798720111
2327.3147090332004 865.8809671836727
2327.897213212629 1020.1250073749212
2328.4795765343843 1174.5038627831786
2329.0617990300307 767.8854799609187
2329.643880731124 1372.1537173271256
2330.22582166921 966.9037206939062
2330.807621875816 788.9451218070241
2331.3892813824623 610.7705314798247
2331.9708002206517 823.4112091808886
2332.5521784218818 975.3712756950554
2333.133416017634 1127.6815226613794
2333.7145130393765 1043.779115392194
2334.295469518571 1370.312807924669
2334.876285486658 1342.8140533610508
2335.456960975076 1361.3760870682502
2336.037496015242 1380.0031920668791
2336.6178906385667 1083.812818498082
2337.198144876451 1198.1591689745387
2337.778258760278 1254.458620392181
2338.3582323214214 1255.9305207496704
2338.938065591243 1257.3743085985711
2339.517758601087 1410.253188897056
2340.0973113822965 1310.1128679578205
2340.676723966193 1033.7703313954244
2341.255996384094 1280.019095165139
2341.835128667295 1538.860529685747
2342.4141208470883 1414.1192591002696
2342.992972954751 1141.9112658267622
2343.5716850215467 922.0167649497905
2344.1502570787306 1210.136613473687
2344.7286891575386 1001.083887199558
2345.3069812892045 1356.620194348457
2345.885133504944 1507.3350005548416
2346.4631458359618 1026.1125127872954
2347.04101831345 793.3166902714836
2347.6187509685915 1074.5056263160152
2348.196343832553 1120.5123883367037
2348.7737969364935 1002.4952044099795
2349.351110311558 1142.8574404295005
2349.9282839888765 963.5861654196435
2350.5053179995757 815.5972573997606
2351.0822123747585 856.4718031699979
2351.658967145526 936.8720463034433
2352.2355823429643 1017.4622429498901
2352.812057998144 1171.0821073397742
2353.3883941421263 949.1349675133093
2353.9645908059647 1083.748578750382
2354.540648020693 970.4824714360733
2355.116565817336 1109.8760851463417
2355.6923442269126 1249.5889262146127
2356.2679832804224 1206.8085306303851
2356.8434830088518 1052.5183164737052
2357.41884344318 862.4632796099016
2357.994064614377 932.4082169117721
