#exp_cfg={"servo_angle": 0.0, "laser_lim": 100.0, "servo_angle_to": 18.0, "laser_wup": 0.0, "bt_dev": "EnSpectr-25AE3", "laser_wdn_max": 0.0, "frames": 10.0, "servo_used": 0, "servo_calib_use": 0, "laser_wdn_min": 0.0, "servo_pix_from": 90.0, "cooler_tout": 300.0, "servo_angle_from": 0.0, "servo_calib": "[-1.9174921013161362e-09, 3.9322238269163779e-05, -0.27385609119055809, 653.59552119713567]", "laser_autoctl": 0, "servo_pix_to": 3682.0, "laser_pw": 100.0, "cooler_on": 0, "laser_volt": 4.0, "cooler_autoctl": 0, "cooler_curr": 70.0, "cooler_startup": 10.0, "laser_fixed_pw": 0, "gain": 1.3, "offset": 2.53059635486, "servo_calib_degree": 3.0, "laser_curr": 55.0, "shutter": 8200.0, "servo_calib_step": 1.0, "laser_fixed_curr": 0, "exp": 2000.0, "ccd_volt": 4.7, "bt_addr": "00:06:66:62:5A:E3", "servo_delay": 500.0, "laser_autooff": 1}
#proc_cfg={"flat_auto_wnd": 200.0, "flat_auto_fr": 200.0, "flat_auto_shift": 5.0, "yconv": 1, "flatten": 1, "flatten_strength": 100.0, "xfrom": 300.0, "auto_max_frame": 2000.0, "auto_signal": 48000.0, "flat_auto_tol": 0.1, "autoclip": 1, "xrel_range": 0.0, "flat_auto_to": 4000.0, "intensity_adj": 1.0, "xrel": 7852.0, "rmhot": 1, "flat_auto_slit": 4.999999999999997, "auto_ini_exp": 300.0, "auto_off": 0, "xto": 2860.0, "flat_auto_ref": "", "flat_auto_rank": 1, "autobackg": 0, "xrel_adj": 0.0, "auto_black_lvl": 1, "base_wnd": 100.0, "sub_baseline": 0, "xconv": 2, "auto_max_exp": 1000.0, "auto_total_exp": 10000.0, "auto_exp": 0, "rmripple": 0, "black_lvl": 8261.5375, "shutter_clip_adj": 0.0, "auto_bckg": 0, "flat_auto_thr": 0.9, "subbackg": 1}
316.8218498245369 8972.303535127077
317.89969571804795 8773.469042179211
318.977263876126 8783.112193454133
320.05455438786703 8729.78288905184
321.1315673423287 8711.719082111827
322.2083028285215 8688.87948800474
323.2847609354267 8617.486708887362
324.3609417519747 8630.491705155824
325.43684536705587 8555.715475604276
326.5124718695279 8667.281067636719
327.58782134820103 8467.488627361234
328.66289389184385 8569.972201484383
329.7376895891921 8368.637153894824
330.8122085289342 8422.389589770037
331.88645079971866 8439.857307160148
332.9604164901575 8379.213422841045
334.03410568881554 8362.797717571233
335.1075184842266 8430.170523773291
336.18065496487543 8272.020533390783
337.2535152192122 8317.636675827087
338.32609933564163 8375.487725127601
339.39840740253203 8262.411617292837
340.4704395082099 8266.422938246962
341.5421957409617 8237.256928958315
342.6136761890357 8269.117547701002
343.6848809406365 8223.793436055466
344.75581008392874 8149.436210403194
345.82646370703696 8151.8773627593955
346.8968418980512 8115.164546545939
347.96694474501055 8175.206242667441
349.0367723359268 8125.4320353194325
350.106324758759 8118.065644525523
351.1756021014353 7964.968416527976
352.2446044518383 8004.01651937335
353.31333189781435 8128.37990003549
354.38178452716966 8047.864412890815
355.449962427665 8079.771604700172
356.51786568702846 7984.913830903392
357.58549439294256 8064.754005485027
358.6528486330535 8067.93226132855
359.71992849496564 7993.124075790023
360.7867340662433 8012.505154866625
361.8532654344144 8037.4657542584855
362.9195226869597 8105.725930891524
363.9855059113288 7997.9743930573
365.05121519492604 7945.187033149035
366.11665062511565 8091.9479284108265
367.1818122892273 7997.4440280002045
368.2467002745434 8074.867095269756
369.31131466831175 8065.062277047527
370.375655557742 7976.985316677409
371.4397230299983 8000.2867153372135
372.5035171722102 8085.422381984192
373.5670380714637 8009.959891875827
374.6302858148101 8079.954844964438
375.6932604892554 8087.268182274903
376.7559621817709 8035.223350187589
377.81839097928605 7965.96003870002
378.8805469686886 7983.269443751642
379.94243023683157 8117.583698424585
381.0040408705263 8045.36340850232
382.0653789565458 7882.624284656928
383.1264445816196 7888.183666845162
384.1872378324406 7895.8404732532435
385.2477587956637 7962.98857319753
386.3080075579037 7843.167849240602
387.3679842057336 7783.453641988175
388.4276888256918 7873.65553022431
389.48712150426945 7839.929783059133
390.54628232792857 7770.8325695448775
391.6051713830857 7720.206995664577
392.66378875611736 7805.074318609154
393.7221345333637 7759.793140733484
394.7802088011249 7670.744140613315
395.838011645661 7801.402287380707
396.89554315319765 7701.5298967331055
397.9528034099112 7628.027988406449
399.00979250194723 7673.50108279292
400.06651051541485 7620.16665358418
401.1229575363741 7687.262984920984
402.17913365085224 7531.8487166186505
403.23503894483656 7639.226981279756
404.2906735042761 7578.383958626267
405.3460374150818 7481.99126834528
406.401130763119 7557.101144986669
407.455953634224 7555.362430528512
408.5105061141876 7537.3916315870065
409.56478828876243 7407.498775531832
410.6188002436629 7388.418110104596
411.6725420645689 7366.904766173415
412.72601383711117 7379.199903086735
413.77921564689314 7426.608302618636
414.8321475794728 7373.228944639826
415.88480972036814 7325.590681262356
416.93720215506437 7411.280623276533
417.9893249690049 7267.5289809012875
419.04117824759123 7305.436636399322
420.09276207619223 7274.889297412272
421.144076540133 7261.862582522599
422.1951217247042 7285.990116045019
423.24589771515275 7281.750152725374
424.2964045966928 7214.909572061779
425.34664245449494 7275.3464262366515
426.3966113736933 7222.790120391871
427.4463114393875 7172.939722073128
428.49574273662984 7188.293609844819
429.5449053504417 7091.0261164877575
430.5937993658026 7217.899921174401
431.6424248676558 7125.838295154135
432.6907819409007 7066.025378144352
433.73887067040596 7172.327471697342
434.7866911409965 7144.522731468203
435.8342434374608 7148.443680778872
436.88152764455117 7152.159713617491
437.9285438469724 7090.2780547492075
438.9752921294057 7016.438392926642
440.02177257648145 7029.754362277604
441.06798527279716 6991.0707058735425
442.1139303029122 7105.73638839271
443.1596077513459 7054.786866899762
444.2050177025794 7015.329691458889
445.25016024105753 7009.311401450788
446.2950354511886 6994.241466872013
447.33964341733736 7041.072030014943
448.383984223834 7005.021444441682
449.4280579549686 6897.8155096785395
450.471864694995 6939.128482495566
451.5154045281306 6987.820770127291
452.5586775385509 6971.696060786965
453.60168381039693 6947.041474376175
454.64442342776783 7053.664989617762
455.6868964747264 6974.411379393989
456.7291030353008 6949.629609458532
457.77104319347563 7042.766249401326
458.8127170332027 6929.118188601749
459.854124638392 6987.700162159244
460.895266092919 7062.006034194169
461.93614148061897 7039.881748020091
462.97675088529104 7042.220758218519
464.01709439069236 6978.7367116169935
465.0571720805492 6966.405016861232
466.0969840385442 7041.823642874629
467.1365303483253 7138.507947013571
468.17581109350067 7043.3798595263725
469.2148263576437 7007.003575898632
470.2535762242878 6995.753378249756
471.29206077693016 7110.494590026734
472.33028009902773 7159.328507750259
473.3682342740012 7127.754871937561
474.40592338523857 7112.462752165551
475.4433475160804 7127.800033468584
476.4805067498364 7175.926964422948
477.51740116978 7184.344136267498
478.5540308591426 7247.209551483089
479.59039590112116 7337.101611195738
480.6264963788726 7367.097361845287
481.6623323755193 7406.230766522194
482.6979039741436 7479.9905418515245
483.7332112577915 7653.677001856056
484.76825430947247 7720.45534777807
485.80303321215797 7656.4982646198205
486.837548048783 7785.081468286866
487.8717989022425 7879.7885473328015
488.90578585539697 7871.299389573464
489.9395089910686 7947.62177124373
490.97296839203955 7835.513404116985
492.00616414106116 7746.192967740043
493.0390963208429 7802.583552484111
494.0717650140559 7779.774642277705
495.10417030333883 7638.221707066996
496.1363122712901 7607.190460040892
497.16819100046814 7488.570386764741
498.1998065734024 7338.112067395918
499.2311590725767 7366.118150772473
500.26224858044407 7240.787230938497
501.2930751794156 7185.0870567847505
502.3236389518679 7175.722674638378
503.35393998014115 7045.256852819197
504.38397834653733 6969.74539466114
505.4137541333221 7059.739353678284
506.4432674227228 6888.498268960202
507.4725182969323 6937.653331800105
508.5015068381035 6913.424604273107
509.53023312835467 6907.108169338762
510.55869724976765 6864.488107839978
511.58689928438434 6843.54021477169
512.6148393142121 6776.058320886744
513.6425174212218 6915.997139408815
514.6699336873462 6837.510260752536
515.6970881944835 6890.814171496623
516.7239810244901 6779.695022059427
517.7506122591931 6836.109107090497
518.7769819803761 6744.047952566179
519.8030902697901 6801.128582640408
520.8289372091476 6845.429991858703
521.8545228801249 6894.699818934588
522.8798473643619 6836.4158402550875
523.9049107434621 6780.7248643835865
524.9297130989908 6863.455989162588
525.9542545124805 6832.286241837168
526.9785350654201 6790.037430113916
528.0025548392696 6782.049203003626
529.0263139154504 6781.405800206255
530.0498123753423 6859.017175493527
531.073050300296 6795.53217650562
532.0960277716204 6677.346246629793
533.1187448705896 6745.924615546374
534.1412016784416 6734.568646618811
535.1633982763833 6677.150058659556
536.1853347455726 6657.966075061044
537.2070111671401 6625.634962876439
538.2284276221817 6640.040308764556
539.2495841917516 6554.807997442404
540.2704809568677 6464.235101365293
541.2911179985167 6552.519667093389
542.3114953976419 6502.691225244722
543.3316132351592 6468.8216529443025
544.3514715919409 6417.898718218151
545.3710705488247 6417.584614290845
546.3904101866156 6404.468865662963
547.4094905860784 6374.493325743916
548.4283118279418 6391.523986642642
549.4468739929034 6393.137676231128
550.4651771616191 6380.106267532233
551.4832214147063 6272.665011319363
552.501006832761 6377.1325431265295
553.5185334963226 6326.8663097993285
554.5358014859103 6341.888422634851
555.5528108820035 6382.692865653401
556.5695617650363 6281.505010657767
557.5860542154242 6382.071152278827
558.6022883135283 6357.00540183417
559.6182641396881 6284.6598506028295
560.6339817741991 6368.274154520213
561.6494412973225 6339.327236810148
562.6646427892883 6440.864137823914
563.6795863302796 6333.072771141671
564.694272000459 6275.082169794036
565.7086998799423 6389.277907206006
566.7228700488104 6317.56033641177
567.7367825871115 6305.777575264861
568.7504375748576 6302.625637661144
569.7638350920224 6304.1090246081585
570.7769752185486 6348.20098578805
571.7898580343353 6397.922954225586
572.802483619258 6313.813279437015
573.8148520531431 6444.409194740315
574.8269634157932 6437.686604946214
575.8388177869692 6349.397312426978
576.8504152463938 6424.19193758648
577.8617558737587 6492.700547249397
578.8728397487175 6443.708334664994
579.883666950891 6452.428218484393
580.8942375598654 6580.018110367911
581.9045516551851 6570.448605477507
582.9146093163617 6741.069083807396
583.924410622878 6613.446162890362
584.9339556541727 6704.16361379946
585.9432444896538 6746.42906863025
586.9522772086875 6645.754332328285
587.9610538906127 6763.535020966852
588.9695746147318 6723.80131835723
589.9778394603054 6728.658557608802
590.985848506567 6627.186039431132
591.9936018327098 6622.728430505156
593.0010995178891 6417.230363912014
594.0083416412344 6568.702019929204
595.0153282818283 6385.383282671333
596.0220595187293 6346.955151789941
597.0285354309508 6317.652310243311
598.0347560974806 6318.002227848101
599.0407215972609 6266.965412415222
600.0464320092051 6234.616288075007
601.0518874121954 6293.262891260138
602.0570878850685 6246.840671929956
603.062033506636 6252.869676297568
604.0667243556636 6224.413308244901
605.0711605108936 6153.753814943763
606.0753420510264 6420.617556627086
607.0792690547278 6258.212606891305
608.082941600629 6175.688134824553
609.0863597673306 6306.104091159438
610.0895236333909 6314.607313045905
611.0924332773357 6452.084468167979
612.0950887776617 6277.930186398841
613.0974902128219 6404.016800863327
614.0996376612384 6516.696579582245
615.1015312013005 6602.068936574547
616.1031709113595 6623.671658245248
617.1045568697336 6585.6198972731845
618.1056891547069 6662.635020163469
619.1065678445229 6731.997760150024
620.1071930173985 7020.166521386275
621.1075647515099 7063.674588064314
622.1076831250048 7064.112187580215
623.1075482159849 7190.791969094074
624.1071601025305 7177.312167285498
625.1065188626781 7292.012792937324
626.105624574433 7478.485607471732
627.1044773157682 7559.140046517568
628.1030771646128 7543.564741878659
629.1014241988742 7724.211526576475
630.0995184964158 7791.261540633005
631.0973601350688 7826.176050127246
632.0949491926294 8006.985871926922
633.0922857468631 7839.537962128442
634.089369875499 7896.12768726079
635.0862016562278 7851.515442802726
636.0827811667077 7713.8844124761745
637.0791084845641 7779.919674144553
638.0751836873878 7572.615448532732
639.0710068527369 7712.275381448082
640.0665780581294 7397.596771664427
641.0618973810506 7379.201673458656
642.0569648989604 7423.006529395639
643.0517806892676 7125.1460072164
644.0463448293649 7162.410029149764
645.040657396592 7109.555738170483
646.0347184682723 6958.630044786516
647.0285281216875 6835.841926170733
648.0220864340772 6774.320921795409
649.0153934826558 6675.112663063931
650.0084493446047 6619.2566541854085
651.0012540970674 6577.617075256251
651.9938078171526 6558.565596711063
652.9861105819346 6498.006220077775
653.9781624684565 6525.7903733629655
654.9699635537254 6395.348866801556
655.9615139147136 6422.934748368316
656.9528136283589 6284.50879470421
657.9438627715699 6348.866676415189
658.9346614212154 6305.902044171943
659.925209654135 6122.624124463882
660.9155075471263 6189.486648715418
661.9055551769616 6133.186436944145
662.895352620375 6275.367249880818
663.8848999540678 6119.080828120395
664.8741972547068 6004.549060694526
665.863244598926 5990.385073519036
666.8520420633213 6033.021250506759
667.8405897244611 5878.659994801169
668.8288876588758 5818.951627618941
669.8169359430613 5947.861145080998
670.8047346534822 5909.058787315107
671.7922838665672 5800.401906484472
672.7795836587156 5857.1098258570555
673.766634106285 6036.528341150401
674.7534352856092 5795.275737385291
675.7399872729766 5841.247441985341
676.7262901446538 5846.235148522773
677.712343976862 5809.764398289554
678.6981488457986 5923.790550848648
679.6837048276229 5719.920091231163
680.6690119984596 5865.032021642402
681.6540704344043 5806.238693975421
682.6388802115107 5797.261282229616
683.6234414058108 5760.659400053471
684.6077540932874 5716.124753314968
685.591818349907 5716.967641021618
686.575634251587 5719.186006696869
687.5592018742263 5702.953542298861
688.5425212936734 5596.049598282028
689.5255925857564 5734.616349087786
690.5084158262707 5683.320536174838
691.4909910909646 5682.203077460499
692.4733184555644 5627.561734197823
693.4553979957618 5706.005919299729
694.4372297872123 5614.581619679743
695.4188139055404 5650.807251180636
696.4001504263324 5540.426177151037
697.3812394251509 5707.551303940064
698.3620809775111 5610.307187962189
699.3426751589104 5618.5006021683475
700.3230220448004 5543.2054070173335
701.3031217106054 5573.801606697821
702.2829742317172 5776.82799308441
703.2625796834873 5493.338242533554
704.2419381412474 5517.769992070647
705.22104968028 5644.913875706943
706.1999143758458 5572.858909047741
707.178532303169 5577.329732725814
708.1569035374378 5652.298346055177
709.1350281538107 5740.182029540629
710.1129062274158 5628.493742046112
711.0905378333373 5797.605884285486
712.0679230466376 5756.106352805001
713.0450619423427 5895.5639290668
714.0219545954424 5983.779535175467
714.9986010808989 5883.66511642949
715.9750014736292 5960.112776437347
716.9511558485392 6044.633326642822
717.9270642804786 6180.9602620456035
718.9027268442787 6281.722973098782
719.8781436147328 6272.751222358114
720.8533146666014 6237.166315149887
721.828240074612 6285.327032425778
722.8029199134635 6241.303777223307
723.7773542578125 6254.029589499043
724.751543182294 6140.277082512838
725.7254867615029 6188.07549338422
726.6991850700015 6001.793562509872
727.6726381823228 6005.993408563767
728.6458461729599 6016.660950639574
729.6188091163858 5923.588322737938
730.5915270870246 5904.152624325528
731.5640001592856 5882.357234372457
732.536228407529 5879.115387002015
733.5082119060917 5835.504538151074
734.4799507292755 5814.957163720674
735.4514449513481 5816.3760590277525
736.4226946465496 5874.214222703078
737.3936998890786 5932.642593797011
738.3644607531078 5743.330726183828
739.3349773127793 5777.95489917483
740.3052496421951 5770.337928078721
741.27527781543 5633.583055606492
742.2450619065221 5605.0610151476285
743.2146019894826 5659.9011011595485
744.183898138288 5628.7920139805
745.1529504268801 5563.472757751409
746.1217589291682 5449.830373510352
747.0903237190341 5532.177386455637
748.058644870318 5466.10087745741
749.0267224568397 5394.113283596074
749.994556552374 5239.38557792573
750.9621472306771 5387.370820844219
751.9294945654583 5384.798278242981
752.8965986304011 5423.732539775908
753.8634594991636 5296.612763905688
754.8300772453586 5401.265446980951
755.7964519425768 5273.654277975493
756.762583664371 5441.757227476852
757.7284724842611 5388.0823010872
758.6941184757416 5303.539760515633
759.6595217122667 5361.357694200383
760.6246822672638 5372.271857760015
761.5896002141235 5113.371736555488
762.5542756262093 5323.397483818961
763.5187085768503 5291.923188418284
764.4828991393406 5317.605427774171
765.4468473869474 5327.908694534901
766.4105533929032 5389.1419358995245
767.3740172304078 5222.675066549861
768.3372389726283 5364.889887659113
769.3002186926988 5233.996899816575
770.2629564637282 5206.410588771617
771.2254523587872 5121.434179442036
772.1877064509154 5187.506304466266
773.1497188131179 5019.857971927597
774.1114895183728 5043.706423328979
775.0730186396268 5080.811083945716
776.0343062497905 5067.167709219844
776.9953524217381 5017.267244262926
777.9561572283274 5062.816382806107
778.9167207423689 5064.4940554582445
779.8770430366476 4922.61691594446
780.8371241839159 4957.3056863855445
781.7969642568951 4991.374842503805
782.7565633282757 5140.1718621908385
783.7159214707099 4999.727856319888
784.6750387568281 5065.542430045765
785.6339152592227 5012.3092026300965
786.5925510504512 4944.6296274651595
787.5509462030477 5099.245866338033
788.5091007895098 5009.43463438389
789.4670148823006 5028.123543174081
790.4246885538596 4940.581350933247
791.3821218765861 4996.763949828556
792.3393149228505 4857.651158684703
793.2962677649975 5034.558726308072
794.2529804753303 5027.291103946987
795.20945312613 5044.411986673125
796.1656857896378 4949.383601982941
797.1216785380675 4932.531580838832
798.0774314435985 5027.4228145217185
799.0329445783846 5146.011714718787
799.9882180145414 5169.81614234608
800.9432518241574 5050.775758315068
801.89804607929 5184.986238184177
802.852600851962 5252.4914088554015
803.8069162141637 5187.223075948359
804.760992237856 5313.973481600298
805.714828994971 5309.311504360894
806.6684265574077 5325.696928747456
807.6217849970271 5221.873084432807
808.574904385674 5227.401609077307
809.527784795142 5313.698713590265
810.4804262972102 5458.10939731402
811.4328289636178 5202.555282180452
812.3849928660748 5146.041746477227
813.3369180762638 5139.01518524868
814.2886046658241 5215.888866020988
815.2400527063783 5035.920988456273
816.1912622695108 5060.894258779724
817.1422334267718 5122.147768792131
818.0929662496856 4956.648666546553
819.0434608097457 4867.279134164798
819.9937171784059 4952.411776816016
820.9437354271013 4863.239668835548
821.8935156272255 5009.619825178606
822.8430578501484 4827.810194819442
823.7923621672016 4724.903381735603
824.7414286496896 4793.86511812721
825.6902573688876 4823.6448708449725
826.6388483960363 4802.071958922464
827.5872018023492 4734.235474863572
828.5353176590033 4827.914983487635
829.4831960371503 4686.785903967693
830.4308370079016 4683.454674399376
831.3782406423525 4728.962751992986
832.3254070115545 4710.27640976464
833.2723361865319 4629.99130472031
834.2190282382799 4614.125384866962
835.1654832377644 4666.852581888959
836.1117012559116 4506.9033158006705
837.0576823636256 4747.161716175111
838.003426631778 4643.167404952371
838.9489341312074 4528.9558108182155
839.8942049327197 4671.430268063954
840.8392391070975 4702.865624042965
841.7840367250865 4603.157579258421
842.7285978573982 4604.886788184401
843.672922574724 4689.885010252741
844.6170109477152 4556.97736334166
845.560863046996 4571.597510877977
846.5044789431595 4601.1436107047175
847.4478587067697 4553.3413289119735
848.3910024083561 4766.313141583959
849.333910118421 4561.2012350769555
850.2765819074339 4522.539647890821
851.2190178458332 4693.149221271476
852.161218004032 4692.449826314965
853.1031824524016 4677.366445383761
854.0449112612987 4640.0834915237965
854.9864045010327 4723.358242118433
855.9276622418947 4638.906141831871
856.8686845541379 4705.283449587447
857.8094715079915 4701.076935483087
858.7500231736467 4818.436085371789
859.690339621271 4745.158258934027
860.6304209209939 4734.396980377025
861.5702671429244 4628.859790348146
862.5098783571284 4706.566002018236
863.4492546336569 4729.790553030075
864.3883960425155 4611.085774253692
865.3273026536863 4692.611315469192
866.2659745371238 4532.254625892006
867.2044117627465 4824.0257225819205
868.1426144004472 4672.948575072593
869.0805825200823 4776.131779868522
870.0183161914847 4701.055715420282
870.9558154844526 4825.845340553617
871.8930804687552 4825.495140501322
872.8301112141307 4679.0951120197815
873.7669077902865 4808.944625815948
874.7034702669062 4975.617272497935
875.6397987136315 4861.879502269702
876.5758932000863 4900.609368184729
877.5117537958522 4961.381573452212
878.4473805704911 4885.034217149959
879.3827735935283 4936.673114687472
880.3179329344603 4976.730578283641
881.2528586627541 4982.656787457595
882.1875508478479 5037.768813621215
883.1220095591489 5001.303225391191
884.0562348660296 4918.184234163126
884.9902268378391 4957.474271506633
885.9239855438955 4903.930135947509
886.8575110534839 4832.027556991522
887.7908034358588 4973.619307662472
888.7238627602474 4877.297100585793
889.6566890958475 4978.798305524337
890.5892825118208 4700.246648527728
891.5216430773125 4847.73497769367
892.4537708614189 4814.9952868154205
893.3856659332196 4708.887401454105
894.3173283617652 4732.48399208827
895.2487582160684 4772.7273479141
896.179955565116 4681.299682702931
897.110920477864 4581.5181148272495
898.0416530232451 4636.865912789186
898.9721532701478 4550.676724072761
899.9024212874428 4655.890167383798
900.8324571439662 4515.201723080387
901.7622609085302 4519.056977613001
902.6918326499072 4485.420047982209
903.6211724368477 4541.710144529067
904.5502803380696 4675.645854373379
905.4791564222614 4639.109491590622
906.4078007580792 4455.337872424634
907.3362134141571 4471.659087054128
908.2643944590909 4678.910822679626
909.1923439614493 4456.584935316636
910.1200619897754 4552.871314728907
911.0475486125779 4662.997275873366
911.9748038983344 4534.366982163596
912.9018279155007 4530.636100626804
913.8286207324982 4386.36732815956
914.7551824177117 4543.485052218492
915.6815130395116 4462.0093727558415
916.6076126662283 4355.099947940648
917.533481366163 4406.518462381773
918.4591192075914 4511.578125971249
919.3845262587565 4512.530275790579
920.3097025878706 4415.287244874894
921.2346482631237 4435.722529689214
922.1593633526682 4438.682831539942
923.0838479246304 4493.8772154155195
924.0081020471061 4551.846039630717
924.9321257881656 4318.816167802936
925.8559192158464 4457.7920391575935
926.7794823981512 4281.5614160320665
927.7028154030686 4329.036536564821
928.6259182985414 4337.853087535516
929.5487911524906 4486.301207495429
930.4714340328119 4444.893036116969
931.3938470073608 4214.983338430986
932.3160301439748 4298.958574717907
933.2379835104548 4356.456462003598
934.1597071745709 4427.227165494456
935.0812012040769 4383.280024136106
936.002465666681 4405.056685851002
936.9235006300696 4382.242818975972
937.8443061619055 4402.097926685175
938.7648823298077 4278.477268402223
939.6852292013809 4304.24377121461
940.6053468441951 4358.726746628772
941.5252353257874 4165.47836065511
942.4448947136698 4294.31499438836
943.364325075323 4309.5917316287905
944.2835264782043 4293.705003304946
945.2024989897309 4279.85221319381
946.1212426773054 4347.260113234313
947.0397576082851 4378.734120586921
947.9580438500125 4465.495545275944
948.8761014697939 4411.790810088779
949.7939305349064 4432.750874743665
950.7115311125999 4280.924975930856
951.6289032700952 4307.841434420184
952.5460470745875 4448.61134503891
953.4629625932339 4252.471914019335
954.3796498931715 4431.423501869638
955.2961090415029 4429.228362785615
956.2123401053068 4361.6555660957765
957.1283431516276 4390.162895141221
958.0441182474842 4297.633250967501
958.9596654598663 4411.158668138212
959.8749848557309 4395.397054271469
960.7900765020167 4310.327232525076
961.7049404656209 4273.8751828128825
962.6195768134185 4368.626611077629
963.5339856122537 4309.679994357315
964.4481669289453 4414.0001249631705
965.3621208302793 4277.622581579248
966.2758473830145 4186.491305518148
967.1893466538822 4487.80592549052
968.1026187095813 4260.185027361827
969.0156636167867 4248.921937243594
969.9284814421426 4394.201275737823
970.8410722522622 4248.008800634501
971.753436113735 4301.412531386745
972.6655730931161 4290.722185600849
973.5774832569368 4294.335288520581
974.4891666716958 4245.601286197866
975.4006234038698 4106.667309785683
976.3118535198955 4174.996243701176
977.2228570861935 4306.117261144178
978.1336341691494 4300.838697217614
979.0441848351202 4095.41890233086
979.9545091504333 4305.400747693997
980.864607181391 4305.4420939362335
981.7744789942699 4312.877500338973
982.6841246553086 4200.814086212174
983.5935442307236 4266.988874652268
984.5027377867027 4254.757963902983
985.4117053894024 4264.020902536592
986.3204471049557 4196.441168361562
987.2289629994648 4292.203781888622
988.1372531390007 4401.96650610882
989.0453175896091 4317.9133449703195
989.9531564173067 4358.026424461139
990.860769688079 4246.412849398265
991.7681574678918 4250.985280624344
992.6753198226706 4400.77634763367
993.582256818323 4183.378679168124
994.4889685207218 4293.705324404979
995.3954549957143 4433.090829958172
996.301716309119 4451.2722023883125
997.2077525267232 4343.258631581564
998.1135637142943 4277.1019567865405
999.0191499375615 4420.80736968351
999.924511262232 4481.1216136389185
1000.8296477539861 4419.552158256962
1001.7345594784656 4361.158230690694
1002.6392465012996 4263.672206442121
1003.5437088880753 4502.783790238904
1004.4479467043584 4423.48355616578
1005.3519600156869 4242.352794316217
1006.2557488875718 4403.43674899245
1007.1593133854858 4434.171435067279
1008.0626535748888 4315.334697568024
1008.9657695212009 4270.44825772402
1009.8686612898182 4525.565594927745
1010.7713289461135 4498.478137124049
1011.6737725554212 4363.669733709793
1012.5759921830577 4372.07577163199
1013.4779878943027 4339.454371764246
1014.379759754418 4388.018717183555
1015.2813078286254 4318.553205775502
1016.18263218213 4292.750169466282
1017.0837328801026 4263.620935030767
1017.9846099876886 4391.965575419386
1018.8852635700023 4264.284339243559
1019.7856936921362 4198.341387747451
1020.6859004191447 4386.068793718552
1021.5858838160675 4204.418883990489
1022.4856439479063 4208.5122309657145
1023.3851808796389 4062.902178120493
1024.2844946762143 4292.666528479129
1025.183585402554 4215.080491779696
1026.082453123554 3985.4487366196568
1026.9810979040776 4238.344920683889
1027.8795198089647 4024.7148260866243
1028.777718903024 4193.285107449277
1029.6756952510368 4091.1993450471637
1030.5734489177648 4109.771671435376
1031.4709799679313 4026.316024190922
1032.3682884662358 4248.747850239725
1033.2653744773506 3962.873835426034
1034.1622380659192 4032.3488144367357
1035.058879296559 4166.29470815224
1035.9552982338591 4191.612337281871
1036.8514949423825 4150.833914108909
1037.7474694866614 4099.47180559419
1038.6432219312028 4002.2953160703473
1039.5387523404825 4261.741434191738
1040.4340607789582 4178.238693285657
1041.3291473110476 4189.364464977217
1042.2240120011465 4220.658148311564
1043.1186549136273 4242.915286300473
1044.0130761128294 4208.261820809501
1044.9072756630649 4220.902733717237
1045.8012536286205 4318.8010392538245
1046.6950100737577 4350.1164831565775
1047.588545062701 4478.838405234399
1048.481858659663 4374.038738845817
1049.3749509288118 4414.754980408869
1050.2678219343034 4334.593586166773
1051.1604717402515 4422.775860653399
1052.0529004107575 4310.908385648108
1052.9451080098825 4409.038431776168
1053.8370946016694 4348.249516717426
1054.7288602501267 4444.476548614379
1055.6204050192446 4305.315524833623
1056.511728972977 4350.192182374099
1057.402832175254 4312.111393728167
1058.2937146899785 4180.473496177217
1059.1843765810263 4235.922594048896
1060.0748179122456 4339.503312860289
1060.9650387474576 4317.552725617928
1061.855039150456 4229.044946655811
1062.7448191850071 4306.230325910632
1063.6343789148505 4252.3202040920305
1064.5237184037014 4396.766037952573
1065.412837715241 4166.810935753676
1066.3017369131267 4115.348030354585
1067.190416060992 4109.693182520108
1068.0788752224398 4075.8879390319744
1068.9671144610438 4110.103871300865
1069.8551338403558 4273.74922457849
1070.7429334239023 4202.528751789298
1071.6305132751695 4029.414723750233
1072.517873457633 4230.807633866692
1073.4050140347335 4062.700072879511
1074.2919350698776 4171.901885189972
1075.1786366264623 4051.8120318314714
1076.0651187678395 4131.888232752919
1076.95138155735 3992.466345090333
1077.8374250582929 3953.751266438366
1078.7232493339507 4126.453426322597
1079.608854447577 4012.050232007035
1080.4942404623907 4027.4235991648648
1081.3794074415982 3965.7709237494464
1082.2643554483657 4131.303439676476
1083.149084545841 4021.8733502558453
1084.033594797138 3903.764819347164
1084.9178862653516 3929.846917880356
1085.8019590135427 4081.2175421936818
1086.6858131047484 3855.1471267065076
1087.5694486019802 4012.8690423940607
1088.4528655682225 3996.5592297476296
1089.3360640664287 4142.673810707473
1090.2190441595321 4017.846687148981
1091.1018059104317 4051.607550634232
1091.98434938201 4047.2208019803015
1092.866674637111 4188.879993589806
1093.748781738559 3993.581066300233
1094.6306707491512 3946.7446546495885
1095.5123417316554 4045.1792816428206
1096.3937947488157 3990.022676012736
1097.2750298633455 3932.682352209636
1098.156047137938 3936.8361517320313
1099.0368466352556 3921.481105830585
1099.9174284179317 4164.766595549014
1100.7977925485757 3829.4123565557143
1101.6779390897755 3902.5736461349697
1102.5578681040806 3940.127983962318
1103.4375796540226 3933.5325676754655
1104.3170738021054 3885.4004841280193
1105.1963506108077 3716.5663085614237
1106.0754101425773 3724.7064090479334
1106.9542524598382 3897.6272329647045
1107.8328776249855 3807.81341598647
1108.7112857003904 3807.186125751106
1109.5894767483987 3780.4792047294186
1110.4674508313292 4000.820043802699
1111.3452080114657 3801.799396635266
1112.2227483510815 3907.247287479283
1113.1000719124077 3957.830232674238
1113.9771787576592 3907.3390331939845
1114.854068949022 3870.9840075326683
1115.7307425486542 4081.0543743869457
1116.6071996186893 4053.4700615490174
1117.483440221229 4209.21025675376
1118.3594644183577 3936.3804657143955
1119.235272272128 4105.797480560648
1120.1108638445658 4121.7089057849025
1120.9862391976712 4322.824964377648
1121.8613983934229 4208.004092654004
1122.7363414937627 4309.562999464821
1123.6110685606182 4285.225265689543
1124.485579655884 4508.693568513393
1125.359874841426 4401.334961792473
1126.2339541790916 4391.288446620221
1127.1078177306936 4625.747326099167
1127.9814655580267 4421.898587541917
1128.854897722851 4507.180314704292
1129.7281142869106 4440.592154650763
1130.6011153119125 4535.182188612363
1131.473900859548 4716.593295730541
1132.3464709914697 4516.323129714876
1133.2188257693178 4547.506602270008
1134.0909652546961 4435.749965030873
1134.96288950919 4355.387650070963
1135.8345985943506 4468.517518752217
1136.7060925717087 4243.419230936189
1137.57737150277 4378.020384731065
1138.4484354490069 4448.6750066928835
1139.3192844718778 4260.0389067265605
1140.1899186327992 4065.323579759256
1141.060337993178 4289.923497540048
1141.930542614382 4114.187957162557
1142.8005325577597 4044.412597253395
1143.670307884635 3877.857175969345
1144.5398686563003 4038.428434202457
1145.409214934025 4052.4302979321646
1146.2783467790541 3785.0137609743447
1147.1472642526023 3842.6573077364205
1148.0159674158622 3944.537033249281
1148.8844563300026 3850.428511909984
1149.7527310561618 3713.631003630269
1150.6207916554504 3722.752369373758
1151.4886381889592 3652.8741460769916
1152.3562707177498 3829.7039670355757
1153.2236893028585 3644.822873355456
1154.090894005296 3593.166842493517
1154.9578848860474 3660.6097396266036
1155.8246620060709 3583.5981147551465
1156.6912254262988 3556.1907157743526
1157.5575752076438 3553.4173825123494
1158.42371141098 3743.0188486226375
1159.2896340971656 3718.7953884485373
1160.1553433270346 3574.1531960117136
1161.0208391613887 3542.891122282781
1161.8861216610057 3558.731971129947
1162.75119088664 3604.2797677015888
1163.6160468990201 3583.4677414162325
1164.4806897588442 3544.417194675684
1165.3451195267917 3599.6180873850376
1166.2093362635114 3511.8797357904746
1167.0733400296285 3649.179145257406
1167.9371308857444 3484.8330229726294
1168.8007088924278 3445.113384108149
1169.6640741102328 3612.486176353006
1170.5272265996773 3552.649955777172
1171.390166421259 3357.7058343333388
1172.252893635452 3553.901347279775
1173.1154083026995 3711.1684094477723
1173.977710483421 3676.204381295963
1174.8398002380145 3447.3154175316604
1175.7016776268483 3594.2198527488495
1176.563342710264 3516.403337524159
1177.4247955485826 3520.0526615368863
1178.2860362020947 3636.5623309343255
1179.147064731069 3400.8922625992245
1180.0078811957483 3512.4995537565737
1180.8684856563486 3541.017754532442
1181.7288781730604 3525.8811755862394
1182.589058806052 3517.6100543467314
1183.4490276154593 3635.8637687483506
1184.3087846614017 3496.2015532664154
1185.1683300039676 3628.689219916972
1186.027663703222 3702.3501671616687
1186.8867858192025 3658.2803857005856
1187.7456964119228 3669.249415671624
1188.6043955413716 3665.576802196535
1189.4628832675116 3743.304336941149
1190.3211596502842 3791.4652758594166
1191.179224749596 3797.2722205895247
1192.0370786253388 3678.474297422046
1192.8947213373758 3897.4428050444535
1193.7521529455407 3983.3018781951614
1194.6093735096438 3778.6408416453205
1195.466383089477 3746.695083902569
1196.3231817447977 3777.5210905861068
1197.1797695353398 3957.746155530697
1198.0361465208189 3764.5619342151804
1198.8923127609214 3732.900724979549
1199.7482683153048 3895.7964311483365
1200.6040132436028 4030.89217471806
1201.459547605431 3774.772641819721
1202.3148714603722 3863.914869125594
1203.1699848679855 3850.9642841700415
1204.0248878878065 3931.0534984441997
1204.8795805793507 3607.569823009605
1205.7340630020935 3815.1084315161934
1206.5883352155033 3839.444692454519
1207.4423972790064 3828.92372874122
1208.2962492520237 3716.3311616644373
1209.1498911939307 3744.6262101649545
1210.0033231640937 3716.634768483133
1210.8565452218427 3809.7162029929787
1211.7095574264913 3458.2582880064133
1212.5623598373222 3553.217694168733
1213.4149525135963 3430.8405882434918
1214.2673355145507 3665.5804282161967
1215.1195088993936 3524.9821490815484
1215.9714727273113 3490.382289003156
1216.8232270574663 3701.7384304520915
1217.6747719489904 3395.1688042587093
1218.5261074609934 3431.694020852836
1219.3772336525653 3664.4941965270677
1220.2281505827668 3571.8704471945393
1221.0788583106296 3641.340597781507
1221.9293568951707 3394.531553740603
1222.7796463953746 3346.3887769603134
1223.629726870202 3510.8935306403823
1224.4795983785934 3551.1661283741646
1225.3292609794553 3476.924092223768
1226.1787147316809 3321.0192221910793
1227.0279596941327 3437.5753935107873
1227.8769959256424 3443.7053947619906
1228.7258234850306 3517.0812021276665
1229.5744424310833 3271.322253074483
1230.422852822563 3530.1840456170576
1231.2710547182105 3630.4961489507505
1232.119048176739 3429.973210277459
1232.9668332568417 3246.1383280965483
1233.8144100171812 3454.751980262995
1234.6617785163999 3528.097351915735
1235.508938813111 3173.24830926428
1236.3558909659114 3277.9548084735134
1237.2026350333617 3520.699035939212
1238.049171074008 3492.7470426839477
1238.8954991463652 3298.9347952921576
1239.741619308932 3420.6270287688544
1240.587531620169 3439.9560157596416
1241.4332361385277 3458.4339134130946
1242.2787329224248 3300.5167241179042
1243.1240220302534 3299.869506766813
1243.9691035203869 3311.0479073359247
1244.813977451171 3531.372216502533
1245.6586438809263 3400.509180037226
1246.5031028679496 3147.4373303921366
1247.3473544705157 3442.6126652075773
1248.1913987468706 3416.860856046579
1249.0352357552383 3172.874382697016
1249.8788655538228 3363.211926427945
1250.7222882007918 3400.853753098351
1251.565503754302 3481.2826228795143
1252.4085122724755 3089.7545389948464
1253.2513138134182 3531.6610131467764
1254.0939084352049 3368.761829873644
1254.9362961958905 3393.67782154058
1255.7784771535007 3301.800207622252
1256.6204513660432 3454.304388830901
1257.4622188915 3546.1516062724318
1258.3037797878242 3326.9005434410174
1259.1451341129468 3303.4075722612733
1259.9862819247755 3422.1662816026706
1260.8272232811978 3318.034115576401
1261.6679582400666 3583.1405919150393
1262.5084868592203 3213.3370024966216
1263.34880919647 3260.8704397651736
1264.1889253095997 3411.485898594955
1265.0288352563712 3550.6271056319447
1265.8685390945266 3343.550610020803
1266.7080368817751 3453.3011488184993
1267.5473286758115 3584.656315645602
1268.386414534294 3514.932712805565
1269.2252945148703 3174.224468978047
1270.0639686751547 3364.4921651239574
1270.9024370727402 3317.856347813283
1271.7406997651997 3333.060611937383
1272.5787568100714 3205.360453887253
1273.4166082648808 3259.0196176434697
1274.2542541871244 3233.36419718729
1275.091694634275 3487.4494086786485
1275.9289296637817 3199.261681003673
1276.7659593330663 3458.3080804346782
1277.6027836995308 3322.7268045993833
1278.4394028205552 3407.3561881607034
1279.2758167534867 3400.469310579262
1280.112025555658 3331.4259515962417
1280.9480292843746 3407.3077512862023
1281.7838279969128 3190.882481399219
1282.6194217505326 3308.5489654866637
1283.4548106024686 3156.8377915921224
1284.289994609926 3204.080780051442
1285.1249738300921 3392.347356384301
1285.959748320127 3195.0128901140424
1286.7943181371702 3305.582195538214
1287.6286833383328 3262.8823452693923
1288.4628439807038 3344.437544078857
1289.2968001213521 3222.828860131721
1290.1305518173194 3241.2054953280563
1290.9640991256183 3352.838293588342
1291.7974421032523 3262.1943035795284
1292.630580807183 3119.687416754941
1293.463515294361 3385.9588580715777
1294.29624562171 3491.573996925189
1295.12877184613 3199.8683797275903
1295.961094024493 3141.6033844552535
1296.79321221365 3303.590740367975
1297.6251264704333 3333.336762318851
1298.4568368516466 3563.113206432395
1299.2883434140658 3285.4793177064216
1300.1196462144526 3214.636457249414
1300.9507453095375 3393.369968324869
1301.7816407560313 3376.703470100071
1302.6123326106172 3380.9117195719614
1303.4428209299622 3292.5460071799107
1304.2731057707024 3600.14038379921
1305.1031871894502 3286.8503287810527
1305.933065242798 3517.5844417275575
1306.7627399873181 3377.4267987663675
1307.5922114795467 3744.0920730101366
1308.4214797760123 3572.712314728212
1309.2505449332057 3373.881969420016
1310.0794070076026 3540.6744596699755
1310.9080660556538 3628.3523019137924
1311.736522133786 3661.8234868570385
1312.5647752983987 3467.5681693015745
1313.3928256058734 3287.0364265833305
1314.2206731125661 3531.5276911796295
1315.048317874809 3522.4812835894345
1315.8757599489109 3449.4175709443757
1316.7029993911547 3467.054810041996
1317.5300362578055 3626.596213530259
1318.356870605101 3454.00611271688
1319.183502489257 3459.17093076569
1320.0099319664623 3570.15787962138
1320.836159092889 3625.217132270872
1321.66218392468 3542.11526552786
1322.4880065179532 3296.1588801329463
1323.3136269288134 3570.760603849901
1324.1390452133292 3614.727088083928
1324.9642614275563 3738.172897169202
1325.7892756275214 3592.5168551113356
1326.6140878692295 3461.8283807431117
1327.4386982086617 3879.125455250928
1328.2631067017755 3584.342888736509
1329.0873134045069 3599.5375891984863
1329.911318372764 3487.754289840415
1330.735121662441 3446.2382518330987
1331.558723329399 3491.5507649731385
1332.3821234294774 3455.324248964736
1333.2053220185007 3601.9914362619033
1334.0283191522612 3415.369550491561
1334.851114886529 3582.6913469533165
1335.6737092770582 3406.1612797801813
1336.4961023795695 3485.9226365130344
1337.3182942497697 3259.3955217527205
1338.1402849433325 3306.4226427189933
1338.962074515921 3339.194551725016
1339.7836630231632 3264.379678481482
1340.6050505206676 3693.4067081631692
1341.426237064028 3495.9963844550025
1342.2472227088037 3326.702904400915
1343.0680075105338 3260.022737069605
1343.888591524741 3329.814833166979
1344.7089748069138 3547.268701147742
1345.5291574125276 3390.4193476305372
1346.3491393970307 3218.7989395467625
1347.168920815846 3473.4900966390355
1347.9885017243778 3476.1338936199427
1348.8078821780036 3347.765214921705
1349.6270622320844 3392.3592358913347
1350.4460419419447 3255.3191524030117
1351.2648213629054 3395.157920603762
1352.0834005502438 3224.52271702491
1352.90177955923 3183.558801397342
1353.7199584451064 3507.9942628754166
1354.5379372630887 3397.829577973744
1355.355716068374 3247.861014377688
1356.1732949161305 3247.4121472735715
1356.9906738615155 3291.062674287327
1357.8078529596478 3358.492097795318
1358.6248322656375 3341.160909420623
1359.441611834567 3272.422698090702
1360.2581917214866 3447.0138992988095
1361.0745719814367 3345.7172364994053
1361.890752669433 3213.6635463392345
1362.7067338404577 3190.9653061926774
1363.5225155494845 3378.7177409457518
1364.3380978514506 3405.077340993926
1365.1534808012839 3098.822449197774
1365.9686644538815 3002.0210821271244
1366.783648864117 3377.389712305818
1367.5984340868417 3389.1450283044505
1368.413020176893 3338.2195915340444
1369.2274071890715 3143.762609224266
1370.0415951781652 3420.624243126116
1370.8555841989346 3521.229708845406
1371.6693743061223 3140.443839050906
1372.48296555444 3018.812328432622
1373.2963579985844 3289.4426698978664
1374.1095516932255 3281.1504673477452
1374.9225466930166 3022.8136184188784
1375.7353430525782 3344.5666407466924
1376.5479408265164 3053.4768917345937
1377.36034006941 3292.90595673021
1378.1725408358216 3248.3702169223357
1378.9845431802805 3005.9659867171467
1379.796347157304 3440.5670923727653
1380.6079528213813 3329.6714187601074
1381.4193602269788 3097.049498331123
1382.230569428546 3073.6954438233074
1383.0415804805016 3301.818297770397
1383.852393437246 3344.0042198830133
1384.6630083531563 3238.599144046515
1385.4734252825892 3135.192831452045
1386.2836442798798 3144.5124669736088
1387.0936653993322 3216.710984283346
1387.9034886952395 3222.7420716977113
1388.713114221864 3271.236174240191
1389.5225420334482 3227.0752385305746
1390.331772184214 3133.230829316678
1391.1408047283585 2990.1892481483956
1391.9496397200564 3123.671858792824
1392.758277213461 3211.359988485289
1393.5667172627054 3269.9159065788826
1394.3749599218918 3192.3615817528607
1395.1830052451114 2913.1693034868085
1395.9908532864265 3129.8716623812747
1396.7985040998774 3267.7617842829927
1397.6059577394808 3071.5072874547436
1398.4132142592352 3128.8802159666843
1399.2202737131156 3082.4467106367874
1400.027136155073 3281.941093902333
1400.8338016390353 2987.2277784253774
1401.6402702189134 3125.568476319074
1402.446541948586 3119.5867391514853
1403.2526168819204 3004.819370319024
1404.058495072757 3012.948498663177
1404.8641765749107 3038.158779214172
1405.6696614421799 3115.7931458011976
1406.4749497283356 3474.2436541700436
1407.280041487129 3006.90244987242
1408.084936772295 2932.2423012842182
1408.8896356375335 3221.8997884833707
1409.6941381365323 3117.624895102843
1410.498444322955 2846.711090499839
1411.3025542504402 3070.2267588080354
1412.106467972606 3129.6651603642485
1412.9101855430508 3143.17249498932
1413.7137070153458 2870.9396228557007
1414.5170324430437 3008.0739039984337
1415.320161879672 3175.1790055459005
1416.1230953787435 3227.2986398336075
1416.925832993742 2983.632525577651
1417.7283747781275 2862.5549389523303
1418.5307207853439 3014.796423593817
1419.3328710688093 3049.426724395261
1420.134825681922 2741.4258285348424
1420.9365846780584 2961.1395358497343
1421.7381481105713 3199.7261965320595
1422.539516032788 2985.310755432005
1423.3406884980232 2878.9923119563036
1424.1416655595604 2817.06019509836
1424.942447270665 2866.449160500352
1425.7430336845828 3054.8067663184042
1426.5434248545298 2777.2988231785994
1427.3436208337116 2997.15063454324
1428.143621675301 2944.361463946218
1428.9434274324558 3090.2753518801496
1429.7430381583108 2735.2169655503394
1430.5424539059713 2928.3856803276303
1431.3416747285337 3306.306206480789
1432.1407006790632 3063.492228867683
1432.9395318106053 3065.109444922596
1433.7381681761835 2813.589861394788
1434.5366098288014 3046.769022561095
1435.3348568214424 2987.720243992505
1436.1329092070573 2908.1012478025946
1436.9307670385879 2963.534712272051
1437.7284303689503 3060.408671920447
1438.5258992510335 3151.2640834964386
1439.3231737377118 2985.2614181750696
1440.1202538818306 2965.632653651509
1440.9171397362225 2818.6677732950075
1441.7138313536925 2870.788059637659
1442.5103287870243 2778.8450699683262
1443.3066320889775 2687.83821179133
1444.1027413122956 3066.2833059073423
1444.8986565096966 2852.8404556766773
1445.694377733882 2839.2389872593794
1446.4899050375207 2796.805740518263
1447.2852384732687 2788.5625269894012
1448.0803780937622 2912.8167944690254
1448.8753239516063 2775.6323948531804
1449.6700760993954 2634.654482706658
1450.464634589689 2735.7328271166434
1451.2589994750397 3051.797651461164
1452.0531708079689 2700.060849636434
1452.8471486409799 2713.5692832380696
1453.6409330265524 2982.8459130718484
1454.4345240171442 2739.3937169625756
1455.2279216651987 2745.3691886442944
1456.0211260231263 2748.4744932476997
1456.8141371433194 3081.0840604274254
1457.6069550781594 2838.8174012513346
1458.3995798799897 2570.715218498104
1459.1920116011424 2716.0031602287554
1459.98425029393 2619.9098166586978
1460.7762960106338 2593.965614167822
1461.5681488035225 2781.9771291882616
1462.3598087248392 2797.3274470857136
1463.1512758268036 2954.177676477169
1463.942550161617 2650.765712121962
1464.7336317814625 2697.443426537534
1465.524520738496 2762.8596037975067
1466.3152170848552 2735.5120591855675
1467.1057208726506 2733.244373928804
1467.8960321539817 2667.188534881883
1468.6861509809169 2555.314463602702
1469.4760774055085 2623.506938382966
1470.265811479785 2712.717774651627
1471.055353255755 2528.798516444959
1471.844702785409 2524.0486474406653
1472.6338601207044 2505.2154860464393
1473.4228253135934 2837.9472677267836
1474.2115984159936 2490.09821764812
1475.0001794798063 2449.2827514652263
1475.7885685569145 2623.74303168891
1476.576765699172 2601.4948780851923
1477.3647709584238 2586.3298547171335
1478.1525843864802 2858.020270191734
1478.9402060351367 2658.9294142937324
1479.7276359561693 2669.435746455466
1480.514874201328 2646.161532630188
1481.3019208223468 2449.6977167443733
1482.0887758709323 2420.7714890091556
1482.8754393987747 2736.416236654859
1483.6619114575406 2487.5925469236663
1484.4481920988783 2552.7799063344764
1485.2342813744108 2641.2037922114314
1486.0201793357446 2790.823518291444
1486.8058860344572 2528.744811204972
1487.591401522117 2603.898291739258
1488.3767258502594 2496.400203625856
1489.1618590704056 2600.8140921349736
1489.9468012340494 2318.489194470449
1490.7315523926754 2664.9685695513754
1491.5161125977356 2711.345994873424
1492.3004819006637 2618.9813321833544
1493.084660352877 2434.684092947568
1493.8686480057622 2672.828034746529
1494.6524449106964 2832.4756548873697
1495.4360511190262 2780.3902927303097
1496.219466682087 2675.6895096232092
1497.0026916511779 2671.2543063928624
1497.7857260775945 2615.3909321728324
1498.5685700125996 2802.352591571412
1499.3512235074395 2460.367481410934
1500.133686613337 2458.811888074502
1500.9159593814966 2519.031760398698
1501.698041863101 2470.253582299235
1502.4799341093094 2421.5267661796893
1503.2616361712662 2377.658117536998
1504.043148100087 2521.9990369736283
1504.8244699468742 2704.6250892854823
1505.6056017626997 2464.47174885237
1506.3865435986281 2389.739522224588
1507.1672955056893 2590.673257007319
1507.9478575348967 2487.0954656126582
1508.7282297372512 2783.524793040287
1509.5084121637192 2565.462814410996
1510.2884048652577 2464.33976006453
1511.0682078927948 2478.597374208096
1511.8478212972423 2538.11714651112
1512.6272451294917 2494.8185931440844
1513.4064794404076 2668.6762144285285
1514.1855242808433 2666.8439584928706
1514.9643797016215 2540.8373536061818
1515.743045753552 2592.9055890760874
1516.5215224874191 2577.528408710309
1517.2998099539836 2341.2855586858277
1518.077908203999 2586.7453456192507
1518.8558172881785 2428.6308600434204
1519.633537257234 2677.2459730214696
1520.4110681618404 2491.8442188823296
1521.1884100526604 2580.494471013964
1521.9655629803365 2496.964939673036
1522.7425269954856 2720.998305737495
1523.5193021487103 2914.741135662204
1524.2958884905856 2443.3777905021248
1525.0722860716687 2544.5180676840837
1525.848494942502 2554.9572239996364
1526.624515153595 2513.7887044959652
1527.4003467554485 2607.096695974359
1528.175989798534 2744.172148226494
1528.9514443333064 2518.39961625081
1529.726710410203 2890.739226058484
1530.5017880796331 2467.5529447104573
1531.276677391992 2501.8199285252467
1532.0513783976457 2792.08959921873
1532.825891146953 2593.778341974974
1533.6002156902414 2644.076951108289
1534.3743520778207 2533.736198055848
1535.1483003599806 2648.9676356758246
1535.9220605869923 2621.4851936870537
1536.6956328091019 2639.2769327009623
1537.4690170765407 2515.3759395535144
1538.242213439511 2625.805476198725
1539.015221948208 2579.5393078958905
1539.78804265279 2548.787419340301
1540.560675603405 2521.0888784189015
1541.3331208501804 2766.958003146362
1542.1053784432224 2769.6523510935726
1542.8774484326168 2611.4803584482315
1543.649330868422 2709.190502323721
1544.4210258006842 2566.8455093809857
1545.1925332794308 2769.547485353563
1545.9638533546604 2626.6451645774437
1546.7349860763552 2548.104537148819
1547.5059314944829 2875.6907883759864
1548.27668965898 2646.0342290182193
1549.0472606197673 2669.271799148547
1549.817644426752 2565.192104072498
1550.5878411298072 2846.519946376301
1551.3578507787988 2664.987293511934
1552.1276734235635 2546.0122057052886
1552.8973091139233 2678.739889699758
1553.6667578996767 2782.0895674484786
1554.436019830604 2613.030754112893
1555.20509495646 2665.2849478975604
1555.9739833269869 2534.8327851830054
1556.7426849919011 2461.57344141059
1557.511200000903 2804.5747402236543
1558.2795284036674 2727.23327754176
1559.0476702498509 2646.5135288116426
1559.8156255890954 2774.358809570954
1560.5833944710157 3012.2593605848024
1561.3509769452048 2566.6481959946154
1562.1183730612447 2625.283403063241
1562.8855828686865 2602.817417545757
1563.6526064170703 2946.688326147097
1564.4194437559127 2798.65274619467
1565.1860949347047 2687.4079417062867
1565.9525600029283 2911.327486780561
1566.7188390100328 3014.1412107816386
1567.4849320054564 2624.099418293686
1568.250839038612 2713.0685374842387
1569.0165601588997 2622.454845453158
1569.7820954156887 2866.5634037089767
1570.5474448583373 2632.3586479070386
1571.31260853618 2601.479398647623
1572.0775864985299 2477.257297272842
1572.8423787946813 2818.9478494544755
1573.6069854739108 2609.1891679391056
1574.371406585471 2757.783741745855
1575.1356421785986 2821.725417916524
1575.899692302506 2654.810371985189
1576.6635570063845 2805.4055157834914
1577.4272363394157 2663.230062339224
1578.190730350747 2614.231388068344
1578.9540390895163 2724.8864937172157
1579.7171626048384 2374.0773676669774
1580.480100945806 2574.908833536685
1581.2428541614918 2698.3578322123644
1582.0054223009538 2655.9900315228515
1582.767805413223 2577.9408195085593
1583.5300035473156 2730.79524828011
1584.292016752228 2819.5527734392736
1585.0538450769309 2729.658866123308
1585.8154885703807 2507.367062974548
1586.5769472815136 2514.7297385929364
1587.3382212592405 2773.8290079321014
1588.099310552463 2837.21351450293
1588.8602152100484 2767.508743572901
1589.6209352808564 2821.845559897849
1590.3814708137234 2681.772225841377
1591.14182185746 2698.004085277197
1591.9019884608679 2667.5225772521276
1592.6619706727215 2509.2474866541843
1593.4217685417734 2701.8979805406134
1594.1813821167616 2806.421820576556
1594.9408114464022 2525.81991040389
1595.7000565793933 2625.707548246128
1596.459117564409 2712.514317240315
1597.2179944501113 2538.4190488814006
1597.9766872851324 2566.5351474296504
1598.735196118092 2845.6013667098473
1599.4935209975883 2751.0583670169767
1600.2516619721973 2827.522001167374
1601.0096190904787 2536.743595305902
1601.7673924009723 2644.541876291834
1602.524981952196 2519.934393688331
1603.2823877926476 2513.4141331190035
1604.0396099708087 2451.505394256719
1604.7966485351371 2394.693571298546
1605.5535035340745 2531.6476406283555
1606.3101750160404 2827.423576984797
1607.0666630294363 2468.7844374458246
1607.822967622642 2389.449971729481
1608.5790888440224 2519.755124913988
1609.3350267419137 2696.885933425977
1610.0907813646445 2584.433197728439
1610.8463527605145 2519.8991925347123
1611.601740977805 2669.3822580460164
1612.356946064785 2718.448885439492
1613.1119680696902 2403.8558515854024
1613.8668070407512 2551.3684432474915
1614.6214630261748 2424.23574812995
1615.375936074137 2625.542278864644
1616.1302262328118 2545.271425913093
1616.8843335503425 2623.201568618356
1617.638258074854 2437.359127170507
1618.391999854457 2579.588804100973
1619.1455589372363 2778.986429054363
1619.8989353712623 2558.885057332768
1620.65212920458 2291.1733845798817
1621.4051404852235 2506.1741097701033
1622.1579692611976 2438.5969914837865
1622.9106155804966 2394.1428111011137
1623.663079491087 2423.318459141648
1624.4153610409248 2568.7165964947267
1625.1674602779385 2449.878599476275
1625.9193772500403 2425.9884235654627
1626.6711120051277 2674.474943846957
1627.4226645910676 2537.113067299576
1628.174035055721 2463.6033671585133
1628.9252234469168 2636.524299281619
1629.676229812474 2536.8259676950192
1630.4270542001905 2824.5051178652334
1631.1776966578382 2576.189012531809
1631.9281572331747 2585.2391361235873
1632.678435973945 2637.985036178855
1633.4285329278573 2638.538944258228
1634.1784481426203 2357.280073180006
1634.9281816659113 2514.4103024581386
1635.677733545388 2716.760044489126
1636.4271038286934 2507.2367949073982
1637.176292563452 2627.302494681817
1637.9252997972635 2605.518343116561
1638.674125577716 2641.3200183810864
1639.4227699523672 2949.8944649847094
1640.171232968767 2451.8082928727476
1640.9195146744423 2596.338172781384
1641.6676151168977 2800.8732211332945
1642.4155343436178 2779.4813800134316
1643.1632724020765 2547.9478313185564
1643.9108293397167 2641.4549017306263
1644.658205203974 2438.5165395473687
1645.4054000422566 2468.7804035369604
1646.1524139019566 2498.868239022248
1646.8992468304423 2460.5309546005114
1647.6458988750728 2483.553851576579
1648.3923700831765 2630.938862300982
1649.1386605020743 2539.573793923999
1649.8847701790564 2800.831406975034
1650.6306991614038 2612.4000859124594
1651.3764474963682 2650.9740033785474
1652.1220152311944 2367.7180073704985
1652.867402413096 2784.3669334250167
1653.6126090892776 2643.2643550663142
1654.3576353069184 2881.9083204716326
1655.1024811131829 2711.5761038801734
1655.8471465552066 2584.8500890150353
1656.5916316801213 2864.158467205116
1657.3359365350298 2680.440254117636
1658.0800611670165 2574.7027555824525
1658.824005623148 2647.1765908087173
1659.5677699504722 2520.4444093826764
1660.3113541960192 2696.3044227656615
1661.054758406799 2537.096969644984
1661.7979826297997 2366.8587483163556
1662.5410269119966 2348.1164595229043
1663.283891300338 2645.6280550860924
1664.0265758417645 2448.4175934037144
1664.7690805831826 2522.5538303262674
1665.5114055714948 2786.214921627557
1666.2535508535748 2939.0980256226158
1666.9955164762814 2274.430439644217
1667.7373024864555 2496.9160724297735
1668.478908930916 2610.9808960364894
1669.220335856462 2485.6972060837456
1669.9615833098778 2451.7917099029382
1670.7026513379296 2364.4531584622373
1671.44353998736 2485.5030718942535
1672.1842493048916 2367.57220617224
1672.9247793372379 2380.744404819482
1673.6651301310812 2448.3539558409598
1674.4053017330934 2436.355761151959
1675.1452941899242 2525.2530935882064
1675.885107548207 1949.2126518025736
1676.6247418545518 2163.8870665386758
1677.3641971555535 2221.2460833883274
1678.1034734977893 2520.337572953832
1678.8425709278108 2300.6462867264518
1679.5814894921605 2522.3564863807387
1680.320229237359 2320.68029053631
1681.0587902098978 2466.1690896638675
1681.7971724562685 2335.264607177457
1682.5353760229264 2253.8562532471165
1683.2734009563173 2340.3186206711325
1684.0112473028657 2219.126401223923
1684.7489151089794 2306.4448871529635
1685.4864044210462 2473.396959515424
1686.2237152854377 2474.7981676059544
1686.960847748498 2476.331901431392
1687.6978018565642 2142.4247851436726
1688.434577655944 2189.2153959698076
1689.1711751929379 2086.757424010239
1689.9075945138156 2251.301106779228
1690.6438356648396 2233.02718550274
1691.3798986922448 1870.658217620401
1692.1157836422499 2087.7084063848906
1692.851490561059 2112.6556746331207
1693.587019494853 2168.818649011434
1694.3223704897991 1936.035176332532
1695.0575435920364 1887.4979938363074
1695.792538847696 1941.7740230295797
1696.527356302886 1996.0488864952972
1697.2619960036936 1846.4220235694524
1697.9964579961907 1823.9200392467021
1698.730742326432 1695.3456217948485
1699.4648490404488 1792.8765617802187
1700.1987781842563 1989.4316336066222
1700.9325298038548 2036.0129807328988
1701.6661039452174 2213.950903473359
1702.3995006543082 2015.755011012734
1703.1327199770658 2139.723203367649
1703.865761959416 1781.9478695827504
1704.598626647261 2175.99564922537
1705.3313140864866 1853.9674574983444
1706.0638243229587 1966.0522339892843
1706.7961574025303 2065.834340294428
1707.528313371029 1962.1149043268797
1708.260292274268 1759.1835109059743
1708.9920941580403 1885.43627811047
1709.7237190681226 1941.4763535159163
1710.4551670502697 1884.2306523620268
1711.18643815022 1667.6225658566564
1711.9175324136959 1734.1246884929435
1712.6484498863938 1800.7413392636413
1713.379190614005 1701.7468947421596
1714.109754642188 1815.0401860418401
1714.8401420165883 1817.955957105994
1715.570352782839 1906.5054090966653
1716.3003869865497 1995.2880297302788
1717.0302446733076 1706.6134512019787
1717.7599258886876 1849.0668456648436
1718.4894306782444 2107.399138532347
1719.2187590875183 2100.2589305778383
1719.9479111620203 2093.076755916731
1720.6768869472544 1752.9584455610016
1721.4056864887025 2035.998342703991
1722.1343098318284 2111.9525296036695
1722.8627570220742 1853.5164135971604
1723.591028104871 1636.6531573811574
1724.3191231256242 1695.1130143594132
1725.0470421297232 1849.8150203736445
1725.7747851625427 1939.149241334523
1726.5023522694337 1996.821305519071
1727.2297434957363 1859.306073519753
1727.9569588867635 1662.0132617449544
1728.6839984878152 2021.7828771377058
1729.4108623441734 1957.6176326231048
1730.1375505011038 1893.5658333026772
1730.8640630038426 1747.6945486151574
1731.5903998976264 1744.0019945176457
1732.316561227657 1861.6534952588659
1733.0425470391274 1618.9801605507696
1733.7683573772065 1809.105759785561
1734.4939922870508 1795.3352922929928
1735.2194518137949 1901.657587688706
1735.9447360025606 1874.1001487925878
1736.669844898439 1740.3863719154494
1737.3947785465189 1603.2141558999574
1738.1195369918605 1571.7992289310846
1738.8441202795093 1709.8809670899184
1739.5685284544943 1862.5736975282884
1740.292761561821 1862.2856351012076
1741.0168196464838 1812.1266579933624
1741.7407027534518 1866.088592282095
1742.464410927687 1720.7616315306095
1743.187944214118 1737.1975748290588
1743.9113026576688 1561.7980446950703
1744.634486303241 1768.8988916344006
1745.3574951957125 1808.0371591251824
1746.0803293799509 1886.61616189745
1746.8029889008048 1756.65664518191
1747.5254738031017 1755.299696430051
1748.2477841316504 1723.091287387951
1748.969919931249 1602.7334191703683
1749.6918812466665 1645.335647339775
1750.4136681226646 1844.435452611632
1751.1352806039777 1763.3870820199165
1751.856718735331 1475.0612399559686
1752.5779825614281 1484.4376951216605
1753.2990721269507 1859.363607450169
1754.0199874765676 1763.391010241962
1754.7407286549314 1467.651689093927
1755.4612957066693 1693.1407768552458
1756.1816886763954 1623.7343132921696
1756.9019076087097 1845.569013176661
1757.6219525481865 1748.393623911091
1758.3418235393856 1810.5547785134531
1759.061520626854 1678.4021629534473
1759.7810438551096 1861.7644984869717
1760.5003932686614 1589.0272843294488
1761.2195689119999 1870.5044265351848
1761.938570829594 1774.9112562838866
1762.657399065898 1734.277515343337
1763.376053665348 1594.7375124135847
1764.0945346723602 1536.8939290998364
1764.812842131334 1551.8510507592875
1765.5309760866512 1566.9383408396102
1766.2489365826787 1621.1537085136001
1766.9667236637597 1630.5853866260939
1767.684337374223 1469.5526429783665
1768.401777758383 1488.4670418505398
1769.1190448605284 1516.1823549816993
1769.836138724937 1557.4723382857424
1770.5530593958665 1786.8432498699203
1771.2698069175603 1955.6016243686051
1771.9863813342326 1810.7431108622288
1772.702782690094 1658.3182913246103
1773.4190110293293 1778.6640979761116
1774.1350663961111 1716.523501645023
1774.8509488345844 1585.5032947591742
1775.5666583888924 1785.5277936893203
1776.2821951031437 1806.764476468065
1776.9975590214362 1609.6992384288355
1777.7127501878585 1856.4698064144275
1778.4277686464684 1801.7788965159198
1779.1426144413108 1907.3867521646666
1779.8572876164162 1851.2718436048442
1780.571788215797 1802.7998862104862
1781.2861162834415 1754.3216201968396
1782.0002718633277 1615.3010001015832
1782.7142549994132 1757.8098947344424
1783.4280657356376 1755.4619161312835
1784.141704115922 1656.2007708901347
1784.855170184177 1665.6418866891968
1785.5684639842839 1709.7299792012636
1786.2815855601148 1364.9074511621059
1786.9945349555237 1706.516242343397
1787.707312214343 1405.7707919179632
1788.4199173803918 1481.8803132337246
1789.132350497468 1558.2498942066125
1789.8446116093583 1581.7238036225895
1790.556700759822 1570.410646110051
1791.2686179926077 1594.9391617551469
1791.9803633514493 1549.4941142153862
1792.6919368800554 1478.6471675612042
1793.4033386221236 1743.1615437278506
1794.1145686213295 1803.8837391892528
1794.8256269213307 1743.6146688692875
1795.536513565774 1712.6832087251842
1796.247228598284 1455.393510542159
1796.9577720624693 1630.0800508763327
1797.6681440019165 1717.195951305236
1798.3783444602013 1647.358495641304
1799.0883734808776 1749.360167759321
1799.7982311074884 1637.2340190229402
1800.5079173835475 1724.3692463349034
1801.2174323525633 1710.0310464600723
1801.9267760580187 1575.8255119072246
1802.635948543386 1731.4261821063396
1803.3449498521113 1521.6667702932373
1804.0537800276325 1783.2566547142135
1804.7624391133668 1646.91518876374
1805.47092715271 1295.0169166488174
1806.1792441890484 1474.1001330579525
1806.8873902657433 1787.0237189484735
1807.5953654261448 1684.5116357210704
1808.3031697135812 1468.063229426491
1809.0108031713662 1551.420065367663
1809.71826584279 1627.372671629571
1810.425557771141 1590.1497306598021
1811.1326789996747 1612.7692424427012
1811.839629571632 1635.3265636347187
1812.5464095302468 1667.8262754912964
1813.2530189187182 1577.6509372236985
1813.959457780249 1570.8108002136328
1814.6657261580076 1746.7971632737485
1815.371824095153 1639.7771259814442
1816.0777516348262 1703.174262362018
1816.78350882015 1575.2227060622188
1817.4890956942272 1447.203902562574
1818.1945123001533 1571.0115530309527
1818.8997586809928 1631.3428931404
1819.6048348798067 1494.8493563740153
1820.3097409396287 1646.5578236737958
1821.0144769034796 1935.08121601187
1821.7190428143622 1627.1645394163513
1822.423438715261 1808.294231594095
1823.1276646491478 1531.794671044428
1823.8317206589727 1514.6012029125043
1824.5356067876692 1651.9375528905312
1825.2393230781581 1522.0548552177784
1825.942869573335 1427.397122603221
1826.646246316086 1415.9335341937783
1827.3494533492758 1622.2796439293484
1828.052490715756 1491.4513635493092
1828.7553584583547 1628.1471945204885
1829.458056619891 1630.3084186806
1830.1605852431585 1539.9234452795613
1830.8629443709433 1446.1723245870976
1831.5651340460063 1488.069748788993
1832.2671543110919 1433.989621991232
1832.9690052089318 1690.3201943507088
1833.6706867822395 1640.3026765017742
1834.3721990737104 1590.3752161253449
1835.0735421260233 1718.503326906403
1835.774715981841 1506.1843282005143
1836.4757206838058 1745.2560519050035
1837.1765562745459 1506.0843996054966
1837.8772227966747 1389.8100361183942
1838.5777202927839 1500.898945892392
1839.2780488054523 1401.9658014982049
1839.9782083772352 1405.4641416953332
1840.6781990506806 1464.3624937988484
1841.378020868313 1523.3857149073308
1842.0776738726418 1578.4250957898207
1842.777158106157 1391.3215776846578
1843.4764736113375 1393.2621013431185
1844.1756204306403 1620.4707377867367
1844.8745986065078 1643.7453776319494
1845.5734081813607 1403.9329214649795
1846.2720491976124 1438.1301365199292
1846.970521697649 1426.9104752061667
1847.6688257238511 1539.083278123512
1848.3669613185684 1546.40163927262
1849.0649285241452 1275.7686095989043
1849.7627273829057 1542.9346732335484
1850.460357937156 1557.376982280059
1851.1578202291857 1249.0538700698924
1851.8551143012664 1512.983943109003
1852.5522401956569 1474.0571019943668
1853.2491979545957 1691.1667686548656
1853.9459876203055 1420.3409245166908
1854.6426092349902 1378.7555649713054
1855.3390628408451 1533.0225884798433
1856.0353484800362 1619.4757947609642
1856.7314661947203 1561.1090726237808
1857.4274160270397 1437.8980668226613
1858.123198019115 1478.8154617201244
1858.8188122130487 1354.5007814633861
1859.5142586509319 1522.7241919715655
1860.209537374838 1555.9817644404575
1860.9046484268183 1466.0953310194968
1861.599591848917 1665.9999184271207
1862.294367683151 1443.1034317137933
1862.988975971528 1422.4184141720941
1863.6834167560355 1495.646899196039
1864.3776900786452 1673.4420633089965
1865.0717959813119 1448.9760382400455
1865.7657345059724 1363.7058945102103
1866.4595056945564 1524.3934854460315
1867.1531095889586 1443.5032864486907
1867.846546231076 1333.6958092372452
1868.5398156627743 1411.7962746998476
1869.2329179259123 1490.047895468332
1869.9258530623283 1734.0271582915914
1870.618621113843 1390.8657586008844
1871.3112221222636 1350.7466722724955
1872.0036561293764 1389.5675383794592
1872.695923176956 1545.317398927656
1873.3880233067594 1675.7777593722235
1874.0799565605212 1282.6754018608276
1874.7717229799673 1400.8292669088778
1875.4633226068036 1697.2871852030523
1876.1547554827175 1673.9536876406942
1876.8460216493859 1427.1712031642537
1877.5371211484617 1461.0351220101297
1878.2280540215852 1378.186365294387
1878.9188203103804 1295.1835717981955
1879.6094200564548 1451.2323467009403
1880.299853301396 1354.8244358907405
1880.9901200867826 1596.2996696731616
1881.6802204541673 1541.552736171516
1882.3701544450942 1575.557706630701
1883.059922101087 1289.4706640122756
1883.7495234636517 1325.077122472606
1884.4389585742792 1360.7107277707
1885.1282274744517 1263.6091903308802
1885.8173302056166 1362.0844660168375
1886.506266809225 1460.6932724516132
1887.195037326701 1432.2227885070417
1887.8836417994517 1515.4209035248557
1888.5720802688702 1726.6295067940712
1889.260352776333 1601.754417795112
1889.9484593632042 1762.3802114464495
1890.63640007082 1416.0627542625448
1891.3241749405151 1407.3459282241815
1892.0117840135954 1667.0293632039823
1892.6992273313572 1441.127596016822
1893.3865049350788 1331.7272949279493
1894.0736168660223 1671.150268651485
1894.7605631654333 1659.833892649872
1895.4473438745408 1656.5327382297285
1896.133959034556 1653.1401444138312
1896.820408686679 1621.6898851977169
1897.506692872088 1773.4382841980037
1898.192811631945 1428.4416492824641
1898.8787650073991 1484.419692495279
1899.5645530395832 1651.7699635974673
1900.2501757696118 1667.3632880135567
1900.9356332385796 1734.273850642084
1901.620925487574 1801.4251244752238
1902.3060525576602 1538.0988377513925
1902.9910144898859 1467.8436815409877
1903.6758113252872 1338.4372474205727
1904.3604431048789 1555.5865001912316
1905.0449098696663 1646.5943941516446
1905.7292116606295 1416.72773991467
1906.4133485187394 1589.9742875897962
1907.0973204849488 1272.65687007274
1907.7811276001976 1230.0901562801823
1908.4647699053967 1528.1839090439184
1909.1482474414588 1419.205146556797
1909.8315602492694 1309.9453501004828
1910.5147083696957 1670.330459491007
1911.1976918436012 1531.0501872560649
1911.880510711815 1408.0298744633499
1912.5631650151681 1399.4124551449727
1913.2456547944657 1390.7439526242456
1913.927980090495 1380.660366331988
1914.6101409440362 1408.4011342126673
1915.2921373958416 1619.0527837023283
1915.9739694866603 1470.5225572088402
1916.655637257214 1695.453745493957
1917.3371407482136 1457.0102850658009
1918.0184800003572 1666.5217586417082
1918.6996550543154 1670.5133759171513
1919.3806659507554 1411.927251496132
1920.0615127303208 1555.7607045503535
1920.7421954336423 1647.6816230989687
1921.4227141013343 1563.0884538695357
1922.103068773993 1520.2160174138949
1922.783259492202 1708.9436291769707
1923.4632862965227 1418.5993552230725
1924.1431492275078 1453.9459429392696
1924.8228483256917 1375.713133057629
1925.5023836315922 1413.0868428083731
1926.1817551857057 1591.0456074684205
1926.8609630285227 1380.7533689650504
1927.5400072005123 1581.0671957626257
1928.218887742125 1352.299748345491
1928.8976046938005 1182.1987332434749
1929.5761580959588 1485.3466471189113
1930.2545479890086 1513.2717737945115
1930.9327744133352 1248.1280311709365
1931.6108374093164 1495.1739506066044
1932.2887370173066 1334.9227982472528
1932.9664732776473 1620.3447730891726
1933.6440462306673 1414.4581820391925
1934.3214559166754 1276.112439255321
1934.9987023759659 1707.9759919882683
1935.675785648813 1595.1472453472345
1936.3527057754836 1195.7385704740857
1937.029462796223 1294.2848719509573
1937.70605675126 1393.0716545974594
1938.3824876808085 1384.1459256889525
1939.058755625072 1437.1294831902007
1939.7348606242267 1417.7993132431025
1940.4108027184448 1429.9331037854074
1941.0865819478713 1586.3857481294388
1941.7621983526478 1400.6982196210124
1942.4376519728921 1292.1505917512127
1943.1129428487038 1409.6223582891403
1943.7880710201734 1497.5666480075552
1944.4630365273733 1595.2687514390611
1945.1378394103576 1265.06336519886
1945.8124797091714 1260.0811796793964
1946.4869574638324 1255.0450345121076
1947.161272714353 1366.2151413914085
1947.8354255007234 1481.4215910779192
1948.5094158629272 1388.0438847656778
1949.1832438409183 1509.246584071368
1949.8569094746435 1592.9006394617156
1950.530412804037 1609.8306943251757
1951.2037538690092 1660.735586239104
1951.8769327094578 1325.3148001799645
1952.5499493652678 1420.6979448781656
1953.222803876306 1566.7485418633482
1953.895496282421 1502.7461365487984
1954.5680266234522 1493.1078529735494
1955.2403949392155 1552.584845131153
1955.9126012695142 1249.3260150619803
1956.5846456541403 1434.5441125459042
1957.2565281328643 1330.9948241546822
1957.9282487454457 1559.5612336670806
1958.5998075316202 1464.8620494714473
1959.27120453112 1416.0745241823572
1959.9424397836501 1474.001624029235
1960.613513328908 1474.214567103702
1961.2844252065697 1603.8950970802548
1961.9551754563017 1361.6850223455385
1962.6257641177453 1307.66877413948
1963.29619123054 1241.7157084276366
1963.966456834296 1367.4282611759465
1964.6365609686181 1266.8633198632929
1965.306503673086 1510.821107333082
1965.976284987275 1286.9717705093285
1966.645904950734 1245.232646713909
1967.315363603002 1203.4094830595927
1967.9846609836077 1413.1061558701158
1968.6537971320486 1282.35538288065
1969.3227720878222 1431.883359208626
1969.9915858904042 1353.3159306706857
1970.660238579252 1599.7963391753817
1971.3287301938108 1466.0008114267862
1971.997060773514 1351.0167294153412
1972.665230357772 1278.6200779664002
1973.3332389859843 1320.1538703085694
1974.0010866975335 1401.5133383890036
1974.6687735317864 1483.079148138242
1975.3362995280932 1506.2105456522736
1976.003664725793 1422.997054102098
1976.6708691642052 1152.6095627807017
1977.3379128826364 1368.3222983726878
1978.004795920373 1637.9891920057232
1978.6715183166925 1689.7344174748418
1979.3380801108524 1202.2649850852572
1980.0044813420973 1324.6663995405747
1980.6707220496555 1332.0224211233838
1981.3368022727373 1339.490458650152
1982.0027220505417 1351.5794851491637
1982.66848142225 1054.6424923335023
1983.3340804270283 1250.9372960279736
1983.999519104027 1416.5895710842683
1984.6647974923835 1485.2571804870063
1985.329915631215 1468.6670145091443
1985.99487355963 1479.1459152530704
1986.6596713167146 1617.3912823670898
1987.3243089415428 1285.4180344095296
1987.9887864731754 1463.960770182452
1988.6531039506553 1227.0777179804618
1989.3172614130071 1264.4817261024755
1989.9812588992481 1301.970216081051
1990.645096448372 1099.7868401344424
1991.3087740993633 1335.6990950891227
1991.9722918911848 1273.07897704083
1992.635649862792 1436.5783169421375
1993.2988480531185 1410.533460220306
1993.9618865010852 1321.4675045208244
1994.6247652455968 1232.2799377198266
1995.287484325545 1276.3997474089572
1995.9500437798033 1382.8838537064978
1996.6124436472292 1266.0854548328439
1997.2746839666706 1500.6606381328386
1997.936764776954 1311.104974781294
1998.598686116895 1519.145064197085
1999.2604480252903 1727.6446708707858
1999.9220505409212 1575.566408345529
2000.5834937025593 1217.4347491084523
2001.2447775489582 1413.1927568181836
2001.9059021188514 1393.9213933767355
2002.5668674509616 1177.5663643732557
2003.2276735839987 1250.7029528947987
2003.8883205566508 1294.95844596193
2004.5488084075987 1339.2330080690576
2005.2091371755014 1374.2725739264506
2005.8693068990033 1438.393422070257
2006.5293176167397 1502.7217612564655
2007.1891693673224 1225.2552062954999
2007.848862189354 1156.9527835980746
2008.5083961214223 1234.0173771195869
2009.1677712020955 1242.7143777207407
2009.8269874699254 1217.158674068513
2010.4860449634598 1218.7159943536722
2011.1449437212177 1220.3492399711224
2011.8036837817108 1571.1730698975139
2012.4622651834325 1476.0991025346657
2013.1206879648653 1379.7573141647897
2013.7789521644736 1228.5627955044345
2014.4370578207036 1520.1418431848342
2015.0950049719922 1388.173708242366
2015.7527936567585 1519.978927810469
2016.4104239134067 1353.201681671926
2017.067895780323 1779.303332264143
2017.725209295886 1697.5883221448862
2018.3823644984514 1615.6044272995946
2019.0393614263648 1438.3009805188542
2019.6962001179545 1420.0368319065274
2020.3528806115355 1575.3200708321442
2021.0094029454067 1353.4983007918015
2021.6657671578487 1225.0723753557606
2022.321973287133 1361.5555644267001
2022.9780213715148 1398.3519076419789
2023.6339114492293 1435.336734770534
2024.2896435585026 1311.9075481063358
2024.9452177375442 1302.2151343932717
2025.600634024544 1641.7899127964852
2026.2558924576842 1455.635372025846
2026.9109930751292 1553.3241198530786
2027.565935915025 1658.3892104970848
2028.2207210155066 1763.7950993118616
2028.8753484146964 1737.4250136505384
2029.529818150695 1648.825969130113
2030.1841302615903 1559.833067840845
2030.8382847854573 1291.2866320098217
2031.4922817603601 1600.4809273820947
2032.1461212243357 1485.3468039495976
2032.7998032154192 1200.871065462156
2033.4533277716218 1374.4580119003786
2034.1066949309443 1292.2312577593966
2034.7599047313688 1144.8651523647382
2035.4129572108704 1449.4962965270931
2036.0658524074006 1354.7737435232577
2036.7185903589016 1445.0863882139906
2037.3711711032956 1569.802729558514
2038.023594678496 1403.382937671071
2038.675861122394 1298.6783919281047
2039.3279704728757 1285.1619476644337
2039.9799227678031 1271.7329394917515
2040.6317180450278 1302.162127559152
2041.2833563423865 1359.359765106893
2041.9348376977014 1601.2659792779327
2042.5861621487784 1370.5745720572952
2043.2373297334088 1303.0731052030399
2043.8883404893695 1402.6725367131457
2044.5391944544208 1467.7191002336733
2045.1898916663158 1607.6362069947738
2045.8404321627804 1624.5712558435112
2046.4908159815368 1311.1210226470832
2047.1410431602853 1328.7391607256964
2047.7911137367173 1216.2691431367352
2048.441027748504 1265.6620448396577
2049.090785233302 1315.0555804406408
2049.7403862287592 1289.827215862924
2050.389830772503 1499.2850608754393
2051.0391189021466 1183.1847723227197
2051.688250655294 1441.2355928873187
2052.337226069527 1252.0135226513462
2052.986045182417 1573.644139182098
2053.634708031521 1009.3931130132017
2054.283214654375 1555.8613426366112
2054.931565088511 1068.6566824582078
2055.579759371436 1164.4506829729007
2056.2277975406523 1459.2713983524702
2056.8756796336384 1671.8533593628993
2057.5234056878617 1189.6113063642947
2058.1709757407752 1220.7379052001338
2058.8183898298194 1582.4523612403316
2059.465647992416 1529.5468708012747
2060.1127502659747 1559.2181852931662
2060.759696687888 1527.0845725551726
2061.4064872955405 1494.95855994211
2062.053122126292 1249.2242293810675
2062.699601217497 1389.5030891623549
2063.345924606485 1180.6608363446765
2063.992092330587 1344.4121720325884
2064.638104427102 1314.2822110352558
2065.283960933324 1594.0978089054847
2065.92966188653 1431.2151310928741
2066.5752073239855 1542.0449386958558
2067.2205972829397 1236.9291982902514
2067.86583180062 1360.299442496547
2068.5109109142522 1276.7219622289376
2069.15583466104 1168.6074440428033
2069.8006030781708 1393.501407347422
2070.445216202821 1297.868865802953
2071.089674072153 1491.0953127461557
2071.7339767233116 1400.5410544679103
2072.3781241934303 1309.9150074910585
2073.0221165196253 1476.0609915921818
2073.6659537390024 1288.3862613542087
2074.3096358886505 1606.7733233620315
2074.953163005637 1438.5124814065882
2075.596535127028 1123.6400575584016
2076.2397522898664 1229.6834929050792
2076.882814531182 1374.8166090917548
2077.5257218879924 1457.0870414381243
2078.1684743973 1202.225962181877
2078.8110720960885 1158.2099787585555
2079.453515021336 1327.721381492764
2080.095803209997 1497.3939960231012
2080.7379366990135 1325.7447705744448
2081.37991552532 1479.4117022979715
2082.0217397258275 1340.8967171615186
2082.6634093374414 1148.1405239353487
2083.3049243970418 1240.943694262617
2083.9462849415067 1467.665331724887
2084.587491007689 1537.912055490629
2085.2285426324324 1391.3329983450144
2085.869439852564 1287.349286219388
2086.510182704902 1138.124912805551
2087.1507712262483 1337.0503913098335
2087.791205453381 1101.8627159365142
2088.4314854230743 1397.2804196131012
2089.0716111720867 1454.1242816227973
2089.7115827371617 932.717756208435
2090.351400155023 1030.5799891278866
2090.991063462385 1128.6686060548063
2091.6305726959527 1146.0703111465812
2092.2699278924047 1211.3589110042158
2092.9091290884153 1276.8306260645618
2093.548176320641 1266.5358401277495
2094.187069625721 1343.9445678376674
2094.8258090402887 1200.237626168278
2095.464394600951 1424.2581519847322
2096.102826344313 1323.743263997278
2096.741104306955 1483.7987245898662
2097.379228525453 1229.080903812452
2098.017199036358 1393.5073261837888
2098.6550158762147 1558.2831795006894
2099.2926790815527 1574.1462293433292
2099.9301886888825 1393.9414837742363
2100.5675447347076 1287.8246644257313
2101.2047472555114 1232.3725730240908
2101.841796287761 1176.8050765733428
2102.47869186792 1212.4629332194527
2103.1154340324265 1036.835893081081
2103.752022817709 1204.3966776628852
2104.388458260184 1299.7365741831454
2105.024740396251 1334.5388508243234
2105.660869262292 1244.196886972116
2106.296844894685 1552.508180623166
2106.93266732978 1450.312069710659
2107.5683366039284 1234.2006843806103
2108.2038527534532 1439.4356104626504
2108.8392158146726 1509.616604410646
2109.4744258238843 1166.717817685369
2110.1094828173755 1353.461852779517
2110.744386831422 1640.6832913832263
2111.3791379022787 1489.6664723825356
2112.01373606619 1626.9017893772548
2112.648181359389 1512.9626981694323
2113.28247381809 1418.0675191661728
2113.916613478492 1450.1763649004977
2114.550600376786 1466.51107838969
2115.1844345491445 1318.7379248742386
2115.818116031729 1226.5157359266805
2116.451644860679 1320.3610725910607
2117.085021072133 1088.823218790295
2117.718244702204 1224.0813300291652
2118.3513157869984 1233.726478349063
2118.984234362604 1198.1021160344403
2119.617000465092 1267.582677366888
2120.249614130529 1514.6756504305554
2120.8820753949585 1354.130139721725
2121.5143842944162 1160.2596100901587
2122.14654086492 1317.1764275529367
2122.7785451424734 1389.741231231215
2123.4103971630702 1388.2035857786955
2124.042096962681 1386.815084586065
2124.6736445772767 1440.421783364751
2125.305040042802 1160.8517704167234
2125.936283395191 1357.792840469765
2126.567374670365 1284.0492954130752
2127.198313904233 1417.014486778515
2127.8291011326855 1367.0793761926657
2128.4597363916037 1316.877335125603
2129.0902197168507 1346.6247315774253
2129.720551144279 1218.2762380668132
2130.3507307097225 1561.5492175592897
2130.980758449008 1527.6655637096546
2131.6106343979427 1220.6389755900875
2132.2403585923203 1443.3198729524304
2132.8699310679276 1561.3511025486773
2133.499351860526 1313.642657875177
2134.1286210058715 1258.0683015886164
2134.7577385397053 1417.4404462665375
2135.3867044977487 1577.049447262793
2136.0155189157176 1609.3121477629431
2136.644181829308 1550.3157009343877
2137.2726932742025 1359.7548168906364
2137.901053286074 1265.5360529467328
2138.5292619005777 1171.215851383924
2139.1573191533535 1302.894530944416
2139.7852250800315 1409.6893443867702
2140.4129797162295 1431.1250780814853
2141.0405830975433 1170.444849856868
2141.6680352595613 1102.2074432002712
2142.2953362378576 1033.8518349934761
2142.9224860679915 1219.310914968291
2143.549484785508 1119.3353087240519
2144.1763324259373 1276.1223395696984
2144.803029024799 1415.435147784409
2145.429574617594 1163.0697945430757
2146.0559692398165 1335.3783211399004
2146.682212926942 1291.920141672273
2147.308305714432 1205.083430138548
2147.9342476377333 1385.1407106996094
2148.5600387322847 1669.725306662293
2149.185679033506 1706.387995172705
2149.8111685768017 1228.4437439231735
2150.4365073975678 1186.0198582163996
2151.061695531187 1289.1448504068542
2151.686733013021 1342.7614586800375
2152.311619878423 1396.5733400496251
2152.9363561627342 1222.6572458022115
2153.560941901278 1188.0089841282297
2154.1853771293663 1376.3565826981778
2154.809661882293 1353.0692224997238
2155.433796195348 1327.6401263686396
2156.0577801037944 1302.0131385429945
2156.681613642895 1451.7290308749375
2157.3052968478896 1201.47150938433
2157.928829754006 1397.4866793731917
2158.552212396462 1293.1399706633076
2159.1754448104566 1188.7943772882422
2159.7985270311783 1114.7370363259056
2160.4214590938027 873.0809977631679
2161.0442410334927 935.6937294389354
2161.6668728853874 1037.2290372058203
2162.289354684628 1138.9892283223594
2162.911686466332 1259.062891533327
2163.533868265602 1375.446609129011
2164.1559001175337 1429.770824604017
2164.7777820572046 1484.125223319195
2165.399514119681 1377.5408585274001
2166.021096340013 1182.429596199341
2166.6425287532384 1492.8247330839329
2167.263811394385 1063.3563606112962
2167.8849442984574 1018.1118165992278
2168.505927500455 972.882683407149
2169.126761035366 1391.7359377241562
2169.7474449381552 1243.1668878455735
2170.367979243778 1361.2964854591335
2170.9883639871823 1479.8029878920622
2171.608599203293 1127.5028392272695
2172.2286849270276 1656.0273298617662
2172.8486211932886 1687.1822892234263
2173.4684080369625 1237.4189983979463
2174.0880454929265 1212.5933505899754
2174.7075335960417 976.3348764298174
2175.3268723811543 1004.6655877066272
2175.9460618831 1033.0821473058534
2176.565102136701 1304.9076716055508
2177.1839931767627 1292.0156718840003
2177.802735038078 1279.1081576354795
2178.421327755432 1235.5453100521659
2179.0397713635866 1175.8479622622096
2179.658065897298 1236.0734921933965
2180.276211391305 1381.9127590503208
2180.8942078803357 1275.1715869974362
2181.5120553991 1426.634013605442
2182.129753982299 1387.9958597135596
2182.7473036646206 1349.2778947736902
2183.3647044807367 1364.263668928995
2183.9819564653044 1312.0598797624039
2184.599059652968 1259.7759118394213
2185.216014078367 1330.1228498850173
2185.832819776113 992.7683365576459
2186.4494767808137 1056.1120370945864
2187.065985127063 1119.5058846070767
2187.682344849436 1227.63049749009
2188.298555982501 1521.6238733058683
2188.9146185608097 1330.169014246291
2189.530532618901 1325.8058108327593
2190.1462981912937 1356.7826158203447
2190.761915312507 1419.1447529828665
2191.377384017036 1191.6376195266698
2191.9927043393654 1320.8642251101153
2192.6078763139667 1442.886787258907
2193.2228999753006 1122.040482475825
2193.837775357808 1274.2405236307163
2194.452502495922 1041.541341006368
2195.0670814240602 1267.2514692300963
2195.6815121766285 1025.8289710176628
2196.2957947880186 1018.6260854376612
2196.9099292926057 1011.4122046909181
2197.523915724758 1222.885919072472
2198.137754118825 1140.196956720259
2198.7514445091456 1616.9878134005457
2199.3649869300443 1210.3782800509707
2199.9783814158327 1699.5144490848973
2200.5916280008096 1658.7108338116245
2201.2047267192593 1602.6088121114449
2201.8176776054515 1221.8900484684814
2202.430480693649 1190.123233931019
2203.0431360180955 1586.5033078807132
2203.6556436130195 1514.8085909673448
2204.268003512645 864.4594104372921
2204.8802157511727 1269.1000129592662
2205.492280362796 1740.6520881636218
2206.1041973816937 1282.6023687629709
2206.715966842032 1270.465339032308
2207.3275887779655 1345.2815544827722
2207.93906322363 1385.0215989485582
2208.550390213153 1427.4784516054335
2209.1615697806465 1251.3864704012472
2209.7726019602105 1225.6678630830913
2210.3834867859277 1255.4475680400874
2210.9942242918787 1285.0929600461036
2211.6048145121167 1418.473309387478
2212.2152574806914 1705.9489876764874
2212.825553231638 1129.8332427557223
2213.435701798975 1244.2604701770117
2214.045703216707 1358.9487707582057
2214.655557518832 909.5275687096007
2215.2652647393297 1076.2106046975402
2215.874824912169 1107.1312418226016
2216.4842380713 1138.2502842736362
2217.09350425067 1095.557519881037
2217.7026234842033 1443.07295258647
2218.311595805819 1417.7909429359893
2218.9204212494133 1262.4346737358178
2219.52909984888 1502.6033553264176
2220.137631638092 1484.885728055054
2220.7460166509154 1467.0372833715455
2221.354254921198 1177.369998976567
2221.9623464827764 1301.8941595383712
2222.5702913694713 1320.3390551832376
2223.178089615096 1458.163638177029
2223.7857412534486 1132.8251480313052
2224.39324631831 1057.526054758726
2225.000604843457 1181.0350104314407
2225.607816862641 1460.5613611781419
2226.214882409611 1412.6289964783732
2226.8218015180973 1347.1840279249432
2227.4285742218217 1287.3280307776322
2228.0352005544864 1111.54960372417
2228.6416805497847 1296.7663853435074
2229.248014241399 1112.7447722977736
2229.8542016629945 1051.007167458772
2230.460242848223 1298.116371569112
2231.0661378307304 1171.8994390217665
2231.671886644139 1045.5662085383012
2232.277489322065 1149.3720367567842
2232.8829458981127 902.9679832668305
2233.48825640587 1227.9492344862897
2234.0934208789095 1723.6723054796705
2234.6984393507955 1503.4202589717188
2235.3033118550793 1539.4505528093557
2235.9080384252975 1286.76103869625
2236.5126190949723 1030.8205090600118
2237.1170538976166 1233.2612292299893
2237.721342866729 1060.2682400711344
2238.32548603579 1350.8866115298795
2238.9294834382763 1356.3717127196737
2239.533335107646 1297.3543734580196
2240.1370410773434 1090.0751804559582
2240.740601380803 1158.4564067720678
2241.3440160514474 1300.4163047103634
2241.9472851226783 1386.752751669735
2242.550408627896 1320.2085100490267
2243.1533866004793 1623.258755705147
2243.756219073799 1216.3306041905296
2244.3589060812064 909.0369194432569
2244.961447656049 1119.545912039228
2245.5638438316564 1023.0203529582266
2246.166094641343 1315.4465480428303
2246.7682001184166 1180.4806430990498
2247.3701602961664 1154.9647088085337
2247.971975207871 1489.975587380145
2248.5736448867974 1555.2903400911268
2249.175169366197 1339.6826344617818
2249.7765486793123 1211.399547280055
2250.3777828593684 1260.0303732571047
2250.9788719395783 1287.7881715603091
2251.579815953146 1237.9651121532534
2252.1806149332606 1114.8996590284958
2252.781268913097 1282.8178828073635
2253.381777925817 1020.6357462733919
2253.9821420045737 1211.1167002081997
2254.5823611825035 1374.9275187080975
2255.1824354927303 1336.8967530014686
2255.782364968365 1083.1596396171183
2256.38214964251 829.1050904531918
2256.9817895482483 1084.7307218603828
2257.5812847186553 1135.1138910755562
2258.180635186791 1050.3959523109893
2258.779840985704 1203.1596199084784
2259.37890214843 1238.8251370856774
2259.97781870799 1234.654449497421
2260.5765906973957 1230.4864283303925
2261.175218149645 1308.5496846612812
2261.773701097718 1302.1474877392438
2262.3720395745895 1129.4149319298253
2262.970233613216 1089.4907657176814
2263.568283246548 1104.7250911526767
2264.1661885075137 1119.9374462263684
2264.763949429038 1169.2533355958024
2265.3615660440246 1459.8770970504395
2265.959038385374 1176.9545048110258
2266.5563664859637 1430.0448258833424
2267.153550378669 1403.0170887997022
2267.7505900963424 1376.0380512107813
2268.3474856718312 1142.6964827151392
2268.9442371379664 1262.7510939107387
2269.5408445275643 1027.4601204220776
2270.1373078734377 1265.3952723110492
2270.7336272083758 999.0547900258355
2271.32980256516 1102.7075569949998
2271.925833976562 1341.440436214611
2272.5217214753357 1468.6188199937626
2273.117465094223 1136.7800057057632
2273.7130648659586 1137.8959559851514
2274.308520823257 1262.1228711490598
2274.903832998827 1442.0444727139968
2275.4990014253563 1152.014843222347
2276.094026135528 1410.8558846751007
2276.6889071620117 1355.762947759897
2277.2836445374614 1300.5099388300998
2277.878238294519 1214.9175225654712
2278.472688465812 1102.032208386793
2279.066995083962 988.9392578610092
2279.6611581815705 1155.6071849661616
2280.255177791232 1116.120393461792
2280.8490539455233 1345.3380575011795
2281.442786677013 1575.0150712466725
2282.0363760182554 1358.6226633554238
2282.6298220017943 1422.2754734068888
2283.223124660155 1486.147534965506
2283.816284025859 1259.8979259518742
2284.4093001314086 1552.0274936944327
2285.002173009292 1519.4323091578938
2285.5949026919952 1486.7584171124493
2286.1874892119777 1234.4179450867782
2286.7799326016993 1373.953461791082
2287.3722328936 911.7587723005314
2287.964390120109 700.272275690146
2288.556404313642 1280.3765639580624
2289.1482755066027 1601.3852269141987
2289.7400037313873 1156.315825630799
2290.3315890203703 1124.075993623872
2290.9230314059205 1077.5769791163502
2291.5143309203904 1031.036084098364
2292.1054875961236 1095.234869743779
2292.6965014654506 1447.885044717509
2293.287372560684 1032.346493460163
2293.878100914131 1079.4582827186673
2294.468686558086 1126.70544041736
2295.059129524827 1314.050670591099
2295.649429846617 1434.917071020161
2296.239587555716 1275.4491896890372
2296.8296026843636 1275.1496841037529
2297.419475264791 1252.4173864159566
2298.0092053292137 1229.5650298743317
2298.598792909839 1324.993839888602
2299.1882380388597 1226.7406084529841
2299.777540748455 1179.5350056689917
2300.3667010707904 1132.1902761686977
2300.9557190380256 1538.7473278652872
2301.544594682302 1692.0803049331582
2302.1333280357503 1116.4053143172807
2302.721919130485 1158.7975392791354
2303.3103679986198 1461.7895735532834
2303.898674672242 1470.8638920143344
2304.486839183437 1324.7267179499854
2305.0748615642697 1178.48889936115
2305.6627418468015 1207.147187324404
2306.2504800630704 1080.875627371001
2306.8380762451143 1171.056863648544
2307.425530424949 1264.6903937482034
2308.012842634582 1358.5289846631863
2308.6000129060103 1376.300443563398
2309.187041271214 1262.5230230385987
2309.773927762164 1148.505954921612
2310.3606724108213 1210.1205402756873
2310.9472752491274 1165.9370765500491
2311.5337363090184 1477.5354425376227
2312.120055622414 1327.371196947626
2312.706233221221 1209.5650885638277
2313.2922691373424 880.0843116792399
2313.8781634026564 1023.0700600599591
2314.463916049037 1166.389472271081
2315.049527108342 1271.3914655462456
2315.6349966124235 1641.692651273021
2316.2203245931123 1543.0526058636322
2316.8055110822315 1252.7208415633481
2317.3905561115935 1169.8689814194245
2317.9754597129977 949.5485919167597
2318.560221918229 942.3360449715868
2319.1448427590603 935.1276656987554
2319.729322267256 1112.1570607276215
2320.313660474563 1068.6691082651932
2320.8978574127195 1226.4550769022699
2321.481913113452 1384.7197699575652
2322.0658276084705 1014.5926215971167
2322.6496009294806 1199.8127046936606
2323.233233108165 1241.6757866734647
2323.8167241762058 1305.4157015316346
2324.4000741652617 1369.2782087976439
2324.983283106987 1513.853139950772
2325.5663510330232 1613.2336719958826
2326.1492779749933 1301.8019299753375
2326.7320639645204 1591.2676074215692
2327.3147090332004 1827.9123595556455
2327.897213212629 1233.3500192587474
2328.4795765343843 1417.4282122900634
2329.0617990300307 980.5355654143963
2329.643880731124 1520.668929779526
2330.22582166921 1035.975827642065
2330.807621875816 932.5917782262019
2331.3892813824623 829.1223207911723
2331.9708002206517 1036.872479506855
2332.5521784218818 1117.7124315016795
2333.133416017634 1198.765941643803
2333.7145130393765 1200.0322001278644
2334.295469518571 1436.4379344862682
2334.876285486658 1635.8517474699283
2335.456960975076 1587.293871525684
2336.037496015242 1538.6549486836877
2336.6178906385667 1311.1001213016373
2337.198144876451 1561.0657221655936
2337.778258760278 1166.6540216312892
2338.3582323214214 833.1367149866628
2338.938065591243 1136.6981827498237
2339.517758601087 1461.568374731513
2340.0973113822965 1473.4865811260913
2340.676723966193 1205.9396106986355
2341.255996384094 1410.9240072665905
2341.835128667295 1599.0321909728625
2342.4141208470883 1242.5044189846371
2342.992972954751 1487.981065509022
2343.5716850215467 1302.2443860813942
2344.1502570787306 779.4247292661034
2344.7286891575386 915.6427182128915
2345.3069812892045 1137.2356390909852
2345.885133504944 1359.113544256144
2346.4631458359618 1354.8733465056557
2347.04101831345 1026.4657683595065
2347.6187509685915 1208.42383083304
2348.196343832553 1200.4321684914964
2348.7737969364935 1277.9659184305692
2349.351110311558 1168.7297504287162
2349.9282839888765 1059.3876694524092
2350.5053179995757 998.9180723923082
2351.0822123747585 1218.4676131954827
2351.658967145526 1060.9197298913598
2352.2355823429643 1373.9301671627056
2352.812057998144 1139.164443835431
2353.3883941421263 980.4251312774844
2353.9645908059647 1236.4031549479564
2354.540648020693 1035.2839877806882
2355.116565817336 1264.6221305597198
2355.6923442269126 1035.7926738604142
2356.2679832804224 1248.864146670829
2356.8434830088518 1239.5958503099241
2357.41884344318 959.4724236676011
2357.994064614377 827.5524300200195
