#exp_cfg={"servo_angle": 0.0, "laser_lim": 100.0, "servo_angle_to": 18.0, "laser_wup": 0.0, "bt_dev": "EnSpectr-25AE3", "laser_wdn_max": 0.0, "frames": 10.0, "servo_used": 0, "servo_calib_use": 0, "laser_wdn_min": 0.0, "servo_pix_from": 90.0, "cooler_tout": 300.0, "servo_angle_from": 0.0, "servo_calib": "[-1.9174921013161362e-09, 3.9322238269163779e-05, -0.27385609119055809, 653.59552119713567]", "laser_autoctl": 0, "servo_pix_to": 3682.0, "laser_pw": 100.0, "cooler_on": 0, "laser_volt": 4.0, "cooler_autoctl": 0, "cooler_curr": 70.0, "cooler_startup": 10.0, "laser_fixed_pw": 0, "gain": 1.3, "offset": 2.53059635486, "servo_calib_degree": 3.0, "laser_curr": 55.0, "shutter": 8200.0, "servo_calib_step": 1.0, "laser_fixed_curr": 0, "exp": 2000.0, "ccd_volt": 4.7, "bt_addr": "00:06:66:62:5A:E3", "servo_delay": 500.0, "laser_autooff": 1}
#proc_cfg={"flat_auto_wnd": 200.0, "flat_auto_fr": 200.0, "flat_auto_shift": 5.0, "yconv": 1, "flatten": 1, "flatten_strength": 100.0, "xfrom": 300.0, "auto_max_frame": 2000.0, "auto_signal": 48000.0, "flat_auto_tol": 0.1, "autoclip": 1, "xrel_range": 0.0, "flat_auto_to": 4000.0, "intensity_adj": 1.0, "xrel": 7852.0, "rmhot": 1, "flat_auto_slit": 4.999999999999997, "auto_ini_exp": 300.0, "auto_off": 0, "xto": 2860.0, "flat_auto_ref": "", "flat_auto_rank": 1, "autobackg": 0, "xrel_adj": 0.0, "auto_black_lvl": 1, "base_wnd": 100.0, "sub_baseline": 0, "xconv": 2, "auto_max_exp": 1000.0, "auto_total_exp": 10000.0, "auto_exp": 0, "rmripple": 0, "black_lvl": 8261.025, "shutter_clip_adj": 0.0, "auto_bckg": 0, "flat_auto_thr": 0.9, "subbackg": 1}
316.8218498245369 12893.770541689179
317.89969571804795 12733.735149189228
318.977263876126 12794.808619729478
320.05455438786703 12631.975631672565
321.1315673423287 12671.608890217529
322.2083028285215 12711.785399847959
323.2847609354267 12662.971062801833
324.3609417519747 12629.312324462659
325.43684536705587 12568.491139037276
326.5124718695279 12564.551753432692
327.58782134820103 12546.889074453979
328.66289389184385 12527.796138653124
329.7376895891921 12379.881123379078
330.8122085289342 12426.031509497798
331.88645079971866 12444.71235225783
332.9604164901575 12418.815380018543
334.03410568881554 12359.60268684314
335.1075184842266 12450.76314192539
336.18065496487543 12278.199888835692
337.2535152192122 12360.780335732714
338.32609933564163 12308.353889541499
339.39840740253203 12167.318999529058
340.4704395082099 12190.187085395592
341.5421957409617 12117.351564359313
342.6136761890357 12244.962914865771
343.6848809406365 12105.675922656015
344.75581008392874 12026.450927010057
345.82646370703696 12031.733301991166
346.8968418980512 11986.917365926103
347.96694474501055 12106.344408524654
349.0367723359268 11991.006027149275
350.106324758759 11983.856740612388
351.1756021014353 11869.688932016405
352.2446044518383 11882.929670657755
353.31333189781435 11912.462469579004
354.38178452716966 11844.305788661612
355.449962427665 11807.84792153328
356.51786568702846 11783.52338784727
357.58549439294256 11877.349146934823
358.6528486330535 11833.082722656061
359.71992849496564 11708.773833286521
360.7867340662433 11820.359694966077
361.8532654344144 11763.756597588083
362.9195226869597 11708.98008857176
363.9855059113288 11626.42269610443
365.05121519492604 11560.350651258606
366.11665062511565 11656.10145560964
367.1818122892273 11605.470109794813
368.2467002745434 11589.814295282862
369.31131466831175 11586.423057523443
370.375655557742 11513.621879285218
371.4397230299983 11522.975054725128
372.5035171722102 11447.161797913333
373.5670380714637 11457.50317543401
374.6302858148101 11538.529911410891
375.6932604892554 11513.123845326509
376.7559621817709 11423.950353007593
377.81839097928605 11305.143218378027
378.8805469686886 11398.069363293518
379.94243023683157 11308.250382208762
381.0040408705263 11294.45856422225
382.0653789565458 11247.079356203074
383.1264445816196 11341.137480907855
384.1872378324406 11326.522711470552
385.2477587956637 11276.412481916117
386.3080075579037 11260.863356509779
387.3679842057336 11141.929932366023
388.4276888256918 11178.391042069272
389.48712150426945 11135.661521858825
390.54628232792857 11094.496530887507
391.6051713830857 11064.447054994025
392.66378875611736 11055.096715333268
393.7221345333637 11046.22032943297
394.7802088011249 11017.517485004466
395.838011645661 11076.53988628124
396.89554315319765 10941.604987365183
397.9528034099112 10868.931696895705
399.00979250194723 10838.05238482304
400.06651051541485 10886.983099604478
401.1229575363741 10944.834780897032
402.17913365085224 10860.879156861316
403.23503894483656 10926.017903118196
404.2906735042761 10801.321122696854
405.3460374150818 10754.638298864587
406.401130763119 10797.257394011782
407.455953634224 10736.977624602421
408.5105061141876 10696.724065629494
409.56478828876243 10631.583141245002
410.6188002436629 10629.162228738027
411.6725420645689 10650.946299057872
412.72601383711117 10636.080595938784
413.77921564689314 10679.540922888647
414.8321475794728 10585.060667028261
415.88480972036814 10503.931601718406
416.93720215506437 10543.178765539098
417.9893249690049 10489.173985947442
419.04117824759123 10433.80079038181
420.09276207619223 10493.778230192102
421.144076540133 10407.758162163122
422.1951217247042 10396.961839621705
423.24589771515275 10461.690118546863
424.2964045966928 10366.71879575247
425.34664245449494 10379.545981224004
426.3966113736933 10378.496578365826
427.4463114393875 10279.999707000617
428.49574273662984 10301.212841538134
429.5449053504417 10281.184699708527
430.5937993658026 10341.420728074041
431.6424248676558 10233.863650770045
432.6907819409007 10201.284995576749
433.73887067040596 10217.422858835158
434.7866911409965 10210.755239866363
435.8342434374608 10198.95262644989
436.88152764455117 10180.783330664137
437.9285438469724 10212.114469175272
438.9752921294057 10134.407773144649
440.02177257648145 10176.328677768306
441.06798527279716 10017.247333347996
442.1139303029122 10167.607703805592
443.1596077513459 10193.045600874155
444.2050177025794 10101.058579527285
445.25016024105753 10121.495255986096
446.2950354511886 10089.940598311454
447.33964341733736 10045.81692554101
448.383984223834 10018.176092288786
449.4280579549686 9939.7635694243
450.471864694995 10075.413905934776
451.5154045281306 10073.39623560668
452.5586775385509 10032.127186840513
453.60168381039693 10001.002992569147
454.64442342776783 10077.695133865442
455.6868964747264 10020.953326590914
456.7291030353008 9967.329418555626
457.77104319347563 9995.950987148815
458.8127170332027 9956.493542935717
459.854124638392 9998.100904924995
460.895266092919 10076.962638187139
461.93614148061897 10093.75970789815
462.97675088529104 10046.822883789737
464.01709439069236 10032.403188180064
465.0571720805492 10065.856567098426
466.0969840385442 10141.521762784407
467.1365303483253 10238.510814091414
468.17581109350067 10062.217411876372
469.2148263576437 10083.522087303021
470.2535762242878 10171.212399051929
471.29206077693016 10238.366814428668
472.33028009902773 10251.632021951022
473.3682342740012 10116.41301932503
474.40592338523857 10100.49084668724
475.4433475160804 10118.50746017637
476.4805067498364 10169.187684691427
477.51740116978 10127.452361714562
478.5540308591426 10116.35130350506
479.59039590112116 10190.298794750375
480.6264963788726 10123.563343283755
481.6623323755193 10179.685400052302
482.6979039741436 10087.012846895772
483.7332112577915 10221.281902111677
484.76825430947247 10285.508276860532
485.80303321215797 10180.446137737186
486.837548048783 10206.090102473081
487.8717989022425 10290.649822046946
488.90578585539697 10298.147588678896
489.9395089910686 10323.654027967084
490.97296839203955 10187.847139233485
492.00616414106116 10126.99983171104
493.0390963208429 10119.364567506691
494.0717650140559 10130.145660019925
495.10417030333883 10061.854898391688
496.1363122712901 10053.041429492943
497.16819100046814 9945.248583184544
498.1998065734024 9828.5863334688
499.2311590725767 9860.960249515127
500.26224858044407 9739.259308568217
501.2930751794156 9774.59946535438
502.3236389518679 9756.994588810634
503.35393998014115 9616.722409656732
504.38397834653733 9625.139239220416
505.4137541333221 9759.838849564896
506.4432674227228 9624.679177731603
507.4725182969323 9589.997228572587
508.5015068381035 9535.30681563926
509.53023312835467 9655.302162555387
510.55869724976765 9634.632867652468
511.58689928438434 9502.796848308337
512.6148393142121 9514.93639723229
513.6425174212218 9620.911082037255
514.6699336873462 9537.529080916556
515.6970881944835 9488.943619820346
516.7239810244901 9417.945975494802
517.7506122591931 9427.605022988606
518.7769819803761 9389.217548403012
519.8030902697901 9436.697309413204
520.8289372091476 9405.242999444892
521.8545228801249 9475.91995552999
522.8798473643619 9397.370631641397
523.9049107434621 9411.345501600696
524.9297130989908 9454.910096239098
525.9542545124805 9349.162099652736
526.9785350654201 9361.526219573341
528.0025548392696 9442.149459737748
529.0263139154504 9302.031276426094
530.0498123753423 9453.829302454089
531.073050300296 9354.901132250043
532.0960277716204 9264.875052523148
533.1187448705896 9387.27323026484
534.1412016784416 9282.495445374272
535.1633982763833 9321.79235357742
536.1853347455726 9317.068580833811
537.2070111671401 9286.175815927956
538.2284276221817 9249.266379700097
539.2495841917516 9168.328286997055
540.2704809568677 9152.747982576817
541.2911179985167 9185.730434773395
542.3114953976419 9194.12621030748
543.3316132351592 9144.706813135615
544.3514715919409 9053.321735463633
545.3710705488247 9062.212738662307
546.3904101866156 9061.145933662834
547.4094905860784 9122.64721552841
548.4283118279418 9092.415175860568
549.4468739929034 9155.39365394349
550.4651771616191 9080.449785004977
551.4832214147063 9020.601411967666
552.501006832761 9095.834284972505
553.5185334963226 9037.946416830557
554.5358014859103 9097.720753860467
555.5528108820035 9060.906923973022
556.5695617650363 9030.609645781187
557.5860542154242 9064.412720266304
558.6022883135283 9048.277865724021
559.6182641396881 9004.273128463537
560.6339817741991 9089.735271996415
561.6494412973225 9060.695172005377
562.6646427892883 9165.772293971506
563.6795863302796 9005.23369763171
564.694272000459 8971.713992680097
565.7086998799423 9149.106046707726
566.7228700488104 9089.581609322287
567.7367825871115 8931.906315451477
568.7504375748576 8988.126629217913
569.7638350920224 8973.833161575927
570.7769752185486 8929.020243740018
571.7898580343353 8957.105021380132
572.802483619258 8855.800468795935
573.8148520531431 8959.196782623449
574.8269634157932 8973.548484236244
575.8388177869692 8811.09302499086
576.8504152463938 8848.298339877594
577.8617558737587 8879.12567463491
578.8728397487175 8742.971401045183
579.883666950891 8789.31386292123
580.8942375598654 8886.454220007774
581.9045516551851 8879.774179284974
582.9146093163617 9030.24085205183
583.924410622878 8848.005082388743
584.9339556541727 8882.77955272276
585.9432444896538 8951.986810563914
586.9522772086875 8849.975810504166
587.9610538906127 8910.3596541049
588.9695746147318 8892.28618384632
589.9778394603054 8898.567817512709
590.985848506567 8843.20298578569
591.9936018327098 8743.949150890654
593.0010995178891 8700.087074534149
594.0083416412344 8787.843620169193
595.0153282818283 8622.47924046211
596.0220595187293 8552.391747261712
597.0285354309508 8549.980342453173
598.0347560974806 8659.018195872688
599.0407215972609 8567.984720290811
600.0464320092051 8570.662692715372
601.0518874121954 8547.272124022742
602.0570878850685 8570.606299881867
603.062033506636 8595.562390742347
604.0667243556636 8598.323657098874
605.0711605108936 8448.59423752215
606.0753420510264 8672.842021709988
607.0792690547278 8571.780142241125
608.082941600629 8484.592567850234
609.0863597673306 8560.2353984848
610.0895236333909 8630.082227882976
611.0924332773357 8785.679948448993
612.0950887776617 8646.416820647933
613.0974902128219 8690.592540648428
614.0996376612384 8858.434276423115
615.1015312013005 8897.340841958532
616.1031709113595 8955.634154311203
617.1045568697336 8831.314544292632
618.1056891547069 8993.942204196248
619.1065678445229 9082.882249764803
620.1071930173985 9263.07402086026
621.1075647515099 9231.695725156776
622.1076831250048 9240.071565509626
623.1075482159849 9265.605852050401
624.1071601025305 9225.4253586597
625.1065188626781 9224.434864427452
626.105624574433 9373.134118425787
627.1044773157682 9318.976122600787
628.1030771646128 9292.753164287877
629.1014241988742 9354.002894224795
630.0995184964158 9363.382394070886
631.0973601350688 9429.202262562003
632.0949491926294 9466.826548732332
633.0922857468631 9232.541771457025
634.089369875499 9324.271734202524
635.0862016562278 9343.75622457133
636.0827811667077 9141.189928031814
637.0791084845641 9216.568332969573
638.0751836873878 9045.712262596817
639.0710068527369 9153.695294301431
640.0665780581294 9058.505352022008
641.0618973810506 9003.450496192283
642.0569648989604 9093.795787983241
643.0517806892676 8898.881750536155
644.0463448293649 9027.21428542308
645.040657396592 8856.455476901941
646.0347184682723 8786.509179868117
647.0285281216875 8740.523612680905
648.0220864340772 8688.146883178153
649.0153934826558 8679.13805109409
650.0084493446047 8669.699555500672
651.0012540970674 8664.722003802235
651.9938078171526 8598.092689618174
652.9861105819346 8553.715245862764
653.9781624684565 8634.648393876123
654.9699635537254 8453.113843203935
655.9615139147136 8559.808900533582
656.9528136283589 8421.96498436631
657.9438627715699 8507.902394180794
658.9346614212154 8428.826273976998
659.925209654135 8211.187724039428
660.9155075471263 8319.973141347999
661.9055551769616 8324.314702603971
662.895352620375 8419.199775117251
663.8848999540678 8191.665604348845
664.8741972547068 8145.233693209101
665.863244598926 8159.905468214127
666.8520420633213 8175.975547474089
667.8405897244611 8061.795513840791
668.8288876588758 8044.802092966891
669.8169359430613 8161.618412889438
670.8047346534822 8091.493147450087
671.7922838665672 8007.339774788439
672.7795836587156 8023.880563388545
673.766634106285 8251.824571852261
674.7534352856092 8007.255351716158
675.7399872729766 7920.25603598494
676.7262901446538 8035.8896772876815
677.712343976862 8030.374191474557
678.6981488457986 8081.908527007146
679.6837048276229 7865.734279612266
680.6690119984596 7967.316957798919
681.6540704344043 7944.622622847184
682.6388802115107 7958.108288072724
683.6234414058108 7975.914551538599
684.6077540932874 7860.792630942151
685.591818349907 7935.390792610067
686.575634251587 7933.836788986604
687.5592018742263 7846.36672902043
688.5425212936734 7784.123758922254
689.5255925857564 7917.23046749619
690.5084158262707 7912.868584563786
691.4909910909646 7839.815725574973
692.4733184555644 7794.894077102903
693.4553979957618 7852.961558468158
694.4372297872123 7965.837303778433
695.4188139055404 7890.238745907796
696.4001504263324 7766.681405742411
697.3812394251509 8016.108658171263
698.3620809775111 7912.607282374901
699.3426751589104 7878.495628634718
700.3230220448004 7913.601962197911
701.3031217106054 7935.433258251369
702.2829742317172 8132.757171913548
703.2625796834873 7917.728419344145
704.2419381412474 7975.453020142675
705.22104968028 8137.084223773005
706.1999143758458 8094.593820853088
707.178532303169 8088.893805873946
708.1569035374378 8232.231493975287
709.1350281538107 8321.40901251214
710.1129062274158 8371.060369693674
711.0905378333373 8578.927728083041
712.0679230466376 8613.622570896394
713.0450619423427 8912.605439879266
714.0219545954424 9118.341557642416
714.9986010808989 9251.43297917146
715.9750014736292 9551.07573931876
716.9511558485392 9793.34842683817
717.9270642804786 10059.696111214715
718.9027268442787 10217.557570197274
719.8781436147328 10305.412044542809
720.8533146666014 10397.17276308626
721.828240074612 10436.879665666585
722.8029199134635 10323.355571474993
723.7773542578125 10196.655064334243
724.751543182294 10064.922760489326
725.7254867615029 9847.48887264551
726.6991850700015 9629.953625075683
727.6726381823228 9490.770043826378
728.6458461729599 9366.589993167521
729.6188091163858 9299.289972223309
730.5915270870246 9245.388043393421
731.5640001592856 9204.040763566607
732.536228407529 9245.164097254132
733.5082119060917 9333.187014443813
734.4799507292755 9315.621136106543
735.4514449513481 9376.402088169074
736.4226946465496 9472.049338788423
737.3936998890786 9529.956702045538
738.3644607531078 9346.674362068981
739.3349773127793 9198.552543136782
740.3052496421951 9130.680436034349
741.27527781543 8865.057176466735
742.2450619065221 8680.80196576052
743.2146019894826 8696.1058790762
744.183898138288 8394.383259791957
745.1529504268801 8276.811779916694
746.1217589291682 8075.15480579754
747.0903237190341 7918.106472673504
748.058644870318 7803.4066856699865
749.0267224568397 7735.087937392018
749.994556552374 7588.568460767607
750.9621472306771 7543.709780649902
751.9294945654583 7501.20385948561
752.8965986304011 7498.959686736356
753.8634594991636 7333.459395679432
754.8300772453586 7524.706618787951
755.7964519425768 7322.7322540165815
756.762583664371 7349.913807793777
757.7284724842611 7367.097224787501
758.6941184757416 7295.595238478802
759.6595217122667 7331.884870598095
760.6246822672638 7322.992674372565
761.5896002141235 7173.631439890251
762.5542756262093 7254.1884825832285
763.5187085768503 7293.184489383208
764.4828991393406 7235.0260096566835
765.4468473869474 7194.155214278922
766.4105533929032 7239.555149322911
767.3740172304078 7134.7229573836275
768.3372389726283 7170.640216504544
769.3002186926988 7082.9093100492555
770.2629564637282 7098.27606394725
771.2254523587872 7110.469236892162
772.1877064509154 7120.935705281455
773.1497188131179 6965.82247556372
774.1114895183728 7017.132400013882
775.0730186396268 7030.067540970247
776.0343062497905 7000.420502393591
776.9953524217381 6980.754111155907
777.9561572283274 7011.49294004615
778.9167207423689 6943.211271824267
779.8770430366476 6854.516841096386
780.8371241839159 6914.563105344763
781.7969642568951 6904.593666776459
782.7565633282757 7062.497601242487
783.7159214707099 6938.176125301802
784.6750387568281 6975.243043330284
785.6339152592227 6869.225513669897
786.5925510504512 6861.128128637142
787.5509462030477 6987.880074611892
788.5091007895098 6932.247181548753
789.4670148823006 6901.410599836524
790.4246885538596 6846.338348892316
791.3821218765861 6872.5372435068275
792.3393149228505 6797.166892782967
793.2962677649975 6868.437923010031
794.2529804753303 6865.903548259994
795.20945312613 6889.555985511924
796.1656857896378 6766.851926031179
797.1216785380675 6869.701579710728
798.0774314435985 6859.451351065899
799.0329445783846 6888.82984647799
799.9882180145414 6881.482533397784
800.9432518241574 6830.11161230286
801.89804607929 6894.216396583926
802.852600851962 6898.63335474094
803.8069162141637 6887.789970948754
804.760992237856 6908.364019687733
805.714828994971 6946.912260570767
806.6684265574077 7016.680035642721
807.6217849970271 6890.609676037098
808.574904385674 6818.880258938481
809.527784795142 6910.440525980026
810.4804262972102 6936.906954705625
811.4328289636178 6842.060988912366
812.3849928660748 6753.021057578905
813.3369180762638 6787.840722620252
814.2886046658241 6873.533791154145
815.2400527063783 6832.341031498241
816.1912622695108 6804.493699051754
817.1422334267718 6814.680273046395
818.0929662496856 6691.945647793483
819.0434608097457 6595.8024903586265
819.9937171784059 6665.636879391725
820.9437354271013 6619.177412399743
821.8935156272255 6633.019801454869
822.8430578501484 6551.084470590083
823.7923621672016 6420.298081502442
824.7414286496896 6489.878929651667
825.6902573688876 6556.133307442664
826.6388483960363 6587.241232687918
827.5872018023492 6504.206346962657
828.5353176590033 6521.045729784197
829.4831960371503 6447.206034205021
830.4308370079016 6427.292966405246
831.3782406423525 6519.903588868786
832.3254070115545 6468.5356753329725
833.2723361865319 6443.125149649462
834.2190282382799 6306.038807802864
835.1654832377644 6399.406652280475
836.1117012559116 6400.496531272225
837.0576823636256 6461.596415313946
838.003426631778 6284.849566834781
838.9489341312074 6243.25971386357
839.8942049327197 6434.570375981048
840.8392391070975 6443.588345359576
841.7840367250865 6311.238058246797
842.7285978573982 6323.382870882646
843.672922574724 6362.648331809981
844.6170109477152 6361.1903050078245
845.560863046996 6289.255786571073
846.5044789431595 6323.385527933748
847.4478587067697 6247.352077719991
848.3910024083561 6381.176648691298
849.333910118421 6348.562126132715
850.2765819074339 6274.19279078057
851.2190178458332 6394.996793690609
852.161218004032 6392.650613028666
853.1031824524016 6347.840541902756
854.0449112612987 6310.730475077421
854.9864045010327 6419.497568699374
855.9276622418947 6284.294860429182
856.8686845541379 6309.550383812142
857.8094715079915 6345.985624244933
858.7500231736467 6420.017976993417
859.690339621271 6336.970835396794
860.6304209209939 6340.039707172167
861.5702671429244 6280.502783619794
862.5098783571284 6323.912296589531
863.4492546336569 6347.464548875576
864.3883960425155 6287.212154511191
865.3273026536863 6290.920685803042
866.2659745371238 6216.9474998923815
867.2044117627465 6391.694352676909
868.1426144004472 6291.910385545885
869.0805825200823 6322.87111335581
870.0183161914847 6283.281366342239
870.9558154844526 6376.416888094793
871.8930804687552 6352.923469553595
872.8301112141307 6224.786008136167
873.7669077902865 6413.777139570886
874.7034702669062 6422.735117441918
875.6397987136315 6267.467619025169
876.5758932000863 6335.364011242188
877.5117537958522 6398.36134429198
878.4473805704911 6294.34618114498
879.3827735935283 6273.256122411651
880.3179329344603 6410.24252424203
881.2528586627541 6439.205539026964
882.1875508478479 6436.833644750361
883.1220095591489 6268.945280086262
884.0562348660296 6290.303158808757
884.9902268378391 6416.748871690308
885.9239855438955 6283.421685194607
886.8575110534839 6312.266045681842
887.7908034358588 6256.471474870321
888.7238627602474 6294.490937023287
889.6566890958475 6330.328061356815
890.5892825118208 6163.493931886118
891.5216430773125 6260.727741472932
892.4537708614189 6240.874135142464
893.3856659332196 6164.835610496948
894.3173283617652 6132.556636139577
895.2487582160684 6236.3404743185765
896.179955565116 6212.117189945392
897.110920477864 6077.65331024223
898.0416530232451 6058.043436725833
898.9721532701478 6065.007952132599
899.9024212874428 6195.52896191323
900.8324571439662 6153.807610847465
901.7622609085302 6036.527647360575
902.6918326499072 5984.295706591083
903.6211724368477 6065.332237422431
904.5502803380696 6141.423883332471
905.4791564222614 6156.996820952157
906.4078007580792 6042.337285839888
907.3362134141571 6038.213060613619
908.2643944590909 6203.697749522134
909.1923439614493 6039.021317323968
910.1200619897754 6030.265758379758
911.0475486125779 6282.880005747663
911.9748038983344 6090.7579218845285
912.9018279155007 6091.70626918918
913.8286207324982 6018.774818261998
914.7551824177117 6091.826971679648
915.6815130395116 6063.568956981944
916.6076126662283 5924.939105094362
917.533481366163 5979.226638791148
918.4591192075914 6049.7143190815395
919.3845262587565 6062.545238596247
920.3097025878706 5927.102570680647
921.2346482631237 5897.394864958711
922.1593633526682 5994.486814841477
923.0838479246304 6051.724891780074
924.0081020471061 6032.986203062944
924.9321257881656 5807.266420429176
925.8559192158464 5940.006545237234
926.7794823981512 5843.1994315647335
927.7028154030686 5805.200248464275
928.6259182985414 5766.663819615771
929.5487911524906 6009.851744174395
930.4714340328119 5937.119326956541
931.3938470073608 5783.283278651228
932.3160301439748 5801.575305197875
933.2379835104548 5805.640689382439
934.1597071745709 5907.921943725716
935.0812012040769 5852.683841077333
936.002465666681 5919.878323861192
936.9235006300696 5918.4157371060155
937.8443061619055 5919.636371045304
938.7648823298077 5745.32601331714
939.6852292013809 5762.417699525637
940.6053468441951 5853.43677956944
941.5252353257874 5810.725888143719
942.4448947136698 5918.164068593757
943.364325075323 5848.619684030937
944.2835264782043 5836.268178107718
945.2024989897309 5827.330054488693
946.1212426773054 5860.215636179273
947.0397576082851 5885.345893669213
947.9580438500125 6051.996171887891
948.8761014697939 6042.174949846735
949.7939305349064 6008.000913358737
950.7115311125999 5943.90675124975
951.6289032700952 5916.586361554289
952.5460470745875 6072.58575358275
953.4629625932339 5905.4122831861305
954.3796498931715 5979.6398702188
955.2961090415029 6050.304009240103
956.2123401053068 6056.326632037899
957.1283431516276 5981.258140969142
958.0441182474842 5919.062665245358
958.9596654598663 6151.607021226785
959.8749848557309 5916.3207978963055
960.7900765020167 5875.895692148007
961.7049404656209 5883.093495935882
962.6195768134185 5831.804230600939
963.5339856122537 5956.503852217
964.4481669289453 5976.344556573479
965.3621208302793 5841.765379390454
966.2758473830145 5799.294662191956
967.1893466538822 5955.4067676278755
968.1026187095813 5846.959107153349
969.0156636167867 5712.474769286762
969.9284814421426 5775.774328038095
970.8410722522622 5767.279032302269
971.753436113735 5746.414559231986
972.6655730931161 5685.776977850388
973.5774832569368 5761.542878892643
974.4891666716958 5681.686039600446
975.4006234038698 5640.927619068651
976.3118535198955 5609.26172745714
977.2228570861935 5700.813236597929
978.1336341691494 5687.090192803358
979.0441848351202 5545.433371018955
979.9545091504333 5645.277768079369
980.864607181391 5600.677474004338
981.7744789942699 5645.267641367642
982.6841246553086 5534.210533099
983.5935442307236 5637.639804795061
984.5027377867027 5633.851498532976
985.4117053894024 5605.059242603575
986.3204471049557 5522.649357083309
987.2289629994648 5679.452656044034
988.1372531390007 5680.473804732519
989.0453175896091 5649.43898547512
989.9531564173067 5639.380043604081
990.860769688079 5500.562990118502
991.7681574678918 5541.012769609267
992.6753198226706 5582.736897220326
993.582256818323 5516.328191355605
994.4889685207218 5497.131845429727
995.3954549957143 5647.650885183738
996.301716309119 5665.939510184109
997.2077525267232 5557.312272979072
998.1135637142943 5617.2061521550895
999.0191499375615 5627.168046424356
999.924511262232 5683.6189995732775
1000.8296477539861 5632.143325411441
1001.7345594784656 5540.897628255794
1002.6392465012996 5540.680779074535
1003.5437088880753 5660.861680989759
1004.4479467043584 5689.863987987104
1005.3519600156869 5511.556048881077
1006.2557488875718 5675.875798524968
1007.1593133854858 5638.873708625545
1008.0626535748888 5530.871096732427
1008.9657695212009 5434.7258074501715
1009.8686612898182 5694.579950246765
1010.7713289461135 5641.112690172906
1011.6737725554212 5558.614183690417
1012.5759921830577 5522.122480894281
1013.4779878943027 5611.1180034332565
1014.379759754418 5681.095579120896
1015.2813078286254 5539.722677827324
1016.18263218213 5513.418377086538
1017.0837328801026 5511.59921238579
1017.9846099876886 5575.7581171576485
1018.8852635700023 5446.451279397106
1019.7856936921362 5385.862397177576
1020.6859004191447 5524.514321018598
1021.5858838160675 5447.641467341609
1022.4856439479063 5401.470517898455
1023.3851808796389 5369.836168149819
1024.2844946762143 5501.133662572493
1025.183585402554 5485.184614037686
1026.082453123554 5295.801851657777
1026.9810979040776 5449.7383598768265
1027.8795198089647 5348.481870309024
1028.777718903024 5425.637742119738
1029.6756952510368 5379.541484301977
1030.5734489177648 5363.146338981098
1031.4709799679313 5312.651505560944
1032.3682884662358 5460.71106856079
1033.2653744773506 5255.776119498654
1034.1622380659192 5320.486945912554
1035.058879296559 5477.098200502858
1035.9552982338591 5551.501463206302
1036.8514949423825 5445.483197167524
1037.7474694866614 5453.941325474739
1038.6432219312028 5426.571476670389
1039.5387523404825 5666.739186988571
1040.4340607789582 5666.447225944715
1041.3291473110476 5734.343358711081
1042.2240120011465 5845.561012185134
1043.1186549136273 5864.573702513899
1044.0130761128294 5861.162904445236
1044.9072756630649 5920.24513040594
1045.8012536286205 6088.628932634821
1046.6950100737577 6071.192536121215
1047.588545062701 6183.145167929659
1048.481858659663 6186.857449138746
1049.3749509288118 6255.618287637789
1050.2678219343034 6187.089497508054
1051.1604717402515 6228.678429268449
1052.0529004107575 6200.072822212185
1052.9451080098825 6220.024550618881
1053.8370946016694 6251.40378149486
1054.7288602501267 6181.620422909838
1055.6204050192446 6088.470208628369
1056.511728972977 6062.3395905761145
1057.402832175254 5946.904599315121
1058.2937146899785 5881.903512465129
1059.1843765810263 5772.540896216822
1060.0748179122456 5863.889845442796
1060.9650387474576 5622.651679004031
1061.855039150456 5640.320438499016
1062.7448191850071 5638.985730718183
1063.6343789148505 5636.416514652747
1064.5237184037014 5684.785291157861
1065.412837715241 5534.374689826016
1066.3017369131267 5483.048068627917
1067.190416060992 5402.673892745607
1068.0788752224398 5376.568228281324
1068.9671144610438 5379.670688972854
1069.8551338403558 5395.091701382162
1070.7429334239023 5445.474917649223
1071.6305132751695 5346.744827028195
1072.517873457633 5375.110621323491
1073.4050140347335 5387.098090547559
1074.2919350698776 5355.512396654625
1075.1786366264623 5314.807808557379
1076.0651187678395 5347.306641390399
1076.95138155735 5300.6558166887435
1077.8374250582929 5366.899434480909
1078.7232493339507 5378.076342979113
1079.608854447577 5324.0031698187495
1080.4942404623907 5276.283945205174
1081.3794074415982 5407.727630011153
1082.2643554483657 5490.761743079563
1083.149084545841 5478.408074759498
1084.033594797138 5502.498314726886
1084.9178862653516 5471.139753383801
1085.8019590135427 5622.126830624948
1086.6858131047484 5482.624548027971
1087.5694486019802 5654.495059566099
1088.4528655682225 5624.469216504225
1089.3360640664287 5769.376388118792
1090.2190441595321 5704.991666599345
1091.1018059104317 5770.158645987485
1091.98434938201 5836.544300461064
1092.866674637111 5904.997634539871
1093.748781738559 5770.738181705054
1094.6306707491512 5672.339843056502
1095.5123417316554 5919.612191006209
1096.3937947488157 5701.336685009974
1097.2750298633455 5747.850106319936
1098.156047137938 5705.087431236514
1099.0368466352556 5730.352301618908
1099.9174284179317 5820.625115639525
1100.7977925485757 5603.419215532393
1101.6779390897755 5590.038843000354
1102.5578681040806 5596.146140529807
1103.4375796540226 5557.219152396423
1104.3170738021054 5493.001192332176
1105.1963506108077 5350.3248957900305
1106.0754101425773 5361.086000423913
1106.9542524598382 5368.618640528513
1107.8328776249855 5274.416982145338
1108.7112857003904 5200.83763251486
1109.5894767483987 5194.126900344856
1110.4674508313292 5333.673416833812
1111.3452080114657 5203.322334342457
1112.2227483510815 5198.438365333306
1113.1000719124077 5207.814585160986
1113.9771787576592 5223.828877773696
1114.854068949022 5113.942448267857
1115.7307425486542 5226.446663198662
1116.6071996186893 5220.590675524947
1117.483440221229 5463.844077455777
1118.3594644183577 5137.387557664666
1119.235272272128 5175.7565183786655
1120.1108638445658 5265.957733818418
1120.9862391976712 5369.058612198863
1121.8613983934229 5321.753917397887
1122.7363414937627 5374.061501058175
1123.6110685606182 5308.516814380422
1124.485579655884 5421.776647745931
1125.359874841426 5385.713818422663
1126.2339541790916 5385.86029686472
1127.1078177306936 5587.702851011777
1127.9814655580267 5403.410283802312
1128.854897722851 5424.970898833255
1129.7281142869106 5410.026282887703
1130.6011153119125 5403.923390788469
1131.473900859548 5629.932359668634
1132.3464709914697 5458.592105924441
1133.2188257693178 5372.152050980592
1134.0909652546961 5301.711966963207
1134.96288950919 5293.029228907921
1135.8345985943506 5350.95955915478
1136.7060925717087 5277.145224590538
1137.57737150277 5302.161088559655
1138.4484354490069 5369.25926331735
1139.3192844718778 5185.044357337459
1140.1899186327992 5082.476358357131
1141.060337993178 5259.460315277739
1141.930542614382 5213.034663743632
1142.8005325577597 5110.713971830064
1143.670307884635 5008.848589505233
1144.5398686563003 5178.356975255274
1145.409214934025 5119.675598953467
1146.2783467790541 4944.839706725887
1147.1472642526023 5087.625795816556
1148.0159674158622 5143.115084242885
1148.8844563300026 4986.407612984389
1149.7527310561618 4946.628578469844
1150.6207916554504 4875.570592615506
1151.4886381889592 4872.245660358166
1152.3562707177498 4959.698918759754
1153.2236893028585 4910.420972921123
1154.090894005296 4871.845213426187
1154.9578848860474 4893.744377403888
1155.8246620060709 4839.0707669691465
1156.6912254262988 4781.734248222517
1157.5575752076438 4853.184945784679
1158.42371141098 4966.0670240624295
1159.2896340971656 4969.374109825459
1160.1553433270346 4868.113695156312
1161.0208391613887 4995.450372586269
1161.8861216610057 4854.0961175957555
1162.75119088664 4834.50700914046
1163.6160468990201 4816.040914379326
1164.4806897588442 4843.988716285659
1165.3451195267917 4878.602288507499
1166.2093362635114 4915.96740429065
1167.0733400296285 4868.056561687625
1167.9371308857444 4828.121859993976
1168.8007088924278 4827.907728428874
1169.6640741102328 4889.828166461542
1170.5272265996773 4794.035192608107
1171.390166421259 4685.815961443133
1172.252893635452 4807.147842069488
1173.1154083026995 5024.514558969354
1173.977710483421 4923.253755100048
1174.8398002380145 4801.365108968212
1175.7016776268483 4902.388891349587
1176.563342710264 4912.505276896828
1177.4247955485826 4877.283256821627
1178.2860362020947 4900.161003410901
1179.147064731069 4767.00556811533
1180.0078811957483 4868.206857882252
1180.8684856563486 4817.026856717332
1181.7288781730604 4770.790337280601
1182.589058806052 4798.049110960975
1183.4490276154593 4952.7590166528225
1184.3087846614017 4859.67265704367
1185.1683300039676 4884.939996071718
1186.027663703222 5043.28911881017
1186.8867858192025 4875.134204082218
1187.7456964119228 4913.86512930624
1188.6043955413716 4926.9708209212595
1189.4628832675116 4915.621411195525
1190.3211596502842 5054.609813881257
1191.179224749596 4981.622487355949
1192.0370786253388 4905.713551612558
1192.8947213373758 5092.357174786126
1193.7521529455407 5142.789062933623
1194.6093735096438 4974.9507013579705
1195.466383089477 4990.505497237012
1196.3231817447977 5023.9569234685
1197.1797695353398 5201.118896797797
1198.0361465208189 4911.673971908527
1198.8923127609214 4979.0247244885995
1199.7482683153048 5134.425310238612
1200.6040132436028 5114.533776477971
1201.459547605431 4994.24555995282
1202.3148714603722 5025.156246420493
1203.1699848679855 5033.692736448649
1204.0248878878065 5158.769240031261
1204.8795805793507 4834.124692757951
1205.7340630020935 5054.289855833425
1206.5883352155033 5103.313990825916
1207.4423972790064 5086.459406642958
1208.2962492520237 4910.65755466173
1209.1498911939307 4992.890623265424
1210.0033231640937 5036.405940451205
1210.8565452218427 4992.370801752412
1211.7095574264913 4794.777836232639
1212.5623598373222 4852.571595636238
1213.4149525135963 4838.818143182031
1214.2673355145507 4860.77250711222
1215.1195088993936 4787.598757985538
1215.9714727273113 4790.000472294675
1216.8232270574663 4988.098850078145
1217.6747719489904 4677.2125901568725
1218.5261074609934 4733.233404378165
1219.3772336525653 4851.384932129237
1220.2281505827668 4889.449966036691
1221.0788583106296 4881.4783264816
1221.9293568951707 4715.457515169612
1222.7796463953746 4675.484611261136
1223.629726870202 4804.752204083697
1224.4795983785934 4827.784155648298
1225.3292609794553 4786.46125459155
1226.1787147316809 4700.603959314196
1227.0279596941327 4713.792173602912
1227.8769959256424 4738.359596968144
1228.7258234850306 4788.516175795392
1229.5744424310833 4574.0647176474895
1230.422852822563 4716.355862865101
1231.2710547182105 4896.944328898129
1232.119048176739 4670.1599372927285
1232.9668332568417 4511.795519616156
1233.8144100171812 4696.040388575698
1234.6617785163999 4682.075739222403
1235.508938813111 4429.092973038698
1236.3558909659114 4604.044618344931
1237.2026350333617 4687.570468874849
1238.049171074008 4701.648444437754
1238.8954991463652 4572.408547632939
1239.741619308932 4586.814312337554
1240.587531620169 4651.393347592478
1241.4332361385277 4714.907581457476
1242.2787329224248 4511.08727367744
1243.1240220302534 4497.752624858953
1243.9691035203869 4460.342065572383
1244.813977451171 4684.990625660097
1245.6586438809263 4672.421174376645
1246.5031028679496 4376.176753723319
1247.3473544705157 4612.717921995583
1248.1913987468706 4566.43277666355
1249.0352357552383 4384.817440764192
1249.8788655538228 4530.80526168881
1250.7222882007918 4654.698868919173
1251.565503754302 4710.979264149961
1252.4085122724755 4365.456384729615
1253.2513138134182 4621.416681053427
1254.0939084352049 4638.572216148435
1254.9362961958905 4575.827555276307
1255.7784771535007 4602.86260382771
1256.6204513660432 4691.180514273927
1257.4622188915 4760.981973931728
1258.3037797878242 4602.856038874272
1259.1451341129468 4526.21622522793
1259.9862819247755 4766.548773058419
1260.8272232811978 4647.913654798484
1261.6679582400666 4798.365017709135
1262.5084868592203 4507.114107028774
1263.34880919647 4559.559786975105
1264.1889253095997 4653.491744409932
1265.0288352563712 4779.487201288628
1265.8685390945266 4645.72492397627
1266.7080368817751 4723.757131422297
1267.5473286758115 4876.168944181934
1268.386414534294 4783.158837768645
1269.2252945148703 4571.458749704828
1270.0639686751547 4657.235623833491
1270.9024370727402 4744.796099211344
1271.7406997651997 4751.731048759486
1272.5787568100714 4583.620451017772
1273.4166082648808 4558.326080258319
1274.2542541871244 4663.784836204903
1275.091694634275 4909.531360802303
1275.9289296637817 4599.877063071135
1276.7659593330663 4762.938188035689
1277.6027836995308 4650.004635575484
1278.4394028205552 4886.464170068877
1279.2758167534867 4685.794759288803
1280.112025555658 4716.868605701103
1280.9480292843746 4717.843396549373
1281.7838279969128 4542.452211689529
1282.6194217505326 4618.0879730050165
1283.4548106024686 4507.482844764974
1284.289994609926 4541.849196189975
1285.1249738300921 4694.803975456343
1285.959748320127 4527.9915195653675
1286.7943181371702 4670.630047533195
1287.6286833383328 4597.006084756895
1288.4628439807038 4756.241088708213
1289.2968001213521 4603.210095426143
1290.1305518173194 4635.696872925745
1290.9640991256183 4725.61145484378
1291.7974421032523 4568.472398368553
1292.630580807183 4555.06946043204
1293.463515294361 4723.727973464147
1294.29624562171 4821.709156084749
1295.12877184613 4621.484116872725
1295.961094024493 4699.786337026582
1296.79321221365 4727.329710005892
1297.6251264704333 4827.128597126676
1298.4568368516466 5017.687579217196
1299.2883434140658 4889.541869848711
1300.1196462144526 4721.003310541366
1300.9507453095375 4883.278353547066
1301.7816407560313 4902.303426684488
1302.6123326106172 4814.465535023454
1303.4428209299622 4805.127194081603
1304.2731057707024 5040.420763636461
1305.1031871894502 4868.149464594156
1305.933065242798 4897.685162216598
1306.7627399873181 4942.1873292103055
1307.5922114795467 5163.732454280724
1308.4214797760123 5093.228440757523
1309.2505449332057 4982.3831574471105
1310.0794070076026 5055.249999039858
1310.9080660556538 5103.003603125553
1311.736522133786 5191.3656945716375
1312.5647752983987 4967.104651552765
1313.3928256058734 4860.106019611676
1314.2206731125661 5034.262594280242
1315.048317874809 5132.0748403626985
1315.8757599489109 5057.150491580354
1316.7029993911547 5114.292053972833
1317.5300362578055 5237.1827803380875
1318.356870605101 5047.609020746995
1319.183502489257 5098.480610581208
1320.0099319664623 5239.592012918443
1320.836159092889 5267.144958840222
1321.66218392468 5276.144544014592
1322.4880065179532 5100.692528850532
1323.3136269288134 5241.875297186356
1324.1390452133292 5350.405902859524
1324.9642614275563 5379.858543503099
1325.7892756275214 5242.876420147866
1326.6140878692295 5116.269575050961
1327.4386982086617 5502.924654710678
1328.2631067017755 5217.203823362188
1329.0873134045069 5171.401451538635
1329.911318372764 5045.480243257018
1330.735121662441 5080.292832442812
1331.558723329399 5021.732344152611
1332.3821234294774 4932.673419077955
1333.2053220185007 5026.921279822893
1334.0283191522612 4907.834427188109
1334.851114886529 5031.396968525385
1335.6737092770582 4732.495072498551
1336.4961023795695 4727.788598165481
1337.3182942497697 4590.023414471018
1338.1402849433325 4712.075209569744
1338.962074515921 4512.576432257154
1339.7836630231632 4467.496819272834
1340.6050505206676 4849.993772773256
1341.426237064028 4733.482970296969
1342.2472227088037 4533.6424181732
1343.0680075105338 4462.733260218517
1343.888591524741 4599.165675976152
1344.7089748069138 4583.056405597165
1345.5291574125276 4479.343410527941
1346.3491393970307 4331.380549357678
1347.168920815846 4530.878995233045
1347.9885017243778 4493.29825715038
1348.8078821780036 4447.812967042924
1349.6270622320844 4417.79745327597
1350.4460419419447 4263.802490644705
1351.2648213629054 4439.781828517594
1352.0834005502438 4203.171127979145
1352.90177955923 4230.726325215905
1353.7199584451064 4496.948356886685
1354.5379372630887 4436.12239771857
1355.355716068374 4267.110473705905
1356.1732949161305 4236.110449720495
1356.9906738615155 4312.560137529613
1357.8078529596478 4234.660354457218
1358.6248322656375 4358.757389361155
1359.441611834567 4199.616787998886
1360.2581917214866 4312.562197553836
1361.0745719814367 4187.392214544159
1361.890752669433 4185.749198537649
1362.7067338404577 4259.958785062603
1363.5225155494845 4288.293862392928
1364.3380978514506 4457.059970029107
1365.1534808012839 4108.389975354126
1365.9686644538815 3916.1541956006704
1366.783648864117 4298.116844805756
1367.5984340868417 4366.274637074885
1368.413020176893 4226.466480960802
1369.2274071890715 4099.027959972362
1370.0415951781652 4377.094873801647
1370.8555841989346 4237.529149551792
1371.6693743061223 4086.971870146299
1372.48296555444 4040.9387936912076
1373.2963579985844 4262.090469087369
1374.1095516932255 4249.54441427226
1374.9225466930166 3996.543311157942
1375.7353430525782 4166.822891891769
1376.5479408265164 4068.8785455221027
1377.36034006941 4245.885450299519
1378.1725408358216 4251.074835112415
1378.9845431802805 4019.9623837750323
1379.796347157304 4404.880829705177
1380.6079528213813 4256.554087771281
1381.4193602269788 3971.992595466499
1382.230569428546 4035.44370108726
1383.0415804805016 4187.45127075175
1383.852393437246 4194.744327089547
1384.6630083531563 4161.247900337861
1385.4734252825892 4013.7908525430635
1386.2836442798798 4040.276237185616
1387.0936653993322 4139.324655380018
1387.9034886952395 4121.098323854634
1388.713114221864 4188.3586532573545
1389.5225420334482 4092.404599994301
1390.331772184214 4117.531323328573
1391.1408047283585 3998.6679587186713
1391.9496397200564 4033.8915935961463
1392.758277213461 4178.093407691135
1393.5667172627054 4267.821604960716
1394.3749599218918 4075.629549687358
1395.1830052451114 3955.6080768976253
1395.9908532864265 4045.681204034247
1396.7985040998774 4224.984250574315
1397.6059577394808 3934.9609681575807
1398.4132142592352 4014.2860257026796
1399.2202737131156 4006.6191841843056
1400.027136155073 4225.459393908489
1400.8338016390353 3996.762195054614
1401.6402702189134 4040.289680557352
1402.446541948586 4056.6357672780155
1403.2526168819204 4012.646142252317
1404.058495072757 3997.7719523864043
1404.8641765749107 4019.038970458148
1405.6696614421799 4095.479901877512
1406.4749497283356 4309.953172598272
1407.280041487129 4046.365926885713
1408.084936772295 3855.303796188149
1408.8896356375335 4218.50872625813
1409.6941381365323 4133.196692134568
1410.498444322955 3920.1565439030433
1411.3025542504402 4039.995596474246
1412.106467972606 4064.1555704219595
1412.9101855430508 4071.991532881476
1413.7137070153458 3884.2366806007253
1414.5170324430437 4063.1040543822273
1415.320161879672 4118.899952793861
1416.1230953787435 4316.915920235226
1416.925832993742 3998.110348501018
1417.7283747781275 3850.866442775834
1418.5307207853439 4089.6290769851817
1419.3328710688093 4048.8215816635625
1420.134825681922 3893.947298321057
1420.9365846780584 3993.884142246923
1421.7381481105713 4393.2181738797635
1422.539516032788 4157.806495411019
1423.3406884980232 3994.929283211541
1424.1416655595604 4081.70089309792
1424.942447270665 4057.2919642358297
1425.7430336845828 4306.09443644376
1426.5434248545298 4007.6213335445514
1427.3436208337116 4227.6753093590905
1428.143621675301 4244.449139833628
1428.9434274324558 4526.713920862481
1429.7430381583108 4064.942430519489
1430.5424539059713 4285.895950423205
1431.3416747285337 4563.001778174845
1432.1407006790632 4393.54384816721
1432.9395318106053 4356.61542943149
1433.7381681761835 4260.937296919068
1434.5366098288014 4398.568655565536
1435.3348568214424 4453.8659473522375
1436.1329092070573 4279.563068494333
1436.9307670385879 4365.180722430658
1437.7284303689503 4554.037098422659
1438.5258992510335 4540.862596505957
1439.3231737377118 4377.95295707033
1440.1202538818306 4404.091985956981
1440.9171397362225 4334.338978752902
1441.7138313536925 4339.7454451092235
1442.5103287870243 4256.885917072757
1443.3066320889775 4239.482769698528
1444.1027413122956 4541.390642057693
1444.8986565096966 4274.076561073815
1445.694377733882 4257.391081437693
1446.4899050375207 4135.558038723454
1447.2852384732687 4213.504279676457
1448.0803780937622 4395.893290359063
1448.8753239516063 4180.655745712518
1449.6700760993954 4043.695972925803
1450.464634589689 4211.50442452065
1451.2589994750397 4340.873753147334
1452.0531708079689 4040.253871385777
1452.8471486409799 3975.1175597138254
1453.6409330265524 4341.145414245653
1454.4345240171442 4053.5862365083326
1455.2279216651987 4066.2686829621334
1456.0211260231263 4171.568204706391
1456.8141371433194 4427.615288790596
1457.6069550781594 4162.000527984664
1458.3995798799897 3828.7818569374977
1459.1920116011424 3947.167008293776
1459.98425029393 3892.6593776235422
1460.7762960106338 3896.142890973425
1461.5681488035225 3869.3219598204223
1462.3598087248392 4014.6512486056017
1463.1512758268036 4114.094839935144
1463.942550161617 3848.764650424382
1464.7336317814625 3818.0915266628
1465.524520738496 3838.735648388789
1466.3152170848552 3695.894111613858
1467.1057208726506 3712.3824017808956
1467.8960321539817 3680.2947612367543
1468.6861509809169 3630.481839592618
1469.4760774055085 3628.444238666793
1470.265811479785 3718.7568640660065
1471.055353255755 3571.641298522837
1471.844702785409 3476.475586906386
1472.6338601207044 3539.00454493768
1473.4228253135934 3643.361235511944
1474.2115984159936 3489.6896504745337
1475.0001794798063 3344.3104303804116
1475.7885685569145 3568.15825205765
1476.576765699172 3551.290164439274
1477.3647709584238 3486.7803342254238
1478.1525843864802 3675.460168131084
1478.9402060351367 3585.4020895660587
1479.7276359561693 3575.2490861272695
1480.514874201328 3435.0297636878195
1481.3019208223468 3345.275016715527
1482.0887758709323 3260.0687767749687
1482.8754393987747 3524.097415137315
1483.6619114575406 3249.047663964701
1484.4481920988783 3361.9652039121765
1485.2342813744108 3464.4476764491505
1486.0201793357446 3586.6995344923635
1486.8058860344572 3269.978456822908
1487.591401522117 3374.6658279973753
1488.3767258502594 3376.8803848090015
1489.1618590704056 3320.9321720513167
1489.9468012340494 3198.9638630873146
1490.7315523926754 3427.0890687296146
1491.5161125977356 3555.4941018125332
1492.3004819006637 3363.02957423266
1493.084660352877 3238.1767661623608
1493.8686480057622 3442.817139862969
1494.6524449106964 3607.6873676215837
1495.4360511190262 3593.6535207126094
1496.219466682087 3361.614433995243
1497.0026916511779 3398.2095623928444
1497.7857260775945 3375.052391167622
1498.5685700125996 3435.617121911303
1499.3512235074395 3212.52264467065
1500.133686613337 3214.4018388813556
1500.9159593814966 3231.3277894803587
1501.698041863101 3712.5393336985885
1502.4799341093094 3257.1826682658
1503.2616361712662 3041.567705877136
1504.043148100087 3347.5144058635633
1504.8244699468742 3412.3437175585773
1505.6056017626997 3162.6070349221386
1506.3865435986281 3175.345390190857
1507.1672955056893 3406.041907627735
1507.9478575348967 3319.0211608942336
1508.7282297372512 3424.673337664776
1509.5084121637192 3261.7303148927817
1510.2884048652577 3243.6602335807115
1511.0682078927948 3205.8445964340826
1511.8478212972423 3195.5323392784408
1512.6272451294917 3235.2271410318244
1513.4064794404076 3346.9125481111464
1514.1855242808433 3404.337795526022
1514.9643797016215 3260.993330119572
1515.743045753552 3377.809776192977
1516.5215224874191 3301.9044765953745
1517.2998099539836 3113.470740184862
1518.077908203999 3399.533211229255
1518.8558172881785 3313.209811356873
1519.633537257234 3454.4789658441937
1520.4110681618404 3407.5674089470317
1521.1884100526604 3217.8119422137675
1521.9655629803365 3271.703304113677
1522.7425269954856 3440.072861509741
1523.5193021487103 3638.0505744576353
1524.2958884905856 3240.7590647446614
1525.0722860716687 3298.34716059516
1525.848494942502 3261.476178986718
1526.624515153595 3276.0684777397573
1527.4003467554485 3406.775317228889
1528.175989798534 3511.8178957824725
1528.9514443333064 3343.1764519409517
1529.726710410203 3565.8427773746103
1530.5017880796331 3177.606880300183
1531.276677391992 3236.3755286700994
1532.0513783976457 3596.196598601561
1532.825891146953 3357.6301308184825
1533.6002156902414 3430.606659359369
1534.3743520778207 3328.1309744592
1535.1483003599806 3313.9726698821905
1535.9220605869923 3379.695089515825
1536.6956328091019 3324.924011537805
1537.4690170765407 3187.877545387162
1538.242213439511 3370.7434130135225
1539.015221948208 3315.154390317174
1539.78804265279 3307.376359181114
1540.560675603405 3128.033509014866
1541.3331208501804 3425.3983676438584
1542.1053784432224 3469.0492923918346
1542.8774484326168 3297.035806931347
1543.649330868422 3330.989812299369
1544.4210258006842 3365.5686769062377
1545.1925332794308 3231.7499053674937
1545.9638533546604 3246.5899523882968
1546.7349860763552 3199.8016710634174
1547.5059314944829 3486.664609768823
1548.27668965898 3324.5888486191166
1549.0472606197673 3298.331361854096
1549.817644426752 3144.0368595549935
1550.5878411298072 3356.203800304507
1551.3578507787988 3203.438416536844
1552.1276734235635 3104.468959405049
1552.8973091139233 3269.8340584540792
1553.6667578996767 3391.3833370423504
1554.436019830604 3094.164733408635
1555.20509495646 3198.641931043673
1555.9739833269869 3176.1065261681765
1556.7426849919011 3168.517659541936
1557.511200000903 3458.218467947121
1558.2795284036674 3332.528454032838
1559.0476702498509 3163.4397963475594
1559.8156255890954 3320.1447108965453
1560.5833944710157 3545.7059075197285
1561.3509769452048 3235.1247282187696
1562.1183730612447 3270.778465757644
1562.8855828686865 3273.7015794332574
1563.6526064170703 3485.7642465260624
1564.4194437559127 3519.333120802016
1565.1860949347047 3211.663484847779
1565.9525600029283 3476.391899553396
1566.7188390100328 3655.2607575385346
1567.4849320054564 3210.166693004233
1568.250839038612 3320.191010076879
1569.0165601588997 3398.136473081463
1569.7820954156887 3418.229836128102
1570.5474448583373 3348.238156973354
1571.31260853618 3411.724889457847
1572.0775864985299 3259.7776003355602
1572.8423787946813 3487.4552205979053
1573.6069854739108 3270.4854688901855
1574.371406585471 3493.7945296472826
1575.1356421785986 3551.9841160032774
1575.899692302506 3313.4856798034953
1576.6635570063845 3431.8654960783438
1577.4272363394157 3379.210445697223
1578.190730350747 3354.507397738105
1578.9540390895163 3436.2840697825645
1579.7171626048384 3224.905601592751
1580.480100945806 3290.717376243574
1581.2428541614918 3345.8789834585186
1582.0054223009538 3447.0214818520494
1582.767805413223 3408.8237557946804
1583.5300035473156 3507.405221080854
1584.292016752228 3607.1346073628274
1585.0538450769309 3511.8279464961197
1585.8154885703807 3190.48772619414
1586.5769472815136 3254.5825018503774
1587.3382212592405 3432.2006861003492
1588.099310552463 3566.8272068683864
1588.8602152100484 3346.653650637094
1589.6209352808564 3449.9620978254848
1590.3814708137234 3253.791637791493
1591.14182185746 3284.2086591141197
1591.9019884608679 3378.4671447533574
1592.6619706727215 3056.0492939069773
1593.4217685417734 3266.17622622516
1594.1813821167616 3442.9077747749093
1594.9408114464022 3085.519109040054
1595.7000565793933 3275.5134445536382
1596.459117564409 3331.6778860172076
1597.2179944501113 3112.3698950406624
1597.9766872851324 3165.9912616091674
1598.735196118092 3332.317405247121
1599.4935209975883 3283.836378334681
1600.2516619721973 3285.174775478036
1601.0096190904787 3114.855462284386
1601.7673924009723 3132.203199533347
1602.524981952196 3146.24237827514
1603.2823877926476 3057.780743897399
1604.0396099708087 3059.535308433814
1604.7966485351371 2988.516962366354
1605.5535035340745 3091.8845580410607
1606.3101750160404 3237.2845242456488
1607.0666630294363 3040.409854449129
1607.822967622642 2901.3139796472165
1608.5790888440224 3051.284894377763
1609.3350267419137 3252.090288201864
1610.0907813646445 3015.4925438769155
1610.8463527605145 3003.9901522874725
1611.601740977805 3182.425731054578
1612.356946064785 3066.9486594295186
1613.1119680696902 2893.786003205845
1613.8668070407512 2996.5703025714256
1614.6214630261748 2963.420227342182
1615.375936074137 3158.209990073545
1616.1302262328118 3051.9616040435476
1616.8843335503425 3072.351774862399
1617.638258074854 2966.486751295212
1618.391999854457 3159.8599431207267
1619.1455589372363 3191.5584486608996
1619.8989353712623 3060.2354579886287
1620.65212920458 2843.117649213106
1621.4051404852235 2983.7966961886536
1622.1579692611976 3166.787396857725
1622.9106155804966 2848.246456526317
1623.663079491087 2904.124248872974
1624.4153610409248 3105.3098156016504
1625.1674602779385 2967.455018838498
1625.9193772500403 2858.9200114298246
1626.6711120051277 3019.8521982555258
1627.4226645910676 3030.36772774665
1628.174035055721 2890.7894300670882
1628.9252234469168 3135.8140229137753
1629.676229812474 2935.3113808886487
1630.4270542001905 3354.8473708277656
1631.1776966578382 2983.9250523368632
1631.9281572331747 2962.651268475784
1632.678435973945 3161.825755324709
1633.4285329278573 3119.2165304934415
1634.1784481426203 2896.193941951924
1634.9281816659113 3018.978800536185
1635.677733545388 3180.1085715133436
1636.4271038286934 2995.496700805059
1637.176292563452 3048.326502992267
1637.9252997972635 3060.375530995781
1638.674125577716 3077.421287238723
1639.4227699523672 3347.379156567155
1640.171232968767 2931.254748018846
1640.9195146744423 3052.946517903707
1641.6676151168977 3174.151282910691
1642.4155343436178 3201.237280866915
1643.1632724020765 3011.351811576595
1643.9108293397167 3033.5976412231066
1644.658205203974 2906.7034469390082
1645.4054000422566 2926.188563751076
1646.1524139019566 2945.4487971776816
1646.8992468304423 2961.796540780825
1647.6458988750728 2973.2759867702093
1648.3923700831765 3102.213629800846
1649.1386605020743 2898.459464553675
1649.8847701790564 3141.938924473181
1650.6306991614038 3060.92679755537
1651.3764474963682 3047.9149885781417
1652.1220152311944 2787.8375089891365
1652.867402413096 3088.377615439862
1653.6126090892776 3078.705140759646
1654.3576353069184 3210.0984042658897
1655.1024811131829 3037.997688001642
1655.8471465552066 2985.370057036616
1656.5916316801213 3216.3326543612316
1657.3359365350298 3151.5769961326537
1658.0800611670165 2983.5547645036377
1658.824005623148 3041.163585142162
1659.5677699504722 2873.644424530362
1660.3113541960192 3087.8377244952258
1661.054758406799 3037.2682672265705
1661.7979826297997 2829.7392430310806
1662.5410269119966 2829.1948364074347
1663.283891300338 3070.9299646507598
1664.0265758417645 2920.79699725337
1664.7690805831826 3007.480346345444
1665.5114055714948 3079.323918173256
1666.2535508535748 3199.9422011813795
1666.9955164762814 2742.4063924139705
1667.7373024864555 2975.929685103653
1668.478908930916 3013.7211287006985
1669.220335856462 2927.070246641168
1669.9615833098778 2836.6024662994287
1670.7026513379296 2830.5706864865965
1671.44353998736 2934.1299280271796
1672.1842493048916 3055.7443913579004
1672.9247793372379 2807.2101989111306
1673.6651301310812 2950.77241188027
1674.4053017330934 2869.2873910039752
1675.1452941899242 3000.061053320633
1675.885107548207 2399.4780026799535
1676.6247418545518 2686.936080760954
1677.3641971555535 2741.2360913738817
1678.1034734977893 2954.0096064996324
1678.8425709278108 2848.859430694195
1679.5814894921605 3142.144234538821
1680.320229237359 2819.3878960634993
1681.0587902098978 3150.8712492918853
1681.7971724562685 2817.348909973466
1682.5353760229264 2658.4245765072983
1683.2734009563173 2926.8176611935914
1684.0112473028657 2694.891807898612
1684.7489151089794 2934.8272741539904
1685.4864044210462 2852.266511668409
1686.2237152854377 2631.6585721100955
1686.960847748498 3093.0411790564453
1687.6978018565642 2779.188219785284
1688.434577655944 2649.7214604784967
1689.1711751929379 2731.9051769431517
1689.9075945138156 2889.059346871308
1690.6438356648396 2768.1907477147447
1691.3798986922448 2484.119929847765
1692.1157836422499 2724.2570231235563
1692.851490561059 2663.01518058039
1693.587019494853 2783.7166887378803
1694.3223704897991 2511.2016573905835
1695.0575435920364 2538.1643233853692
1695.792538847696 2977.605904444503
1696.527356302886 2650.2875387738486
1697.2619960036936 2476.1187223888232
1697.9964579961907 2490.4877196048915
1698.730742326432 2335.1815159566204
1699.4648490404488 2525.2903830678656
1700.1987781842563 2523.755487153875
1700.9325298038548 2685.704951907599
1701.6661039452174 2861.829220276643
1702.3995006543082 2636.8904223326704
1703.1327199770658 2786.2384628589944
1703.865761959416 2446.561795890713
1704.598626647261 2851.415580392016
1705.3313140864866 2525.5281402620976
1706.0638243229587 2563.058869365415
1706.7961574025303 2627.978671640996
1707.528313371029 2560.904447827566
1708.260292274268 2479.5837900217966
1708.9920941580403 2483.7059305698463
1709.7237190681226 2671.806489832079
1710.4551670502697 2467.7510488026796
1711.18643815022 2309.2365763200155
1711.9175324136959 2414.994365918851
1712.6484498863938 2520.926678056263
1713.379190614005 2299.254495119126
1714.109754642188 2542.132609630811
1714.8401420165883 2442.3588715249907
1715.570352782839 2632.563043565692
1716.3003869865497 2509.156791734571
1717.0302446733076 2308.1041432618176
1717.7599258886876 2436.190535382525
1718.4894306782444 2351.037723485496
1719.2187590875183 2265.6880466814937
1719.9479111620203 2685.465784643666
1720.6768869472544 2406.4486358827025
1721.4056864887025 2690.0486538709793
1722.1343098318284 2747.833379945196
1722.8627570220742 2472.699093317716
1723.591028104871 2354.712326022899
1724.3191231256242 2261.9977256826674
1725.0470421297232 2396.836178778939
1725.7747851625427 2524.176562530659
1726.5023522694337 2459.486787817782
1727.2297434957363 2463.097947078054
1727.9569588867635 2249.5261408471333
1728.6839984878152 2539.45883225171
1729.4108623441734 2028.53965698754
1730.1375505011038 2497.1664846759104
1730.8640630038426 2321.539027263398
1731.5903998976264 2217.791251199441
1732.316561227657 2479.775826933288
1733.0425470391274 2130.945096334979
1733.7683573772065 2422.606313148588
1734.4939922870508 2332.0840398222176
1735.2194518137949 2421.544777803292
1735.9447360025606 2441.02282065041
1736.669844898439 2378.0357341305157
1737.3947785465189 2278.874164252346
1738.1195369918605 2180.8535308187447
1738.8441202795093 2304.904639383376
1739.5685284544943 2373.129805777406
1740.292761561821 2450.4866155585532
1741.0168196464838 2442.048651209926
1741.7407027534518 2325.4983191228594
1742.464410927687 2452.658017559002
1743.187944214118 2300.7581638919173
1743.9113026576688 2346.8719711748636
1744.634486303241 2296.38940110153
1745.3574951957125 2335.962092822641
1746.0803293799509 2497.368336701112
1746.8029889008048 2355.6591304092267
1747.5254738031017 2434.3227653329714
1748.2477841316504 2228.333264246511
1748.969919931249 2313.2563524203674
1749.6918812466665 2238.2250044231328
1750.4136681226646 2457.279304526249
1751.1352806039777 2224.167751328566
1751.856718735331 2053.4862011695523
1752.5779825614281 2060.3867047012072
1753.2990721269507 2359.755883635723
1754.0199874765676 2325.075956498604
1754.7407286549314 2139.8585695949623
1755.4612957066693 2173.3565009054287
1756.1816886763954 2253.5866423585485
1756.9019076087097 2374.3539938168265
1757.6219525481865 2285.3981416964334
1758.3418235393856 2313.4594832721205
1759.061520626854 2357.790381728421
1759.7810438551096 2414.544698889963
1760.5003932686614 2097.3749165117993
1761.2195689119999 2452.016520146982
1761.938570829594 2350.4309143417877
1762.657399065898 2290.4867020669285
1763.376053665348 2117.512127036448
1764.0945346723602 2078.899357967217
1764.812842131334 2427.4407951329454
1765.5309760866512 2157.8495774705393
1766.2489365826787 2116.454239983879
1766.9667236637597 2306.207994666367
1767.684337374223 1989.5071948764144
1768.401777758383 2038.2068772874068
1769.1190448605284 2174.1277542470307
1769.836138724937 2058.5092784425137
1770.5530593958665 2256.72602403821
1771.2698069175603 2430.7815572524864
1771.9863813342326 2272.9421205594076
1772.702782690094 2226.0434041945728
1773.4190110293293 2466.434128136704
1774.1350663961111 2369.8487891216428
1774.8509488345844 2239.3725531375567
1775.5666583888924 2247.4553821064574
1776.2821951031437 2358.512332513705
1776.9975590214362 2200.205484975719
1777.7127501878585 2330.564245421183
1778.4277686464684 2326.6679878624827
1779.1426144413108 2465.5485600036204
1779.8572876164162 2414.7242000120596
1780.571788215797 2100.640691235408
1781.2861162834415 2246.5160627370356
1782.0002718633277 2095.115277878412
1782.7142549994132 2337.137335564185
1783.4280657356376 2314.388900963212
1784.141704115922 2043.000536925724
1784.855170184177 2169.825277534348
1785.5684639842839 2224.8001483740704
1786.2815855601148 1940.179810437538
1786.9945349555237 2230.4156162151917
1787.707312214343 2117.1076142665443
1788.4199173803918 2063.327643738993
1789.132350497468 2009.6344038694297
1789.8446116093583 2137.4838003269397
1790.556700759822 2034.1069771475275
1791.2686179926077 2235.7220658465585
1791.9803633514493 2125.832202304963
1792.6919368800554 1910.4671883670824
1793.4033386221236 2208.1134782295826
1794.1145686213295 2266.8843115404843
1794.8256269213307 2432.101615366328
1795.536513565774 2240.544684257915
1796.247228598284 1883.781995442252
1796.9577720624693 2073.6867057941536
1797.6681440019165 2147.2908406100823
1798.3783444602013 2047.453301571785
1799.0883734808776 2223.923375435693
1799.7982311074884 2322.3243313171215
1800.5079173835475 2255.007830836791
1801.2174323525633 2222.9268878668095
1801.9267760580187 2160.940415378574
1802.635948543386 2225.204426272457
1803.3449498521113 1993.4341189528618
1804.0537800276325 2276.0027079047773
1804.7624391133668 2218.6213097171053
1805.47092715271 1903.5350615691254
1806.1792441890484 1943.7396271190166
1806.8873902657433 2317.541524678201
1807.5953654261448 2065.1429841979316
1808.3031697135812 2050.84393562593
1809.0108031713662 2091.3878233990367
1809.71826584279 2108.6481987751813
1810.425557771141 2176.6351623722976
1811.1326789996747 2525.3077950134184
1811.839629571632 2111.6413402759836
1812.5464095302468 2108.5218253180074
1813.2530189187182 2082.7828785226343
1813.959457780249 2137.9176282644603
1814.6657261580076 2153.8300208209566
1815.371824095153 2140.5330060328297
1816.0777516348262 2220.864028953012
1816.78350882015 1680.146981049711
1817.4890956942272 1788.9033717898333
1818.1945123001533 2025.8799177228739
1818.8997586809928 2086.4650554358423
1819.6048348798067 1989.6064753756862
1820.3097409396287 2000.7464219056696
1821.0144769034796 2343.1288994229444
1821.7190428143622 2203.2225327428905
1822.423438715261 2198.2217755274587
1823.1276646491478 2003.3098949416096
1823.8317206589727 2162.651020893508
1824.5356067876692 2150.596050005684
1825.2393230781581 2032.5929597355782
1825.942869573335 1898.5379910428856
1826.646246316086 1893.0609924614066
1827.3494533492758 2062.512077595914
1828.052490715756 2071.419338264712
1828.7553584583547 2204.061801922736
1829.458056619891 2102.0321683975653
1830.1605852431585 1962.131663858226
1830.8629443709433 1995.7114913880475
1831.5651340460063 2017.619943205516
1832.2671543110919 1997.5120335136885
1832.9690052089318 2216.192902479027
1833.6706867822395 1899.3922239638846
1834.3721990737104 2107.6562356417203
1835.0735421260233 2165.219101032457
1835.774715981841 2029.504323701964
1836.4757206838058 2380.2026745142143
1837.1765562745459 2024.9045448678085
1837.8772227966747 1819.4707490656297
1838.5777202927839 2022.5989412724532
1839.2780488054523 2076.855938414902
1839.9782083772352 1933.9708677343792
1840.6781990506806 2257.196856514815
1841.378020868313 2067.413643302496
1842.0776738726418 2007.2688312832663
1842.777158106157 1928.031243620581
1843.4764736113375 1829.5415521167106
1844.1756204306403 2096.106002747042
1844.8745986065078 2101.417781756275
1845.5734081813607 1942.166747166566
1846.2720491976124 1997.841857949764
1846.970521697649 1973.3177912632843
1847.6688257238511 1921.6655971009175
1848.3669613185684 2000.3554477707762
1849.0649285241452 1798.3752180468612
1849.7627273829057 2115.996974841146
1850.460357937156 2016.2844972909916
1851.1578202291857 1726.6681246712237
1851.8551143012664 2034.3536678312062
1852.5522401956569 1962.6472489648295
1853.2491979545957 2184.105341838808
1853.9459876203055 1933.2268613314802
1854.6426092349902 1863.436452587185
1855.3390628408451 1967.9807021603106
1856.0353484800362 2207.434909966183
1856.7314661947203 2079.572120317154
1857.4274160270397 1949.851558653159
1858.123198019115 2080.242932592924
1858.8188122130487 1946.885277852932
1859.5142586509319 2011.641536510747
1860.209537374838 2002.8078069550768
1860.9046484268183 1901.1204377460865
1861.599591848917 2100.485925942407
1862.294367683151 1911.794410062558
1862.988975971528 2042.7228154322602
1863.6834167560355 1842.3437882120336
1864.3776900786452 2164.036901144527
1865.0717959813119 1987.8361237125555
1865.7657345059724 1820.1272392084252
1866.4595056945564 2001.2231569327632
1867.1531095889586 2069.148718427813
1867.846546231076 1737.0052471686
1868.5398156627743 2104.957304793322
1869.2329179259123 1866.9095354766257
1869.9258530623283 2060.3961933265778
1870.618621113843 1757.8464946554009
1871.3112221222636 1824.2155781060123
1872.0036561293764 1827.3960398456268
1872.695923176956 2004.5727652637815
1873.3880233067594 2189.9131050073206
1874.0799565605212 1707.4096431907406
1874.7717229799673 1997.6765766051371
1875.4633226068036 2172.93756448598
1876.1547554827175 2010.5753292483507
1876.8460216493859 1908.009455231969
1877.5371211484617 1948.4519052470819
1878.2280540215852 2097.7400648800967
1878.9188203103804 1809.9374356175213
1879.6094200564548 1863.6237438100056
1880.299853301396 1890.769709671323
1880.9901200867826 2102.4840434929565
1881.6802204541673 2063.2100088337756
1882.3701544450942 2108.2594874555753
1883.059922101087 1747.8602009820734
1883.7495234636517 2096.1200682444605
1884.4389585742792 1789.4598257970997
1885.1282274744517 1783.5323018746924
1885.8173302056166 1929.610372322192
1886.506266809225 2075.886377043741
1887.195037326701 1811.2322632806656
1887.8836417994517 1805.3488765184825
1888.5720802688702 2100.812663551567
1889.260352776333 2012.9023292408795
1889.9484593632042 2018.0344764793929
1890.63640007082 1871.7658856872763
1891.3241749405151 1757.5848097483067
1892.0117840135954 2008.581317272295
1892.6992273313572 1853.0387642697406
1893.3865049350788 1756.567296179333
1894.0736168660223 1873.6184980095434
1894.7605631654333 1990.787547745879
1895.4473438745408 1698.4389047459786
1896.133959034556 2225.341942780323
1896.820408686679 2094.9882616524446
1897.506692872088 2082.686734443185
1898.192811631945 1914.0372767561453
1898.8787650073991 1945.892633360828
1899.5645530395832 2054.7344478374134
1900.2501757696118 2036.2039149338384
1900.9356332385796 1794.0568755907698
1901.620925487574 1926.075538825274
1902.3060525576602 2058.473254653051
1902.9910144898859 1991.4491467174928
1903.6758113252872 1848.0366884865361
1904.3604431048789 2058.452903383307
1905.0449098696663 2016.073000683286
1905.7292116606295 1895.1655344162361
1906.4133485187394 1995.8863104679149
1907.0973204849488 1571.1375870189552
1907.7811276001976 1790.62598495803
1908.4647699053967 1929.897596037254
1909.1482474414588 1843.786025552547
1909.8315602492694 1757.41726613726
1910.5147083696957 2088.8030751242304
1911.1976918436012 1934.2424443609575
1911.880510711815 1822.582579925805
1912.5631650151681 2032.066140550646
1913.2456547944657 1746.9255397620047
1913.927980090495 1852.3696607321294
1914.6101409440362 1719.8666975163123
1915.2921373958416 2032.3297152997852
1915.9739694866603 1921.9957407717397
1916.655637257214 2116.7448091543715
1917.3371407482136 1847.1507346204648
1918.0184800003572 2143.1008984019577
1918.6996550543154 2077.91609699121
1919.3806659507554 2045.0160905508153
1920.0615127303208 1971.1252598706808
1920.7421954336423 2085.5774226007875
1921.4227141013343 2187.998603369283
1922.103068773993 1908.3760585546647
1922.783259492202 2029.4068966473205
1923.4632862965227 1926.3306425349306
1924.1431492275078 1834.4003701572642
1924.8228483256917 1714.4864238469916
1925.5023836315922 1890.1391784879263
1926.1817551857057 1987.261115495315
1926.8609630285227 2084.616481702583
1927.5400072005123 1947.0885171558214
1928.218887742125 1737.3677157837192
1928.8976046938005 1643.510311829123
1929.5761580959588 1901.1921378454874
1930.2545479890086 1840.402246411329
1930.9327744133352 1585.034496431948
1931.6108374093164 1854.119195415175
1932.2887370173066 2164.348236269097
1932.9664732776473 2087.6453682529036
1933.6440462306673 2010.6903669087794
1934.3214559166754 1890.9526516323872
1934.9987023759659 2157.8853246884532
1935.675785648813 1879.770861306171
1936.3527057754836 1988.3938940275282
1937.029462796223 2097.2658980178817
1937.70605675126 1885.7360951525163
1938.3824876808085 1754.646630477783
1939.058755625072 1856.6146400494956
1939.7348606242267 1777.7012991214056
1940.4108027184448 1921.9684913541198
1941.0865819478713 2111.4781168348836
1941.7621983526478 1756.104614969228
1942.4376519728921 1711.174688029286
1943.1129428487038 1852.1294364970738
1943.7880710201734 2016.3935197313488
1944.4630365273733 1888.8337562216125
1945.1378394103576 1654.1656415778648
1945.8124797091714 1657.760826031553
1946.4869574638324 1661.3051723996784
1947.161272714353 1788.2959071138844
1947.8354255007234 1919.3420288218035
1948.5094158629272 1687.18190014385
1949.1832438409183 1941.1854349889968
1949.8569094746435 2053.305930284021
1950.530412804037 2129.7639729799766
1951.2037538690092 1980.3456472251794
1951.8769327094578 1862.6734610349122
1952.5499493652678 1876.8953870396078
1953.222803876306 2185.716931588553
1953.895496282421 1933.3881930033235
1954.5680266234522 1917.240568812102
1955.2403949392155 1847.3871460505245
1955.9126012695142 1682.793017653492
1956.5846456541403 1836.0847314134426
1957.2565281328643 1780.64039336017
1957.9282487454457 2069.1147983048018
1958.5998075316202 1855.4919293305
1959.27120453112 1752.2041598784024
1959.9424397836501 1960.234864677364
1960.613513328908 1869.690726217036
1961.2844252065697 1754.9537898103881
1961.9551754563017 1639.9856108541157
1962.6257641177453 1701.1114215564107
1963.29619123054 1606.9189825935878
1963.966456834296 1757.454557772485
1964.6365609686181 1663.0272404187751
1965.306503673086 2028.3385794448945
1965.976284987275 1733.8215727303875
1966.645904950734 1928.9091161813772
1967.315363603002 1710.8609155227919
1967.9846609836077 1789.5397761647473
1968.6537971320486 1844.504052601062
1969.3227720878222 1838.206953598316
1969.9915858904042 1906.9395629238884
1970.660238579252 1937.2196078102265
1971.3287301938108 1824.315379748546
1971.997060773514 1821.2580725113207
1972.665230357772 1759.0457704130968
1973.3332389859843 1687.0489543774488
1974.0010866975335 1679.5117412304182
1974.6687735317864 1903.1671135167526
1975.3362995280932 1832.347260983424
1976.003664725793 1961.0456914740357
1976.6708691642052 1658.2512862134522
1977.3379128826364 1794.702521881603
1978.004795920373 2035.7563417398082
1978.6715183166925 1783.8783646788347
1979.3380801108524 1916.9703384326542
1980.0044813420973 1669.266675148118
1980.6707220496555 1534.6265619779658
1981.3368022727373 1875.3365811710257
1982.0027220505417 1914.852141066001
1982.66848142225 1480.3513793136094
1983.3340804270283 1679.0575354371272
1983.999519104027 1848.1450317489494
1984.6647974923835 1871.0903945042369
1985.329915631215 1922.1871697974261
1985.99487355963 1893.89496107983
1986.6596713167146 1923.8364222789066
1987.3243089415428 1665.6670758354066
1987.9887864731754 1965.515721144504
1988.6531039506553 1560.554281485482
1989.3172614130071 1583.6002050469756
1989.9812588992481 1606.710843076441
1990.645096448372 1561.6037356353029
1991.3087740993633 1731.1055172494957
1991.9722918911848 1675.9440528682596
1992.635649862792 1807.3572911445215
1993.2988480531185 1818.2211659908112
1993.9618865010852 1756.4934381309872
1994.6247652455968 1694.718770783021
1995.287484325545 1666.0040593362799
1995.9500437798033 1791.2864592254966
1996.6124436472292 1767.8743882470906
1997.2746839666706 1879.3714198634248
1997.936764776954 1621.707265616398
1998.598686116895 1685.1354531355744
1999.2604480252903 2001.0313285043133
1999.9220505409212 2007.4253994377118
2000.5834937025593 1593.2163606774498
2001.2447775489582 1718.344620193034
2001.9059021188514 1839.4611643775213
2002.5668674509616 1642.0458628083238
2003.2276735839987 1782.6096227657022
2003.8883205566508 1975.9313115948557
2004.5488084075987 1648.6941217090866
2005.2091371755014 1798.7163934293626
2005.8693068990033 1524.7927392128638
2006.5293176167397 1534.8240092357578
2007.1891693673224 1545.010926834497
2007.848862189354 1584.9254532397792
2008.5083961214223 1788.1242856462989
2009.1677712020955 1762.1042588390421
2009.8269874699254 1655.9760640994148
2010.4860449634598 2131.352242023203
2011.1449437212177 1562.1983802174968
2011.8036837817108 2057.746750753925
2012.4622651834325 1840.9040221221712
2013.1206879648653 1923.3258714024712
2013.7789521644736 2064.8411987684294
2014.4370578207036 1940.2346517294714
2015.0950049719922 1815.2230690330948
2015.7527936567585 1989.8553176722532
2016.4104239134067 1758.2775680383488
2017.067895780323 2181.7852631114383
2017.725209295886 2124.4680312623586
2018.3823644984514 2066.9394679666293
2019.0393614263648 1818.024123164836
2019.6962001179545 1782.1920917242765
2020.3528806115355 2010.386917065513
2021.0094029454067 1856.3443158205296
2021.6657671578487 1646.3787300057313
2022.321973287133 1778.1100208580792
2022.9780213715148 1775.3513305160636
2023.6339114492293 1883.1671592575574
2024.2896435585026 1786.2301461114107
2024.9452177375442 1824.6615326975243
2025.600634024544 2032.5318698838717
2026.2558924576842 1928.0251543244515
2026.9109930751292 1956.223055979998
2027.565935915025 1713.646278515281
2028.2207210155066 2045.4379441831347
2028.8753484146964 2086.948450108042
2029.529818150695 2023.9736923136836
2030.1841302615903 1960.6642206642068
2030.8382847854573 1663.2296145195767
2031.4922817603601 1785.893327000217
2032.1461212243357 1776.1456436204378
2032.7998032154192 1510.6494706607032
2033.4533277716218 1742.7364689175113
2034.1066949309443 1568.559166210019
2034.7599047313688 1634.7558238772758
2035.4129572108704 1882.54311644427
2036.0658524074006 1828.8963705625931
2036.7185903589016 1844.6240491750523
2037.3711711032956 1992.829060194045
2038.023594678496 1931.6698769379466
2038.675861122394 1667.2427946154978
2039.3279704728757 1900.291652088344
2039.9799227678031 1705.3821029635171
2040.6317180450278 1808.442984563945
2041.2833563423865 1690.836444273161
2041.9348376977014 2000.9917805454734
2042.5861621487784 1906.6140939950249
2043.2373297334088 2029.2162704247062
2043.8883404893695 1779.2476435169137
2044.5391944544208 1850.2502839719273
2045.1898916663158 2017.3354124627162
2045.8404321627804 1825.3876734548808
2046.4908159815368 1632.9887088556745
2047.1410431602853 1735.9447123528778
2047.7911137367173 1660.6886480359087
2048.441027748504 1548.8204600103422
2049.090785233302 1436.7862239110977
2049.7403862287592 1691.1005583374117
2050.389830772503 1650.8839622653347
2051.0391189021466 1610.676101337599
2051.688250655294 1654.2523774068836
2052.337226069527 1547.2665712271828
2052.986045182417 1490.9170266350193
2053.634708031521 1434.60823385291
2054.283214654375 1750.3263958780317
2054.931565088511 1425.7688271043978
2055.579759371436 1594.1497833450078
2056.2277975406523 1897.2364806346518
2056.8756796336384 2046.8009372935892
2057.5234056878617 1898.0871563193891
2058.1709757407752 1748.9458892241223
2058.8183898298194 2051.935409452995
2059.465647992416 1859.7851175107066
2060.1127502659747 1922.3606530097325
2060.759696687888 1633.6022980501627
2061.4064872955405 1938.6437878146285
2062.053122126292 1995.6133912705384
2062.699601217497 1847.521853483898
2063.345924606485 1699.476859999559
2063.992092330587 1729.542797413931
2064.638104427102 1643.9521363936947
2065.283960933324 2048.7839461558337
2065.92966188653 1886.0919568067486
2066.5752073239855 1895.9894894216613
2067.2205972829397 1613.7627690961958
2067.86583180062 1824.8682143722622
2068.5109109142522 1756.292693724535
2069.15583466104 1784.4278528845484
2069.8006030781708 1608.7403620832788
2070.445216202821 1611.7614346858356
2071.089674072153 1909.998343751765
2071.7339767233116 1991.833094562861
2072.3781241934303 1822.7570724815698
2073.0221165196253 1976.5947720180277
2073.6659537390024 1687.5361767831691
2074.3096358886505 1856.452385433045
2074.953163005637 1638.031947282753
2075.596535127028 1550.9579259540367
2076.2397522898664 1523.330708946185
2076.882814531182 1728.2222325933121
2077.5257218879924 1830.2067833896315
2078.1684743973 1569.8475921203785
2078.8110720960885 1558.1962813448126
2079.453515021336 1690.6232792561664
2080.095803209997 1823.1579847981989
2080.7379366990135 1779.3003798896693
2081.37991552532 1867.6332589317087
2082.0217397258275 1794.911312093581
2082.6634093374414 1817.1335232147146
2083.3049243970418 1839.453847837578
2083.9462849415067 1924.7526593862851
2084.587491007689 1874.1906221483082
2085.2285426324324 1724.4101231433026
2085.869439852564 1788.2499172761406
2086.510182704902 1620.9570236617103
2087.1507712262483 1733.4921262074574
2087.791205453381 1602.9068737943587
2088.4314854230743 1834.9722427882455
2089.0716111720867 1793.5408221711612
2089.7115827371617 1453.5879988972858
2090.351400155023 1478.6708796495843
2090.991063462385 1503.8734770277993
2091.6305726959527 1498.3490045258172
2092.2699278924047 1826.291499051586
2092.9091290884153 1705.698675948009
2093.548176320641 1472.7330736409956
2094.187069625721 1473.1784412161617
2094.8258090402887 1473.624272392195
2095.464394600951 1761.2393009987106
2096.102826344313 1758.4884201732261
2096.741104306955 1800.3816093217563
2097.379228525453 1618.9293139201695
2098.017199036358 1462.9693029457223
2098.6550158762147 1895.957855440519
2099.2926790815527 1732.8440034249768
2099.9301886888825 1747.705258281499
2100.5675447347076 1522.5389496441476
2101.2047472555114 1544.2757287372358
2101.841796287761 1566.0616833996169
2102.47869186792 1876.1518275682688
2103.1154340324265 1647.8046169066686
2103.752022817709 1748.2698226654957
2104.388458260184 1625.2285765080537
2105.024740396251 1677.0719784770342
2105.660869262292 1599.042733705925
2106.296844894685 1975.8245156147339
2106.93266732978 1730.6609046181493
2107.5683366039284 1585.504261411241
2108.2038527534532 1857.0801605687873
2108.8392158146726 1949.3777454073686
2109.4744258238843 1504.9143069925449
2110.1094828173755 1662.016871322298
2110.744386831422 1678.6251276160033
2111.3791379022787 1695.304066586541
2112.01373606619 1853.3426063083007
2112.648181359389 1892.0725440090705
2113.28247381809 1840.051961842583
2113.916613478492 1903.006020906631
2114.550600376786 1833.7078512508438
2115.1844345491445 1574.5557644650942
2115.818116031729 1587.2467124447319
2116.451644860679 1640.0610901675886
2117.085021072133 1579.5175175313377
2117.718244702204 1593.212397776278
2118.3513157869984 1715.5530797188985
2118.984234362604 1527.5381780380437
2119.617000465092 1574.04131959674
2120.249614130529 1864.227957754329
2120.8820753949585 1727.239631901583
2121.5143842944162 1685.7411721708916
2122.14654086492 1705.6552527788
2122.7785451424734 1804.4059814051875
2123.4103971630702 1455.8533341165653
2124.042096962681 1788.8975577727456
2124.6736445772767 1888.6557636777202
2125.305040042802 1623.2785626210184
2125.936283395191 1624.250991519267
2126.567374670365 1791.0452568175872
2127.198313904233 1619.6886200432823
2127.8291011326855 1517.2362848678615
2128.4597363916037 1414.3892990990587
2129.0902197168507 1810.9888052015854
2129.720551144279 1935.586337640941
2130.3507307097225 2060.2239602145237
2130.980758449008 1853.4761824557652
2131.6106343979427 1534.1747369697957
2132.2403585923203 1975.3072777826878
2132.8699310679276 1938.8583128761627
2133.499351860526 1878.6166891818352
2134.1286210058715 1593.4699041469319
2134.7577385397053 1463.0585009683814
2135.3867044977487 2025.3572889467746
2136.0155189157176 2011.6010819690164
2136.644181829308 1912.812537215462
2137.2726932742025 1840.3132523497393
2137.901053286074 1715.7552458196446
2138.5292619005777 1591.0649630119724
2139.1573191533535 1745.724780102335
2139.7852250800315 1757.3571813567262
2140.4129797162295 1655.775689436917
2141.0405830975433 1532.6166720916044
2141.6680352595613 1569.380739588889
2142.2953362378576 1606.2331042375372
2142.9224860679915 1511.7812963335641
2143.549484785508 1623.2812152644103
2144.1763324259373 1607.1388224438224
2144.803029024799 1528.8346740027864
2145.429574617594 1731.8437379559905
2146.0559692398165 1768.8170253521148
2146.682212926942 1611.3675209330095
2147.308305714432 1670.9113295671868
2147.9342476377333 1912.298589349891
2148.5600387322847 1862.5143960854325
2149.185679033506 2043.1771937349142
2149.8111685768017 1718.3559643701697
2150.4365073975678 1463.3581935606458
2151.061695531187 1442.9297329451795
2151.686733013021 1859.4906869222305
2152.311619878423 1760.382533360023
2152.9363561627342 1580.4457030216522
2153.560941901278 1479.525277928065
2154.1853771293663 1728.421702745376
2154.809661882293 1786.2824207386961
2155.433796195348 1621.7792860623567
2156.0577801037944 1983.1403078733208
2156.681613642895 1854.799595408796
2157.3052968478896 1485.0785938957656
2157.928829754006 1773.8382537469133
2158.552212396462 1932.871776481064
2159.1754448104566 1710.9946426806669
2159.7985270311783 1527.709982596621
2160.4214590938027 1129.0257318314548
2161.0442410334927 1158.2859284780202
2161.6668728853874 1356.8731607338398
2162.289354684628 1555.8699502789045
2162.911686466332 1539.1781038821675
2163.533868265602 1831.9323614820544
2164.1559001175337 1977.3771007696348
2164.7777820572046 1841.4957020906913
2165.399514119681 1567.7255547453424
2166.021096340013 1637.7973461983731
2166.6425287532384 1849.737429202857
2167.263811394385 1871.4876745958336
2167.8849442984574 1893.4307236898162
2168.505927500455 1602.0210915076002
2169.126761035366 1725.2695590992503
2169.7474449381552 1595.4165671983212
2170.367979243778 1279.4976340314724
2170.9883639871823 1884.1153729377406
2171.608599203293 1447.0686082967766
2172.2286849270276 2065.3934746902078
2172.8486211932886 2127.35971010301
2173.4684080369625 1684.7542838563281
2174.0880454929265 1516.6899286517073
2174.7075335960417 1412.903354914586
2175.3268723811543 1369.0366516041763
2175.9460618831 1325.079729079211
2176.565102136701 1606.5629443506418
2177.1839931767627 1655.1409499934664
2177.802735038078 1703.871110853134
2178.421327755432 1710.1278318392065
2179.0397713635866 1485.763961951555
2179.658065897298 1665.1706742586437
2180.276211391305 1675.2330545770178
2180.8942078803357 1641.0831191089626
2181.5120553991 1771.530864682453
2182.129753982299 1728.5836615415938
2182.7473036646206 1685.5486199479815
2183.3647044807367 1684.7925545731916
2183.9819564653044 1633.641534691992
2184.599059652968 1582.4240400421122
2185.216014078367 1720.611444172468
2185.832819776113 1873.2783932630834
2186.4494767808137 1469.1601757822436
2187.065985127063 1625.0346111003432
2187.682344849436 1458.6262208417916
2188.298555982501 1892.4953264409069
2188.9146185608097 1766.4902366211743
2189.530532618901 1849.4048786529966
2190.1462981912937 1615.7352403050295
2190.761915312507 1642.9427751428968
2191.377384017036 1583.1197684927233
2191.9927043393654 1629.5713031314658
2192.6078763139667 1291.452740800343
2193.2228999753006 1395.8504526403196
2193.837775357808 1500.4835775782915
2194.452502495922 1313.1734069479203
2195.0670814240602 1721.3456316943873
2195.6815121766285 1415.9353599961423
2196.2957947880186 1306.181638611574
2196.9099292926057 1196.2109026442934
2197.523915724758 1599.0527109929792
2198.137754118825 1538.7926022695601
2198.7514445091456 1887.8354258316226
2199.3649869300443 1916.9066304982812
2199.9783814158327 1946.1262398879894
2200.5916280008096 2108.9644574169065
2201.2047267192593 1899.6895857512027
2201.8176776054515 1615.0304414215975
2202.430480693649 1567.102622015921
2203.0431360180955 1777.6692229501386
2203.6556436130195 1820.3805479735086
2204.268003512645 1215.0525033217573
2204.8802157511727 1579.7005936092721
2205.492280362796 2022.3438024613588
2206.1041973816937 1729.911913661068
2206.715966842032 1648.3275642983663
2207.3275887779655 1800.90463542697
2207.93906322363 1641.604714602015
2208.550390213153 1723.7774424230781
2209.1615697806465 1825.5623878548802
2209.7726019602105 1552.1365647125872
2210.3834867859277 1378.2228255019254
2210.9942242918787 1589.3781218534766
2211.6048145121167 1437.5440323320622
2212.2152574806914 2167.3695899143445
2212.825553231638 1539.139326006505
2213.435701798975 2218.8751797998184
2214.045703216707 1751.718757880093
2214.655557518832 1281.3414472944094
2215.2652647393297 1349.1176244956982
2215.874824912169 1505.2088746779002
2216.4842380713 1661.8205507799053
2217.09350425067 1414.9247176908639
2217.7026234842033 1819.8209313246527
2218.311595805819 1792.1604865252734
2218.9204212494133 1520.1691101665433
2219.52909984888 1969.3413698480733
2220.137631638092 1918.4916797241845
2220.7460166509154 1867.4150895010189
2221.354254921198 1533.6816990778636
2221.9623464827764 1885.297743225678
2222.5702913694713 1762.0681556525378
2223.178089615096 1930.498661119126
2223.7857412534486 1553.7892335312658
2224.39324631831 1233.990473907977
2225.000604843457 1552.3049816642758
2225.607816862641 1608.4754424633186
2226.214882409611 1718.0818095188085
2226.8218015180973 1975.159310353145
2227.4285742218217 1700.2275143187235
2228.0352005544864 1685.3226457116507
2228.6416805497847 1369.1608799893418
2229.248014241399 1571.2426996302327
2229.8542016629945 1372.05262526552
2230.460242848223 1733.903518231889
2231.0661378307304 1594.8787753162658
2231.671886644139 1455.7345180846578
2232.277489322065 1382.5516378305258
2232.8829458981127 1105.7677959707514
2233.48825640587 1522.526127699349
2234.0934208789095 2083.9458370799816
2234.6984393507955 1916.37377082201
2235.3033118550793 1589.7391493977548
2235.9080384252975 1391.0585183808546
2236.5126190949723 1392.1277506848699
2237.1170538976166 1527.6514412126257
2237.721342866729 1319.8064060599313
2238.32548603579 1291.6195482752173
2238.9294834382763 1569.466148352782
2239.533335107646 1614.6849446809106
2240.1370410773434 1407.6546947620504
2240.740601380803 1335.3535992523898
2241.3440160514474 1550.9131045444171
2241.9472851226783 1803.60566628696
2242.550408627896 1547.5705998387157
2243.1533866004793 1489.2299052851236
2243.756219073799 1430.8145949915865
2244.3589060812064 1448.2992348119083
2244.961447656049 1344.7472331749009
2245.5638438316564 1619.4281007185941
2246.166094641343 1620.9600722051746
2246.7682001184166 1382.6266149140351
2247.3701602961664 1432.912256251627
2247.971975207871 1640.5868380900515
2248.5736448867974 1875.3715799523063
2249.175169366197 1506.933899687972
2249.7765486793123 1561.8182095056998
2250.3777828593684 1737.3117851393938
2250.9788719395783 1687.928341169964
2251.579815953146 1545.9184874396822
2252.1806149332606 1367.8365734743115
2252.781268913097 1558.3073626594903
2253.381777925817 1356.054190977328
2253.9821420045737 1799.3894007567894
2254.5823611825035 1784.0586775457582
2255.1824354927303 1731.323394754736
2255.782364968365 1578.2113400747953
2256.38214964251 1424.9365452873499
2256.9817895482483 1313.4898369286052
2257.5812847186553 1515.6744748251392
2258.180635186791 1417.7434371528086
2258.779840985704 1459.54295400552
2259.37890214843 1388.5752979239764
2259.97781870799 1511.8256176627715
2260.5765906973957 1635.308736195867
2261.175218149645 1740.8973677005858
2261.773701097718 1544.5655498325002
2262.3720395745895 1341.806162227487
2262.970233613216 1659.1047539734802
2263.568283246548 1613.462635270956
2264.1661885075137 1279.793222416975
2264.763949429038 1436.8794840576716
2265.3615660440246 1841.4897668263889
2265.959038385374 1825.3138965921037
2266.5563664859637 1809.1615043882102
2267.153550378669 1451.6788385263956
2267.7505900963424 1527.472627287621
2268.3474856718312 1460.3131687956013
2268.9442371379664 1562.3804855526528
2269.5408445275643 1582.3076654893762
2270.1373078734377 1533.563568511006
2270.7336272083758 1448.0080238977323
2271.32980256516 1451.0720342959717
2271.925833976562 1633.4494670375034
2272.5217214753357 1482.4284784813622
2273.117465094223 1706.6099426986198
2273.7130648659586 1476.9009325698173
2274.308520823257 1533.7457173710495
2274.903832998827 1535.2410977365064
2275.4990014253563 1339.3594019662187
2276.094026135528 1309.763517169323
2276.6889071620117 1280.0673095998231
2277.2836445374614 1622.8833342779533
2277.878238294519 1549.9337857534024
2278.472688465812 1386.2028182430747
2279.066995083962 1222.1778213212747
2279.6611581815705 1478.9678265570958
2280.255177791232 1725.3013486973261
2280.8490539455233 1517.7525754779508
2281.442786677013 1765.454894790379
2282.0363760182554 1594.3636322869593
2282.6298220017943 1387.2296711874171
2283.223124660155 1843.992370925725
2283.816284025859 1371.5072822542547
2284.4093001314086 1823.1683572876198
2285.002173009292 1368.4474021338374
2285.5949026919952 1545.5003537822417
2286.1874892119777 1573.9465906148548
2286.7799326016993 1388.0835359589091
2287.3722328936 1201.729887990164
2287.964390120109 1212.3500644846251
2288.556404313642 1758.2788387144308
2289.1482755066027 1991.4384621571699
2289.7400037313873 1526.1791655938644
2290.3315890203703 1527.3779650065637
2290.9230314059205 1643.9121039295612
2291.5143309203904 1355.9399219856
2292.1054875961236 1515.3683108374737
2292.6965014654506 1755.9541175440431
2293.287372560684 1527.809391070147
2293.878100914131 1525.4465605263429
2294.468686558086 1523.1278023198895
2295.059129524827 1469.1360879100666
2295.649429846617 1450.0445085839747
2296.239587555716 1430.8702751377873
2296.8296026843636 1413.1762102104
2297.419475264791 1470.4374383793274
2298.0092053292137 1527.7140668599488
2298.598792909839 1692.1921327241448
2299.1882380388597 1421.2897798375984
2299.777540748455 1463.9533632933708
2300.3667010707904 1506.5806879023016
2300.9557190380256 1701.5862214175631
2301.544594682302 1488.2200428897465
2302.1333280357503 1828.6883668613755
2302.721919130485 1599.8998787239236
2303.3103679986198 2059.1274826142426
2303.898674672242 1709.80636483165
2304.486839183437 1331.168178970256
2305.0748615642697 1309.857468754802
2305.6627418468015 1522.5988499769298
2306.2504800630704 1330.4482549500326
2306.8380762451143 1621.4477996418043
2307.425530424949 1691.3134294373078
2308.012842634582 1761.3262436505709
2308.6000129060103 1831.4836705871658
2309.187041271214 1888.8091744059845
2309.773927762164 1411.1842508604902
2310.3606724108213 1714.1169166798256
2310.9472752491274 1724.3477721884224
2311.5337363090184 1734.6400769247798
2312.120055622414 1545.5692019253179
2312.706233221221 1496.767757994508
2313.2922691373424 1265.9532535465164
2313.8781634026564 1366.759260432878
2314.463916049037 1467.790589203654
2315.049527108342 1507.3748774212804
2315.6349966124235 1764.3513976888066
2316.2203245931123 1822.4462944136503
2316.8055110822315 1630.6204927644108
2317.3905561115935 1438.3296479410928
2317.9754597129977 1433.315999947506
2318.560221918229 1373.662273331083
2319.1448427590603 1313.9030640806134
2319.729322267256 1302.1842697607312
2320.313660474563 1245.6382200712076
2320.8978574127195 1387.8471643494736
2321.481913113452 1530.5016678324782
2322.0658276084705 1479.2405888979133
2322.6496009294806 1325.9548933159358
2323.233233108165 1542.0036340143938
2323.8167241762058 1435.2661322952497
2324.4000741652617 1571.4506997274843
2324.983283106987 1660.8495608088022
2325.5663510330232 1740.2235244506605
2326.1492779749933 1501.334384238332
2326.7320639645204 1342.6649625443745
2327.3147090332004 1328.6048884023674
2327.897213212629 1364.1758553477846
2328.4795765343843 1399.6918842947757
2329.0617990300307 1402.2440309535334
2329.643880731124 1814.1053922477568
2330.22582166921 1451.4662351342063
2330.807621875816 1208.6643500325508
2331.3892813824623 965.5789460376624
2331.9708002206517 1161.5771262546623
2332.5521784218818 1362.2717327533292
2333.133416017634 1563.4321986657435
2333.7145130393765 1301.2935593302866
2334.295469518571 1641.7346237145503
2334.876285486658 1665.699166295132
2335.456960975076 1199.7013381532702
2336.037496015242 1240.3682790041391
2336.6178906385667 1281.1516766969335
2337.198144876451 1441.988682582102
2337.778258760278 1695.840223687165
2338.3582323214214 1635.1461886249447
2338.938065591243 1574.2700299947926
2339.517758601087 1835.9433154105695
2340.0973113822965 1715.5855311605494
2340.676723966193 1684.6068618609763
2341.255996384094 1720.8653984911314
2341.835128667295 1758.9138044467065
2342.4141208470883 1653.4284217819932
2342.992972954751 1565.0538516753559
2343.5716850215467 1239.830276713539
2344.1502570787306 913.9205077645681
2344.7286891575386 1161.435356822565
2345.3069812892045 1376.287655716264
2345.885133504944 1591.3960318966563
2346.4631458359618 1298.2842589407608
2347.04101831345 1311.3410548042834
2347.6187509685915 1418.5086952014892
2348.196343832553 1412.3885840725563
2348.7737969364935 1388.8087879137054
2349.351110311558 1365.2283073847866
2349.9282839888765 1200.085887461762
2350.5053179995757 1342.603607476727
2351.0822123747585 1228.0945794336944
2351.658967145526 1284.2712519737513
2352.2355823429643 1340.6174561388211
2352.812057998144 1554.2037520843496
2353.3883941421263 1777.0617217085514
2353.9645908059647 1550.2847025507442
2354.540648020693 1509.6882975904998
2355.116565817336 1326.300269656867
2355.6923442269126 1437.1430392906789
2356.2679832804224 1548.220657698873
2356.8434830088518 1419.0488420110576
2357.41884344318 1438.213102666146
2357.994064614377 1457.3514963772407
