#exp_cfg={"servo_angle": 0.0, "laser_lim": 100.0, "servo_angle_to": 18.0, "laser_wup": 0.0, "bt_dev": "EnSpectr-25AE3", "laser_wdn_max": 0.0, "frames": 10.0, "servo_used": 0, "servo_calib_use": 0, "laser_wdn_min": 0.0, "servo_pix_from": 90.0, "cooler_tout": 300.0, "servo_angle_from": 0.0, "servo_calib": "[-1.9174921013161362e-09, 3.9322238269163779e-05, -0.27385609119055809, 653.59552119713567]", "laser_autoctl": 0, "servo_pix_to": 3682.0, "laser_pw": 100.0, "cooler_on": 0, "laser_volt": 4.0, "cooler_autoctl": 0, "cooler_curr": 70.0, "cooler_startup": 10.0, "laser_fixed_pw": 0, "gain": 1.3, "offset": 2.53059635486, "servo_calib_degree": 3.0, "laser_curr": 55.0, "shutter": 8200.0, "servo_calib_step": 1.0, "laser_fixed_curr": 0, "exp": 2000.0, "ccd_volt": 4.7, "bt_addr": "00:06:66:62:5A:E3", "servo_delay": 500.0, "laser_autooff": 1}
#proc_cfg={"flat_auto_wnd": 200.0, "flat_auto_fr": 200.0, "flat_auto_shift": 5.0, "yconv": 1, "flatten": 1, "flatten_strength": 100.0, "xfrom": 300.0, "auto_max_frame": 2000.0, "auto_signal": 48000.0, "flat_auto_tol": 0.1, "autoclip": 1, "xrel_range": 0.0, "flat_auto_to": 4000.0, "intensity_adj": 1.0, "xrel": 7852.0, "rmhot": 1, "flat_auto_slit": 4.999999999999997, "auto_ini_exp": 300.0, "auto_off": 0, "xto": 2860.0, "flat_auto_ref": "", "flat_auto_rank": 1, "autobackg": 0, "xrel_adj": 0.0, "auto_black_lvl": 1, "base_wnd": 100.0, "sub_baseline": 0, "xconv": 2, "auto_max_exp": 1000.0, "auto_total_exp": 10000.0, "auto_exp": 0, "rmripple": 0, "black_lvl": 8258.9375, "shutter_clip_adj": 0.0, "auto_bckg": 0, "flat_auto_thr": 0.9, "subbackg": 1}
316.8218498245369 10161.41162170511
317.89969571804795 10013.84950351316
318.977263876126 9972.742558629536
320.05455438786703 9900.352728010259
321.1315673423287 9886.993435485532
322.2083028285215 9934.646061831892
323.2847609354267 9867.104098915679
324.3609417519747 9843.714099835057
325.43684536705587 9792.86601912916
326.5124718695279 9824.312535038971
327.58782134820103 9763.057950927927
328.66289389184385 9787.997115403421
329.7376895891921 9646.874854713502
330.8122085289342 9674.843408209856
331.88645079971866 9650.754395465989
332.9604164901575 9592.550875813116
334.03410568881554 9534.953037235962
335.1075184842266 9650.279140234654
336.18065496487543 9526.974283523869
337.2535152192122 9549.967364988897
338.32609933564163 9522.208621519621
339.39840740253203 9485.047678582443
340.4704395082099 9475.611948945018
341.5421957409617 9438.148500303345
342.6136761890357 9424.090875314516
343.6848809406365 9416.926873039503
344.75581008392874 9279.193806389043
345.82646370703696 9371.65554527567
346.8968418980512 9325.262415167159
347.96694474501055 9299.711305984492
349.0367723359268 9301.400445364834
350.106324758759 9198.598764640747
351.1756021014353 9139.043833119084
352.2446044518383 9164.599337738191
353.31333189781435 9260.216445944468
354.38178452716966 9134.540498635508
355.449962427665 9116.392078396564
356.51786568702846 9040.00762794484
357.58549439294256 9112.27929084663
358.6528486330535 9129.005671357761
359.71992849496564 9068.479636512619
360.7867340662433 9073.301197098064
361.8532654344144 9085.730594226417
362.9195226869597 9083.286310188143
363.9855059113288 8973.582745005642
365.05121519492604 8860.543399976455
366.11665062511565 8989.646302606492
367.1818122892273 8913.32581129949
368.2467002745434 8977.511400013926
369.31131466831175 8878.728700513395
370.375655557742 8849.647722175776
371.4397230299983 8863.317246743558
372.5035171722102 8828.540705665848
373.5670380714637 8834.666999929292
374.6302858148101 8874.150836656654
375.6932604892554 8815.519625088089
376.7559621817709 8868.065570564522
377.81839097928605 8741.109083354106
378.8805469686886 8766.49151428687
379.94243023683157 8680.158605581297
381.0040408705263 8784.463785506661
382.0653789565458 8635.110377538413
383.1264445816196 8640.475865936209
384.1872378324406 8670.293224359124
385.2477587956637 8647.35405335256
386.3080075579037 8581.97166702095
387.3679842057336 8501.759480444338
388.4276888256918 8645.983561666446
389.48712150426945 8548.120238822292
390.54628232792857 8535.154042260096
391.6051713830857 8438.595454511658
392.66378875611736 8555.84832659845
393.7221345333637 8447.97661187141
394.7802088011249 8472.542730272831
395.838011645661 8459.171718252477
396.89554315319765 8396.873415004538
397.9528034099112 8338.520885231255
399.00979250194723 8347.944992907082
400.06651051541485 8391.348602265962
401.1229575363741 8388.97500298061
402.17913365085224 8274.230509221812
403.23503894483656 8370.54695564383
404.2906735042761 8275.415669584794
405.3460374150818 8207.200557965414
406.401130763119 8237.774502540182
407.455953634224 8260.98648213927
408.5105061141876 8167.734455512688
409.56478828876243 8129.127215780514
410.6188002436629 8163.241994918506
411.6725420645689 8044.038139162377
412.72601383711117 8143.862395166339
413.77921564689314 8152.300174943633
414.8321475794728 8134.619866441902
415.88480972036814 8038.00562289428
416.93720215506437 8026.31423413349
417.9893249690049 8155.296887388196
419.04117824759123 7983.274228445024
420.09276207619223 8010.469669819962
421.144076540133 8014.952444104267
422.1951217247042 7992.538459631827
423.24589771515275 7980.176717470133
424.2964045966928 7973.5696430388925
425.34664245449494 7952.6958233554105
426.3966113736933 7869.759960134994
427.4463114393875 7887.675389252108
428.49574273662984 7896.857136086832
429.5449053504417 7768.635653316958
430.5937993658026 7926.085923826389
431.6424248676558 7846.928976433723
432.6907819409007 7771.219653088703
433.73887067040596 7853.104976372929
434.7866911409965 7863.287355906476
435.8342434374608 7814.866380024138
436.88152764455117 7776.3613255491555
437.9285438469724 7751.561624685394
438.9752921294057 7697.7794651611985
440.02177257648145 7748.722345168581
441.06798527279716 7696.213638613355
442.1139303029122 7834.315274072801
443.1596077513459 7732.48018686081
444.2050177025794 7727.663246542584
445.25016024105753 7723.999348022301
446.2950354511886 7672.991322565891
447.33964341733736 7755.072585725242
448.383984223834 7684.271332327003
449.4280579549686 7626.726137678392
450.471864694995 7609.8936941803095
451.5154045281306 7683.7447266935615
452.5586775385509 7614.163016127384
453.60168381039693 7652.763744410384
454.64442342776783 7710.4145359753265
455.6868964747264 7697.897663962435
456.7291030353008 7567.674398015113
457.77104319347563 7668.764567362154
458.8127170332027 7624.82690189181
459.854124638392 7698.601132512767
460.895266092919 7717.575271421316
461.93614148061897 7673.0204117709845
462.97675088529104 7745.198598812097
464.01709439069236 7710.890722297113
465.0571720805492 7719.335830476377
466.0969840385442 7777.411749050577
467.1365303483253 7863.751279441267
468.17581109350067 7767.946826433596
469.2148263576437 7763.577096768958
470.2535762242878 7828.465094849371
471.29206077693016 7858.253248082599
472.33028009902773 7792.162145143569
473.3682342740012 7836.048524988755
474.40592338523857 7858.164084888444
475.4433475160804 7790.612361324516
476.4805067498364 7787.093085972911
477.51740116978 7720.168218243607
478.5540308591426 7780.144079402477
479.59039590112116 7798.667917581236
480.6264963788726 7756.239049291631
481.6623323755193 7805.285917630313
482.6979039741436 7831.158653718247
483.7332112577915 7881.52219792293
484.76825430947247 8000.884046544044
485.80303321215797 7925.085199010534
486.837548048783 7926.979915509316
487.8717989022425 7974.084084642915
488.90578585539697 7970.038741655777
489.9395089910686 7986.706480404164
490.97296839203955 7903.252685235917
492.00616414106116 7805.881491586062
493.0390963208429 7913.259365262247
494.0717650140559 7800.058649340141
495.10417030333883 7792.435072350141
496.1363122712901 7760.033136396947
497.16819100046814 7639.556932253276
498.1998065734024 7657.086948106116
499.2311590725767 7651.88426447366
500.26224858044407 7614.899545828666
501.2930751794156 7558.739051809056
502.3236389518679 7547.671865269903
503.35393998014115 7415.490165470796
504.38397834653733 7473.039607518038
505.4137541333221 7515.684520370816
506.4432674227228 7417.405907023674
507.4725182969323 7432.270267275535
508.5015068381035 7354.406209040337
509.53023312835467 7455.620100711404
510.55869724976765 7410.400554243643
511.58689928438434 7358.0930429768805
512.6148393142121 7291.97901330696
513.6425174212218 7379.152024355915
514.6699336873462 7262.739922119219
515.6970881944835 7335.527266545762
516.7239810244901 7239.941915210043
517.7506122591931 7331.100647821215
518.7769819803761 7233.9472751302
519.8030902697901 7313.631472628537
520.8289372091476 7282.929619746805
521.8545228801249 7402.807622417307
522.8798473643619 7242.143230762658
523.9049107434621 7299.2492263384975
524.9297130989908 7335.341498142548
525.9542545124805 7291.319743042055
526.9785350654201 7251.7653742200155
528.0025548392696 7673.252536996634
529.0263139154504 7393.417540040959
530.0498123753423 7322.749671231689
531.073050300296 7236.205288439659
532.0960277716204 7211.660038110378
533.1187448705896 7193.804370380521
534.1412016784416 7279.975743463263
535.1633982763833 7211.549494250549
536.1853347455726 7219.03151985048
537.2070111671401 7242.024593619792
538.2284276221817 7155.617302106662
539.2495841917516 7100.743628462076
540.2704809568677 7065.734833647861
541.2911179985167 7142.6651578969195
542.3114953976419 7117.558603768504
543.3316132351592 7053.221333605111
544.3514715919409 7030.81888507862
545.3710705488247 7033.27973224491
546.3904101866156 7032.5811345840675
547.4094905860784 7064.4985334798885
548.4283118279418 7055.096756955105
549.4468739929034 7092.802745267867
550.4651771616191 7025.640566832482
551.4832214147063 7006.406856935597
552.501006832761 7102.175091007227
553.5185334963226 6967.4426149925
554.5358014859103 7098.824214776983
555.5528108820035 7019.256670626048
556.5695617650363 7042.428188548889
557.5860542154242 7067.1600144392
558.6022883135283 7034.916014614345
559.6182641396881 7026.436647135129
560.6339817741991 7070.919689704252
561.6494412973225 7049.274409003953
562.6646427892883 7168.657363021953
563.6795863302796 7062.79554469866
564.694272000459 7036.525670699986
565.7086998799423 7178.837907147768
566.7228700488104 7054.712469557347
567.7367825871115 6992.513264390631
568.7504375748576 7056.535153982438
569.7638350920224 7004.211508078728
570.7769752185486 7005.545452672208
571.7898580343353 6903.999565108698
572.802483619258 6868.064200916231
573.8148520531431 7016.198043957191
574.8269634157932 6975.168549595002
575.8388177869692 6892.818996943085
576.8504152463938 6889.6012519162805
577.8617558737587 6976.149007594456
578.8728397487175 6863.501262537579
579.883666950891 6837.210645302046
580.8942375598654 6916.559337538705
581.9045516551851 6880.709634516643
582.9146093163617 7069.304961112366
583.924410622878 6907.610207262461
584.9339556541727 6916.8173608258385
585.9432444896538 7009.180600551661
586.9522772086875 6925.1873380454
587.9610538906127 6964.21222542358
588.9695746147318 6881.472751868147
589.9778394603054 6958.521276852944
590.985848506567 6921.759369235598
591.9936018327098 6827.553409779694
593.0010995178891 6700.850143578781
594.0083416412344 6842.829747615932
595.0153282818283 6756.62914234888
596.0220595187293 6700.956667247117
597.0285354309508 6652.833377517636
598.0347560974806 6673.926759167708
599.0407215972609 6733.800190752547
600.0464320092051 6675.875290636517
601.0518874121954 6713.35492153753
602.0570878850685 6708.371237809462
603.062033506636 6680.433613789287
604.0667243556636 6649.841759661076
605.0711605108936 6560.0515029246035
606.0753420510264 6809.844925875698
607.0792690547278 6683.170930678498
608.082941600629 6598.1827161864685
609.0863597673306 6628.749126759479
610.0895236333909 6720.329202272967
611.0924332773357 6810.771828221272
612.0950887776617 6696.9499810507605
613.0974902128219 6789.872363254448
614.0996376612384 6858.371977965804
615.1015312013005 7002.5716666813805
616.1031709113595 7009.88450795918
617.1045568697336 6942.588414407898
618.1056891547069 7038.633260487999
619.1065678445229 7174.043855341144
620.1071930173985 7330.291590770187
621.1075647515099 7279.609545873626
622.1076831250048 7306.447783134667
623.1075482159849 7353.028604569614
624.1071601025305 7329.904035524165
625.1065188626781 7343.302632586075
626.105624574433 7482.6362040427775
627.1044773157682 7476.798124773808
628.1030771646128 7403.637584756763
629.1014241988742 7433.125480235981
630.0995184964158 7518.449613094761
631.0973601350688 7531.9815274343055
632.0949491926294 7622.27040115578
633.0922857468631 7438.8589301442
634.089369875499 7499.3473455587055
635.0862016562278 7553.133637750996
636.0827811667077 7365.59105483733
637.0791084845641 7477.34490572794
638.0751836873878 7324.882462871841
639.0710068527369 7399.672678951445
640.0665780581294 7302.156800710365
641.0618973810506 7237.571441685618
642.0569648989604 7281.006116959191
643.0517806892676 7215.05426514715
644.0463448293649 7200.283229712375
645.040657396592 7137.8307282019905
646.0347184682723 7119.638061991427
647.0285281216875 7024.810661709434
648.0220864340772 7020.76704401897
649.0153934826558 7075.931148212532
650.0084493446047 6950.351992121107
651.0012540970674 7047.5883575062135
651.9938078171526 6988.098900961025
652.9861105819346 6852.329783099228
653.9781624684565 7003.276554583312
654.9699635537254 6827.459291423753
655.9615139147136 6884.864953580021
656.9528136283589 6798.986545037044
657.9438627715699 6903.798194557472
658.9346614212154 6758.7465518678855
659.925209654135 6563.907138194128
660.9155075471263 6661.98723014983
661.9055551769616 6659.716145482598
662.895352620375 6796.570505731445
663.8848999540678 6567.3375355372455
664.8741972547068 6547.702778147843
665.863244598926 6512.742491019581
666.8520420633213 6589.547039383872
667.8405897244611 6466.699648145331
668.8288876588758 6336.053944986657
669.8169359430613 6485.8504089993185
670.8047346534822 6478.867345464832
671.7922838665672 6309.132987561041
672.7795836587156 6416.47271768683
673.766634106285 6478.0145149441805
674.7534352856092 6304.853544349406
675.7399872729766 6279.8450074036955
676.7262901446538 6309.10732466345
677.712343976862 6259.106646500217
678.6981488457986 6299.285260006235
679.6837048276229 6143.282689903707
680.6690119984596 6255.103618116206
681.6540704344043 6276.639240551891
682.6388802115107 6174.795046134148
683.6234414058108 6165.312674391421
684.6077540932874 6193.290332830624
685.591818349907 6174.308549248472
686.575634251587 6195.208646108571
687.5592018742263 6117.55234837581
688.5425212936734 6038.141132344023
689.5255925857564 6203.95349502703
690.5084158262707 6182.414429498098
691.4909910909646 6111.47680049958
692.4733184555644 6083.293708600799
693.4553979957618 6140.438145932362
694.4372297872123 6132.714630994938
695.4188139055404 6171.709773646808
696.4001504263324 6052.20342304514
697.3812394251509 6211.298200679944
698.3620809775111 6116.813208732986
699.3426751589104 6171.82597389255
700.3230220448004 6104.855892034826
701.3031217106054 6197.601357262341
702.2829742317172 6415.386520290765
703.2625796834873 6146.95583358423
704.2419381412474 6183.974218011488
705.22104968028 6254.7860047793865
706.1999143758458 6258.47427762887
707.178532303169 6338.508859344294
708.1569035374378 6437.891958296301
709.1350281538107 6526.254473504667
710.1129062274158 6524.0698049150105
711.0905378333373 6736.966401675808
712.0679230466376 6829.472136548528
713.0450619423427 7000.294720686225
714.0219545954424 7241.223995345174
714.9986010808989 7267.452305972452
715.9750014736292 7545.702801527584
716.9511558485392 7784.433105430306
717.9270642804786 8029.255026135996
718.9027268442787 8204.212235259587
719.8781436147328 8272.945938987805
720.8533146666014 8316.046237684128
721.828240074612 8383.726465443262
722.8029199134635 8261.096086525526
723.7773542578125 8237.585194329666
724.751543182294 8051.762177421656
725.7254867615029 8015.245523376606
726.6991850700015 7662.437975645633
727.6726381823228 7630.2608804608635
728.6458461729599 7551.674387162382
729.6188091163858 7433.093793034667
730.5915270870246 7416.101601468812
731.5640001592856 7378.338891121743
732.536228407529 7414.872455995299
733.5082119060917 7547.080615622338
734.4799507292755 7491.847655535256
735.4514449513481 7611.993889824975
736.4226946465496 7654.111387580664
737.3936998890786 7629.752820671967
738.3644607531078 7463.860878468385
739.3349773127793 7467.067827280829
740.3052496421951 7356.04000786277
741.27527781543 7188.389197329702
742.2450619065221 6924.120962912903
743.2146019894826 6829.892683616515
744.183898138288 6658.3816780153775
745.1529504268801 6510.721722952532
746.1217589291682 6305.485849767853
747.0903237190341 6246.926770274094
748.058644870318 6114.700735542231
749.0267224568397 6084.121683325116
749.994556552374 5895.19972967353
750.9621472306771 5881.618448257961
751.9294945654583 5883.666332792648
752.8965986304011 5797.164332182188
753.8634594991636 5712.212208869888
754.8300772453586 5723.410515448321
755.7964519425768 5623.316226094232
756.762583664371 5786.739159556621
757.7284724842611 5656.390362950824
758.6941184757416 5606.3028028921135
759.6595217122667 5610.971258172337
760.6246822672638 5569.8250751193955
761.5896002141235 5481.672208289436
762.5542756262093 5571.481088246104
763.5187085768503 5608.121028494901
764.4828991393406 5579.07187075815
765.4468473869474 5469.422616887688
766.4105533929032 5580.616453285712
767.3740172304078 5478.702412114291
768.3372389726283 5596.46891263081
769.3002186926988 5449.802618792032
770.2629564637282 5459.9243429771905
771.2254523587872 5427.277244725671
772.1877064509154 5448.467562023744
773.1497188131179 5327.127035493426
774.1114895183728 5380.734249488395
775.0730186396268 5336.646429354368
776.0343062497905 5403.070930298018
776.9953524217381 5321.587952297804
777.9561572283274 5390.867284853696
778.9167207423689 5386.1178917260095
779.8770430366476 5266.859966498576
780.8371241839159 5323.327367638783
781.7969642568951 5279.217886736663
782.7565633282757 5476.847471109041
783.7159214707099 5300.165978106393
784.6750387568281 5334.386641296002
785.6339152592227 5261.594868700954
786.5925510504512 5279.4520599643865
787.5509462030477 5306.93504400245
788.5091007895098 5292.688301544875
789.4670148823006 5327.562389777797
790.4246885538596 5268.968649322729
791.3821218765861 5317.099256321848
792.3393149228505 5175.564439715492
793.2962677649975 5337.879822096049
794.2529804753303 5271.137135080526
795.20945312613 5338.407011868816
796.1656857896378 5259.6848864530675
797.1216785380675 5184.412820987331
798.0774314435985 5276.228772527129
799.0329445783846 5366.082587924666
799.9882180145414 5319.3089382507005
800.9432518241574 5249.08558504404
801.89804607929 5400.789066282667
802.852600851962 5392.4501283297195
803.8069162141637 5385.6649651395755
804.760992237856 5427.4519024028195
805.714828994971 5451.037043491002
806.6684265574077 5467.499547600624
807.6217849970271 5379.353441674845
808.574904385674 5340.521047118095
809.527784795142 5468.025889982935
810.4804262972102 5516.639185811533
811.4328289636178 5349.21624659283
812.3849928660748 5243.441269451891
813.3369180762638 5278.311217639131
814.2886046658241 5347.437229980633
815.2400527063783 5252.543235908067
816.1912622695108 5188.991441561968
817.1422334267718 5289.861941786568
818.0929662496856 5173.994877675497
819.0434608097457 5079.01984596496
819.9937171784059 5144.928512731498
820.9437354271013 5110.9223335858605
821.8935156272255 5211.428706353623
822.8430578501484 5033.055628507791
823.7923621672016 4889.049584684166
824.7414286496896 5016.306825912727
825.6902573688876 5020.735715925835
826.6388483960363 5017.497257240075
827.5872018023492 4929.75992770163
828.5353176590033 5027.531466322258
829.4831960371503 4919.708878434947
830.4308370079016 4883.074463171803
831.3782406423525 4936.35970269524
832.3254070115545 4954.127592915299
833.2723361865319 4894.187320246257
834.2190282382799 4851.976739341433
835.1654832377644 4900.330865305195
836.1117012559116 4848.001002953764
837.0576823636256 5013.860066201934
838.003426631778 4820.611340182447
838.9489341312074 4844.393253545789
839.8942049327197 4925.754433669665
840.8392391070975 5009.133783730395
841.7840367250865 4862.02529673647
842.7285978573982 4882.210230101313
843.672922574724 4913.192665694419
844.6170109477152 4884.293063920401
845.560863046996 4859.3682678037885
846.5044789431595 4900.357803081601
847.4478587067697 4860.617992858997
848.3910024083561 4938.376049596596
849.333910118421 4892.110619189294
850.2765819074339 4835.151687365821
851.2190178458332 4963.15164031649
852.161218004032 4920.0621236294355
853.1031824524016 4864.992723980178
854.0449112612987 4875.659542123909
854.9864045010327 4985.113924322206
855.9276622418947 4837.757178396501
856.8686845541379 4833.270979472162
857.8094715079915 4890.018090728672
858.7500231736467 4984.368568019959
859.690339621271 4908.141141405173
860.6304209209939 4895.684728082816
861.5702671429244 4895.210645827124
862.5098783571284 4904.812708853542
863.4492546336569 4911.855823223048
864.3883960425155 4870.476879485396
865.3273026536863 4850.7336767132465
866.2659745371238 4766.89526637631
867.2044117627465 4953.330240417711
868.1426144004472 4831.289040407146
869.0805825200823 4938.78334750689
870.0183161914847 4878.847285546505
870.9558154844526 4986.317948067508
871.8930804687552 4925.553734976768
872.8301112141307 4873.763091758905
873.7669077902865 4938.938775964274
874.7034702669062 5070.550890379471
875.6397987136315 4973.554831058509
876.5758932000863 4942.195298026503
877.5117537958522 5007.815957162237
878.4473805704911 4903.254619008192
879.3827735935283 4944.9474294966785
880.3179329344603 5012.347280025625
881.2528586627541 5084.603935189249
882.1875508478479 5050.894608917291
883.1220095591489 5000.577937502299
884.0562348660296 4987.136960187107
884.9902268378391 5040.679232948363
885.9239855438955 5004.311121529651
886.8575110534839 4887.219329443508
887.7908034358588 4970.951078649623
888.7238627602474 4945.495205627282
889.6566890958475 5043.469060998654
890.5892825118208 4854.992943962033
891.5216430773125 4941.950697466361
892.4537708614189 4912.166409876926
893.3856659332196 4926.0878275608975
894.3173283617652 4825.18953212712
895.2487582160684 4939.471165120065
896.179955565116 4867.273959354351
897.110920477864 4885.82918730689
898.0416530232451 4836.025781924047
898.9721532701478 4769.135223471278
899.9024212874428 4912.876268615884
900.8324571439662 4810.11822240379
901.7622609085302 4778.322095262305
902.6918326499072 4757.89102822851
903.6211724368477 4867.5248464404785
904.5502803380696 4910.258471746577
905.4791564222614 4970.529861137607
906.4078007580792 4801.641306660569
907.3362134141571 4808.983946121227
908.2643944590909 4973.221031287701
909.1923439614493 4820.409492797074
910.1200619897754 4823.877021262313
911.0475486125779 4946.898470114301
911.9748038983344 4845.5960157460695
912.9018279155007 4814.802344163807
913.8286207324982 4752.3592214744995
914.7551824177117 4883.102816110899
915.6815130395116 4821.223111143476
916.6076126662283 4719.171826164667
917.533481366163 4777.45261399647
918.4591192075914 4759.375240869863
919.3845262587565 4785.9121262290955
920.3097025878706 4607.788541949625
921.2346482631237 4724.1127753574365
922.1593633526682 4720.062180255746
923.0838479246304 4735.498183154753
924.0081020471061 4813.209115057061
924.9321257881656 4655.94095796881
925.8559192158464 4703.059499368401
926.7794823981512 4611.694115203487
927.7028154030686 4556.847781177187
928.6259182985414 4570.223970589415
929.5487911524906 4730.904890839659
930.4714340328119 4661.436650292962
931.3938470073608 4535.5331028319215
932.3160301439748 4606.84719788561
933.2379835104548 4586.115460077306
934.1597071745709 4697.669496103003
935.0812012040769 4581.641997142829
936.002465666681 4709.380275142182
936.9235006300696 4701.389757397499
937.8443061619055 4679.245092973093
938.7648823298077 4572.807063067376
939.6852292013809 4514.61407022791
940.6053468441951 4634.521261347915
941.5252353257874 4579.875187290097
942.4448947136698 4631.354643297172
943.364325075323 4618.566461476343
944.2835264782043 4608.477462432466
945.2024989897309 4664.980739715174
946.1212426773054 4697.482873659754
947.0397576082851 4743.681836216019
947.9580438500125 4808.04126453851
948.8761014697939 4770.789348556366
949.7939305349064 4750.825280523246
950.7115311125999 4716.044217317915
951.6289032700952 4706.816342091737
952.5460470745875 4809.637437023817
953.4629625932339 4751.581283980126
954.3796498931715 4883.9962409136515
955.2961090415029 4829.293248260508
956.2123401053068 4834.789267312724
957.1283431516276 4761.004778079015
958.0441182474842 4729.5141466632795
958.9596654598663 4859.607690769654
959.8749848557309 4791.998264482853
960.7900765020167 4703.750869175764
961.7049404656209 4646.81035902368
962.6195768134185 4738.706147432034
963.5339856122537 4756.947305147927
964.4481669289453 4764.491665136319
965.3621208302793 4704.703834692091
966.2758473830145 4624.286941631078
967.1893466538822 4795.590333191044
968.1026187095813 4658.225923130721
969.0156636167867 4617.98497458813
969.9284814421426 4712.309471917582
970.8410722522622 4610.191816426444
971.753436113735 4655.822327988276
972.6655730931161 4519.801379202521
973.5774832569368 4655.159802984033
974.4891666716958 4542.406106629301
975.4006234038698 4496.6549940509685
976.3118535198955 4472.57004209293
977.2228570861935 4606.005773371559
978.1336341691494 4557.159488599767
979.0441848351202 4418.530430558409
979.9545091504333 4599.984260684863
980.864607181391 4565.8407504386105
981.7744789942699 4507.773592820359
982.6841246553086 4507.310685440543
983.5935442307236 4556.829383882181
984.5027377867027 4600.455672985836
985.4117053894024 4589.5455817211605
986.3204471049557 4502.116197632822
987.2289629994648 4561.059354942403
988.1372531390007 4541.4031012550295
989.0453175896091 4511.906361093247
989.9531564173067 4565.275598122046
990.860769688079 4479.341623945416
991.7681574678918 4526.305751037598
992.6753198226706 4551.470552477414
993.582256818323 4522.431175974038
994.4889685207218 4534.266215884376
995.3954549957143 4647.199959365521
996.301716309119 4609.316072153562
997.2077525267232 4527.122430010801
998.1135637142943 4556.773548617215
999.0191499375615 4563.588326168234
999.924511262232 4652.281305482556
1000.8296477539861 4538.9862152254755
1001.7345594784656 4502.200400962824
1002.6392465012996 4543.975857054333
1003.5437088880753 4642.316652482634
1004.4479467043584 4546.995621263974
1005.3519600156869 4473.90999854638
1006.2557488875718 4594.203576922222
1007.1593133854858 4635.255586818625
1008.0626535748888 4463.23849550644
1008.9657695212009 4481.781890256184
1009.8686612898182 4720.521943458351
1010.7713289461135 4608.176126956154
1011.6737725554212 4556.235929801251
1012.5759921830577 4496.599072721755
1013.4779878943027 4610.030777444071
1014.379759754418 4591.934697876449
1015.2813078286254 4499.40302377989
1016.18263218213 4423.072893712438
1017.0837328801026 4518.86843408528
1017.9846099876886 4635.116526859513
1018.8852635700023 4448.717055818328
1019.7856936921362 4385.240479332161
1020.6859004191447 4571.027103251626
1021.5858838160675 4426.482126578988
1022.4856439479063 4393.626447903554
1023.3851808796389 4416.744165102991
1024.2844946762143 4530.4569005711255
1025.183585402554 4483.1971196006725
1026.082453123554 4278.771235053172
1026.9810979040776 4442.905686170785
1027.8795198089647 4331.064904097076
1028.777718903024 4427.039259561192
1029.6756952510368 4390.8679876245205
1030.5734489177648 4411.682844146502
1031.4709799679313 4340.190852167233
1032.3682884662358 4552.533906275583
1033.2653744773506 4269.659444782492
1034.1622380659192 4335.015317296243
1035.058879296559 4480.613327502972
1035.9552982338591 4533.794368068692
1036.8514949423825 4436.598319496756
1037.7474694866614 4476.509506415736
1038.6432219312028 4498.044627969513
1039.5387523404825 4717.311624659235
1040.4340607789582 4639.316403664888
1041.3291473110476 4680.948658437992
1042.2240120011465 4805.399264161898
1043.1186549136273 4956.676736332329
1044.0130761128294 4886.211759116553
1044.9072756630649 4913.181596742789
1045.8012536286205 5050.562297721492
1046.6950100737577 5150.025044163905
1047.588545062701 5234.813239006347
1048.481858659663 5243.393323178159
1049.3749509288118 5378.584283908152
1050.2678219343034 5208.601960823451
1051.1604717402515 5199.128184535157
1052.0529004107575 5231.336903371337
1052.9451080098825 5312.996594603527
1053.8370946016694 5183.075787136142
1054.7288602501267 5180.442083144135
1055.6204050192446 5075.3359947475765
1056.511728972977 5048.8137695656915
1057.402832175254 5006.229140438734
1058.2937146899785 4875.829651582071
1059.1843765810263 4838.361061078081
1060.0748179122456 4835.7635949891555
1060.9650387474576 4704.409620588938
1061.855039150456 4741.682799853066
1062.7448191850071 4667.978221501254
1063.6343789148505 4616.18456182851
1064.5237184037014 4701.5991960455485
1065.412837715241 4544.560499245845
1066.3017369131267 4478.912637725132
1067.190416060992 4428.434719400417
1068.0788752224398 4378.824574253389
1068.9671144610438 4353.02892182015
1069.8551338403558 4400.80886045486
1070.7429334239023 4298.20710662503
1071.6305132751695 4343.087834607307
1072.517873457633 4392.880043770092
1073.4050140347335 4289.254605572178
1074.2919350698776 4368.652623810511
1075.1786366264623 4311.966244183363
1076.0651187678395 4285.685781983386
1076.95138155735 4307.314442765118
1077.8374250582929 4290.553200776379
1078.7232493339507 4392.990136688185
1079.608854447577 4298.997338117404
1080.4942404623907 4215.951042571636
1081.3794074415982 4416.492076761473
1082.2643554483657 4417.65410140233
1083.149084545841 4336.944911857487
1084.033594797138 4339.845224546999
1084.9178862653516 4395.207443458386
1085.8019590135427 4567.681410654994
1086.6858131047484 4299.6723412556785
1087.5694486019802 4532.602939054557
1088.4528655682225 4511.178081447344
1089.3360640664287 4551.655929693413
1090.2190441595321 4531.611699810807
1091.1018059104317 4682.083661619656
1091.98434938201 4685.983917437736
1092.866674637111 4749.732983369277
1093.748781738559 4646.203265335352
1094.6306707491512 4546.613181881621
1095.5123417316554 4697.571878477442
1096.3937947488157 4657.1567968347645
1097.2750298633455 4560.097743869292
1098.156047137938 4535.581342281167
1099.0368466352556 4640.416833914782
1099.9174284179317 4717.214904914938
1100.7977925485757 4420.1858072439
1101.6779390897755 4499.592674878809
1102.5578681040806 4503.635543303495
1103.4375796540226 4474.197303519703
1104.3170738021054 4362.896763917611
1105.1963506108077 4240.099428580264
1106.0754101425773 4272.39712443766
1106.9542524598382 4285.924964818563
1107.8328776249855 4229.774783314771
1108.7112857003904 4243.240901094778
1109.5894767483987 4168.856084057123
1110.4674508313292 4258.25057847329
1111.3452080114657 4130.309615998833
1112.2227483510815 4265.9338468425985
1113.1000719124077 4201.235506924802
1113.9771787576592 4198.670183071466
1114.854068949022 4125.900618325619
1115.7307425486542 4186.165007497295
1116.6071996186893 4210.173376062188
1117.483440221229 4406.685765962074
1118.3594644183577 4167.421488392128
1119.235272272128 4158.16669786499
1120.1108638445658 4209.171954661997
1120.9862391976712 4366.766369777272
1121.8613983934229 4268.744802619413
1122.7363414937627 4300.874467427617
1123.6110685606182 4230.263517175141
1124.485579655884 4382.747541086144
1125.359874841426 4273.183076037719
1126.2339541790916 4318.046375847206
1127.1078177306936 4480.84724756572
1127.9814655580267 4341.495751924193
1128.854897722851 4380.9403118345435
1129.7281142869106 4312.578986621178
1130.6011153119125 4399.202611328557
1131.473900859548 4556.10273606819
1132.3464709914697 4386.722358343791
1133.2188257693178 4329.5956470182155
1134.0909652546961 4232.987625023506
1134.96288950919 4261.540533410109
1135.8345985943506 4345.108487225677
1136.7060925717087 4238.328520012665
1137.57737150277 4321.340586893277
1138.4484354490069 4336.543221532904
1139.3192844718778 4220.324338698303
1140.1899186327992 4103.625967379348
1141.060337993178 4201.2042953133505
1141.930542614382 4143.380323486696
1142.8005325577597 4093.757060549289
1143.670307884635 4048.942966683223
1144.5398686563003 4124.442942689859
1145.409214934025 4104.898810760699
1146.2783467790541 3975.651334740549
1147.1472642526023 4035.6095086569158
1148.0159674158622 4060.048647915537
1148.8844563300026 3969.8552049119508
1149.7527310561618 3923.217339212892
1150.6207916554504 3877.935369327478
1151.4886381889592 3861.5372173261835
1152.3562707177498 3891.4691139374313
1153.2236893028585 3863.106211184716
1154.090894005296 3829.4051643839316
1154.9578848860474 3871.5099397697836
1155.8246620060709 3885.9437957611744
1156.6912254262988 3718.0168645448184
1157.5575752076438 3774.439529088758
1158.42371141098 3932.2519938746286
1159.2896340971656 3849.813465556196
1160.1553433270346 3782.3583627465027
1161.0208391613887 3818.1633558509334
1161.8861216610057 3854.684178148111
1162.75119088664 3889.7958071644534
1163.6160468990201 3771.804238550392
1164.4806897588442 3821.0332491766712
1165.3451195267917 3877.3556607668606
1166.2093362635114 3805.7460927793336
1167.0733400296285 3809.5013111524595
1167.9371308857444 3776.2689501352443
1168.8007088924278 3800.857912006045
1169.6640741102328 3823.1540462488324
1170.5272265996773 3719.581506178141
1171.390166421259 3786.2987131467917
1172.252893635452 3750.8462419968578
1173.1154083026995 3909.5619998018205
1173.977710483421 3811.2744043807165
1174.8398002380145 3728.607623980929
1175.7016776268483 3832.07860220172
1176.563342710264 3814.701836281077
1177.4247955485826 3764.0333411396614
1178.2860362020947 3900.3274324962827
1179.147064731069 3627.1296624553265
1180.0078811957483 3801.1445331033
1180.8684856563486 3786.404120337228
1181.7288781730604 3822.023608713708
1182.589058806052 3787.4114050295384
1183.4490276154593 3916.372275986329
1184.3087846614017 3831.117929630731
1185.1683300039676 3863.348208641893
1186.027663703222 3948.1561570747194
1186.8867858192025 3905.6146286125986
1187.7456964119228 3858.0566770373966
1188.6043955413716 3886.9952097608902
1189.4628832675116 3973.6632153215965
1190.3211596502842 4002.2090046425774
1191.179224749596 3954.0794047308946
1192.0370786253388 3830.5323415490375
1192.8947213373758 4071.146523496129
1193.7521529455407 4138.171677789524
1194.6093735096438 3934.044378015653
1195.466383089477 3919.8322591062206
1196.3231817447977 4042.093693938156
1197.1797695353398 4118.76877487285
1198.0361465208189 3888.5949419495946
1198.8923127609214 3899.028485425008
1199.7482683153048 4023.1104014852635
1200.6040132436028 4159.180286713947
1201.459547605431 3970.9294572614754
1202.3148714603722 4003.4455900660673
1203.1699848679855 4000.330046894519
1204.0248878878065 4063.188818183057
1204.8795805793507 3851.215790348756
1205.7340630020935 3952.2646475971915
1206.5883352155033 4034.0143373857936
1207.4423972790064 4040.069639646207
1208.2962492520237 3850.183840141775
1209.1498911939307 3919.561392411238
1210.0033231640937 3868.5388478103146
1210.8565452218427 3929.1864043956716
1211.7095574264913 3776.5888838287165
1212.5623598373222 3840.1127109472536
1213.4149525135963 3816.898950081478
1214.2673355145507 3863.883329820549
1215.1195088993936 3723.015483710818
1215.9714727273113 3781.018463084662
1216.8232270574663 3882.1522194500894
1217.6747719489904 3635.50987858265
1218.5261074609934 3686.176794735488
1219.3772336525653 3822.843832881349
1220.2281505827668 3797.0235894552216
1221.0788583106296 3883.799810145977
1221.9293568951707 3659.7319752025664
1222.7796463953746 3605.4574825591235
1223.629726870202 3784.1469033537905
1224.4795983785934 3815.1030058033402
1225.3292609794553 3712.0707289971847
1226.1787147316809 3666.7642075816557
1227.0279596941327 3712.862260627376
1227.8769959256424 3760.8537504398328
1228.7258234850306 3734.6559938583932
1229.5744424310833 3585.264806590726
1230.422852822563 3771.2564913395922
1231.2710547182105 3857.711183209843
1232.119048176739 3565.5083902990395
1232.9668332568417 3489.90212538274
1233.8144100171812 3681.1153160809167
1234.6617785163999 3664.7677357444236
1235.508938813111 3498.6127006181378
1236.3558909659114 3551.648903131715
1237.2026350333617 3718.093443858389
1238.049171074008 3754.664146612863
1238.8954991463652 3512.7979703586416
1239.741619308932 3643.149170692114
1240.587531620169 3683.1471939843095
1241.4332361385277 3722.2771471957203
1242.2787329224248 3593.816031762866
1243.1240220302534 3530.178041106227
1243.9691035203869 3487.1025736380716
1244.813977451171 3739.609524585702
1245.6586438809263 3594.4251572243315
1246.5031028679496 3494.133176395508
1247.3473544705157 3604.5645470177383
1248.1913987468706 3576.0771494086257
1249.0352357552383 3440.2661648796893
1249.8788655538228 3566.8239804008663
1250.7222882007918 3598.013144101978
1251.565503754302 3692.0644319077533
1252.4085122724755 3376.2914128538455
1253.2513138134182 3664.697637556817
1254.0939084352049 3634.2506337062755
1254.9362961958905 3562.5396375948912
1255.7784771535007 3579.5616826270366
1256.6204513660432 3591.174712971998
1257.4622188915 3819.388631745386
1258.3037797878242 3581.644928792396
1259.1451341129468 3558.9145583623913
1259.9862819247755 3687.8615066887987
1260.8272232811978 3648.6756224452583
1261.6679582400666 3796.0705860556372
1262.5084868592203 3604.355178761274
1263.34880919647 3577.551752781269
1264.1889253095997 3705.8073831491247
1265.0288352563712 3772.2112082580816
1265.8685390945266 3569.6902084381472
1266.7080368817751 3691.6157520359
1267.5473286758115 3898.54081815374
1268.386414534294 3769.555881584592
1269.2252945148703 3555.711695684769
1270.0639686751547 3643.148074339042
1270.9024370727402 3693.0833332715047
1271.7406997651997 3679.5191550065415
1272.5787568100714 3570.504557253801
1273.4166082648808 3721.2382196112267
1274.2542541871244 3711.093411446242
1275.091694634275 3946.0184406737994
1275.9289296637817 3652.5863943833515
1276.7659593330663 3815.5541000896287
1277.6027836995308 3695.8197443392505
1278.4394028205552 3762.434049022841
1279.2758167534867 3755.8895284012424
1280.112025555658 3606.2114718810817
1280.9480292843746 3776.4949359312523
1281.7838279969128 3558.465731497042
1282.6194217505326 3668.6904244876737
1283.4548106024686 3604.90352126566
1284.289994609926 3643.3062194298955
1285.1249738300921 3767.141863556912
1285.959748320127 3632.1410641323564
1286.7943181371702 3666.4442820156846
1287.6286833383328 3667.128928234865
1288.4628439807038 3622.319833024365
1289.2968001213521 3569.5776868503112
1290.1305518173194 3717.274601993418
1290.9640991256183 3709.1015232615528
1291.7974421032523 3648.77105403101
1292.630580807183 3567.122336828691
1293.463515294361 3709.755596121058
1294.29624562171 3832.9154051518176
1295.12877184613 3743.2387659893952
1295.961094024493 3708.675352383755
1296.79321221365 3797.069586776397
1297.6251264704333 3812.4332165383776
1298.4568368516466 3936.2237844438105
1299.2883434140658 3849.192728887855
1300.1196462144526 3759.036198221016
1300.9507453095375 3911.971262831246
1301.7816407560313 3875.9207169257324
1302.6123326106172 3884.58270885158
1303.4428209299622 3847.972190917137
1304.2731057707024 4065.4099927502675
1305.1031871894502 3835.8536480512857
1305.933065242798 3979.7397110322163
1306.7627399873181 3883.981481103121
1307.5922114795467 4179.08669045248
1308.4214797760123 4049.64128232473
1309.2505449332057 3975.472937033638
1310.0794070076026 4052.5112356381296
1310.9080660556538 4107.984080417498
1311.736522133786 4118.225220976442
1312.5647752983987 3947.434921917403
1313.3928256058734 3885.45674578572
1314.2206731125661 4138.4352810016235
1315.048317874809 4084.995320368199
1315.8757599489109 4158.518773673538
1316.7029993911547 4023.8265472916237
1317.5300362578055 4223.151824038064
1318.356870605101 4080.307968868516
1319.183502489257 4105.162586396925
1320.0099319664623 4140.254836642887
1320.836159092889 4261.100206508177
1321.66218392468 4247.966289234538
1322.4880065179532 4044.7296551420754
1323.3136269288134 4163.634425251586
1324.1390452133292 4353.489517297812
1324.9642614275563 4415.066212075115
1325.7892756275214 4187.058697490298
1326.6140878692295 4096.162487200742
1327.4386982086617 4483.427670284676
1328.2631067017755 4148.3269805069385
1329.0873134045069 4187.996618436344
1329.911318372764 4104.785569763437
1330.735121662441 4117.436340486549
1331.558723329399 4088.953929606784
1332.3821234294774 4052.5913878790716
1333.2053220185007 3969.950923657442
1334.0283191522612 3966.163213097823
1334.851114886529 4008.577437121403
1335.6737092770582 3826.6591666294216
1336.4961023795695 3878.936083305382
1337.3182942497697 3704.095220391618
1338.1402849433325 3855.8956532461357
1338.962074515921 3631.5744343987585
1339.7836630231632 3653.350619587617
1340.6050505206676 3941.357312984261
1341.426237064028 3845.30568454616
1342.2472227088037 3699.0126217351217
1343.0680075105338 3514.2384687517356
1343.888591524741 3673.214719824647
1344.7089748069138 3714.3771648373454
1345.5291574125276 3635.3819223318214
1346.3491393970307 3464.469197131438
1347.168920815846 3671.085592658505
1347.9885017243778 3756.9772071655557
1348.8078821780036 3529.027512843876
1349.6270622320844 3596.640676356876
1350.4460419419447 3551.357809757831
1351.2648213629054 3539.8322115152887
1352.0834005502438 3404.2239365596492
1352.90177955923 3447.3719895274735
1353.7199584451064 3514.649931758311
1354.5379372630887 3559.1241229278144
1355.355716068374 3417.125960495929
1356.1732949161305 3354.549473246584
1356.9906738615155 3461.6613918731637
1357.8078529596478 3510.8976739989957
1358.6248322656375 3572.4089880665574
1359.441611834567 3435.0952380788412
1360.2581917214866 3529.9414693259764
1361.0745719814367 3469.7715510189746
1361.890752669433 3422.1181097949498
1362.7067338404577 3291.010441884696
1363.5225155494845 3590.7410695163367
1364.3380978514506 3579.7915034611046
1365.1534808012839 3352.470011739544
1365.9686644538815 3252.713158832243
1366.783648864117 3589.101343721895
1367.5984340868417 3598.378504334898
1368.413020176893 3526.3985010736933
1369.2274071890715 3285.897812148857
1370.0415951781652 3559.672389518407
1370.8555841989346 3459.9655080725597
1371.6693743061223 3239.7774214094698
1372.48296555444 3198.569273832824
1373.2963579985844 3400.606222091027
1374.1095516932255 3453.116985295414
1374.9225466930166 3187.412054024236
1375.7353430525782 3376.9714848965873
1376.5479408265164 3327.6753672317463
1377.36034006941 3432.6887431923933
1378.1725408358216 3455.029428798175
1378.9845431802805 3266.7499269570535
1379.796347157304 3596.114509365497
1380.6079528213813 3495.4825112961807
1381.4193602269788 3290.8117667049964
1382.230569428546 3182.357722541762
1383.0415804805016 3401.4285458668464
1383.852393437246 3473.1847186594073
1384.6630083531563 3411.344117765887
1385.4734252825892 3216.7136200185764
1386.2836442798798 3402.921367381303
1387.0936653993322 3433.8519167842387
1387.9034886952395 3283.9508310165793
1388.713114221864 3394.9279203829515
1389.5225420334482 3425.699702918841
1390.331772184214 3354.5839242607713
1391.1408047283585 3198.705228534952
1391.9496397200564 3319.8747794059846
1392.758277213461 3412.5042151160333
1393.5667172627054 3418.2386496843237
1394.3749599218918 3327.241542004552
1395.1830052451114 3237.192446452933
1395.9908532864265 3283.2271993798176
1396.7985040998774 3371.972250466361
1397.6059577394808 3244.4414023339996
1398.4132142592352 3306.7458804645203
1399.2202737131156 3283.1125639707507
1400.027136155073 3445.8723222104322
1400.8338016390353 3266.08897561341
1401.6402702189134 3264.199556605853
1402.446541948586 3298.4532613076203
1403.2526168819204 3288.0585937266164
1404.058495072757 3183.4248344456114
1404.8641765749107 3339.3300605567565
1405.6696614421799 3308.9267255278282
1406.4749497283356 3601.085121671948
1407.280041487129 3224.9688497339075
1408.084936772295 3052.7781338781506
1408.8896356375335 3392.2824791065023
1409.6941381365323 3333.567241926583
1410.498444322955 3176.191223927729
1411.3025542504402 3310.134251709072
1412.106467972606 3382.967741429202
1412.9101855430508 3471.9519209059195
1413.7137070153458 3117.5992673705255
1414.5170324430437 3286.8934756839553
1415.320161879672 3334.7606480700306
1416.1230953787435 3485.7140712468426
1416.925832993742 3267.117965624907
1417.7283747781275 3145.18607171661
1418.5307207853439 3350.180693300791
1419.3328710688093 3388.966493921095
1420.134825681922 3111.157373790545
1420.9365846780584 3286.3141523260156
1421.7381481105713 3426.4702568345806
1422.539516032788 3417.743176700609
1423.3406884980232 3227.9484433164407
1424.1416655595604 3311.09090121458
1424.942447270665 3382.759601839231
1425.7430336845828 3525.9568707705525
1426.5434248545298 3335.5084577319735
1427.3436208337116 3418.457913054458
1428.143621675301 3428.781909566844
1428.9434274324558 3679.3860030508135
1429.7430381583108 3318.215933377315
1430.5424539059713 3451.940654250164
1431.3416747285337 3786.5926093001463
1432.1407006790632 3576.3594582592427
1432.9395318106053 3461.965273386796
1433.7381681761835 3369.8391630514902
1434.5366098288014 3629.5580315301354
1435.3348568214424 3601.0385631690915
1436.1329092070573 3516.9330414244578
1436.9307670385879 3572.386194375068
1437.7284303689503 3661.3441368975837
1438.5258992510335 3696.0740289663
1439.3231737377118 3586.244571549986
1440.1202538818306 3543.9427407358044
1440.9171397362225 3606.3674174150374
1441.7138313536925 3571.0983309242097
1442.5103287870243 3448.5956910429377
1443.3066320889775 3379.471573220076
1444.1027413122956 3636.983848994758
1444.8986565096966 3461.3491725678846
1445.694377733882 3458.6962971230546
1446.4899050375207 3352.111366245636
1447.2852384732687 3465.460063825541
1448.0803780937622 3504.755264222619
1448.8753239516063 3278.411767389162
1449.6700760993954 3339.175227816231
1450.464634589689 3346.391973575118
1451.2589994750397 3579.382652631716
1452.0531708079689 3249.946457076071
1452.8471486409799 3247.700688199163
1453.6409330265524 3435.9492216993267
1454.4345240171442 3254.641542552784
1455.2279216651987 3226.865819807866
1456.0211260231263 3233.784454819555
1456.8141371433194 3570.797578547465
1457.6069550781594 3376.405816327685
1458.3995798799897 3069.2737768748125
1459.1920116011424 3208.5557485130757
1459.98425029393 3185.4310965991576
1460.7762960106338 3006.4718950036963
1461.5681488035225 3136.0403362742886
1462.3598087248392 3152.804622212786
1463.1512758268036 3307.5694610255623
1463.942550161617 3162.341274318483
1464.7336317814625 3022.731731426874
1465.524520738496 3115.7948020435483
1466.3152170848552 2936.2608159640563
1467.1057208726506 3081.392079146878
1467.8960321539817 2937.2040038685273
1468.6861509809169 2879.912614258705
1469.4760774055085 2991.0277017113503
1470.265811479785 2923.44415742707
1471.055353255755 2833.97434042195
1471.844702785409 2741.4153989376896
1472.6338601207044 2891.016764619894
1473.4228253135934 2953.404607006733
1474.2115984159936 2763.5547285667117
1475.0001794798063 2623.030330092838
1475.7885685569145 2878.7322018320415
1476.576765699172 2811.3675745279415
1477.3647709584238 2761.621865356946
1478.1525843864802 2963.3300948812184
1478.9402060351367 2875.145674972145
1479.7276359561693 2926.490883389356
1480.514874201328 2718.0243886954827
1481.3019208223468 2626.7167049846325
1482.0887758709323 2557.7001383859433
1482.8754393987747 2947.8931159059653
1483.6619114575406 2586.2120737326704
1484.4481920988783 2648.4915859565554
1485.2342813744108 2793.804375571569
1486.0201793357446 2976.093502710378
1486.8058860344572 2608.0250991709045
1487.591401522117 2647.0482249926467
1488.3767258502594 2698.640595764823
1489.1618590704056 2788.341748822467
1489.9468012340494 2497.823133893425
1490.7315523926754 2746.2951230142107
1491.5161125977356 2708.816823597787
1492.3004819006637 2743.8825877014347
1493.084660352877 2548.3409171342355
1493.8686480057622 2754.954243983687
1494.6524449106964 2908.6844246463506
1495.4360511190262 2877.534212256269
1496.219466682087 2723.916272917107
1497.0026916511779 2693.8129261331005
1497.7857260775945 2694.1673172358496
1498.5685700125996 2755.5382793379717
1499.3512235074395 2566.770649154201
1500.133686613337 2550.3032594464776
1500.9159593814966 2591.9994015772363
1501.698041863101 2888.696682969715
1502.4799341093094 2595.4092061290257
1503.2616361712662 2501.22157099786
1504.043148100087 2731.007387560796
1504.8244699468742 2701.4669738596995
1505.6056017626997 2461.3107223307084
1506.3865435986281 2505.9079388340997
1507.1672955056893 2634.5638003537015
1507.9478575348967 2512.9138492593274
1508.7282297372512 2635.253524233917
1509.5084121637192 2585.282684589856
1510.2884048652577 2598.0630360293153
1511.0682078927948 2475.4143413471656
1511.8478212972423 2522.189921028755
1512.6272451294917 2506.202488406811
1513.4064794404076 2718.3365998101262
1514.1855242808433 2703.764230927781
1514.9643797016215 2663.497943105191
1515.743045753552 2735.076339745264
1516.5215224874191 2705.7621393333893
1517.2998099539836 2500.6229424125695
1518.077908203999 2607.9101101977053
1518.8558172881785 2566.817754435653
1519.633537257234 2728.9293752511485
1520.4110681618404 2724.2078340886846
1521.1884100526604 2616.986774707484
1521.9655629803365 2560.9916407974206
1522.7425269954856 2759.9953307740584
1523.5193021487103 2873.5709623579364
1524.2958884905856 2593.3271311635626
1525.0722860716687 2614.8734059610624
1525.848494942502 2603.888953622059
1526.624515153595 2613.71704367875
1527.4003467554485 2676.9879316007155
1528.175989798534 2842.3951423571043
1528.9514443333064 2690.52294320666
1529.726710410203 2870.267549741784
1530.5017880796331 2500.052159549813
1531.276677391992 2561.465966556312
1532.0513783976457 2792.552261473841
1532.825891146953 2660.904711297585
1533.6002156902414 2682.2145321718963
1534.3743520778207 2650.377204703948
1535.1483003599806 2695.187185937959
1535.9220605869923 2652.265236377777
1536.6956328091019 2588.3564160108226
1537.4690170765407 2607.5312724579408
1538.242213439511 2683.311088882514
1539.015221948208 2553.322743381087
1539.78804265279 2535.5905180127384
1540.560675603405 2420.2422155267404
1541.3331208501804 2779.8655492619246
1542.1053784432224 2783.814594453195
1542.8774484326168 2565.8493392738674
1543.649330868422 2598.700349247848
1544.4210258006842 2622.2041045530796
1545.1925332794308 2641.435335849364
1545.9638533546604 2554.6566136502893
1546.7349860763552 2469.8071117072805
1547.5059314944829 2771.0462705798245
1548.27668965898 2617.695884267928
1549.0472606197673 2560.667345497589
1549.817644426752 2505.425206555199
1550.5878411298072 2714.4669207590423
1551.3578507787988 2613.279640425187
1552.1276734235635 2437.624401959053
1552.8973091139233 2543.799105836558
1553.6667578996767 2676.6530615358297
1554.436019830604 2607.8250422057586
1555.20509495646 2557.1293725704177
1555.9739833269869 2485.3703206861205
1556.7426849919011 2543.6548841869144
1557.511200000903 2729.714332665979
1558.2795284036674 2607.979675266045
1559.0476702498509 2525.9185289358506
1559.8156255890954 2716.482036188083
1560.5833944710157 2891.5119417217807
1561.3509769452048 2519.4896377830783
1562.1183730612447 2585.7146510664647
1562.8855828686865 2523.132029896246
1563.6526064170703 2826.8052286735706
1564.4194437559127 2696.4952671758047
1565.1860949347047 2653.425461277456
1565.9525600029283 2839.616372779712
1566.7188390100328 2875.205328953274
1567.4849320054564 2490.7859175198237
1568.250839038612 2675.1033591189466
1569.0165601588997 2646.0235100379787
1569.7820954156887 2672.5655221514658
1570.5474448583373 2655.3220327873623
1571.31260853618 2625.102184674815
1572.0775864985299 2504.1132139624174
1572.8423787946813 2749.9084507494845
1573.6069854739108 2561.3555095410366
1574.371406585471 2672.512233467306
1575.1356421785986 2871.259094521171
1575.899692302506 2664.3400049330257
1576.6635570063845 2736.6792660092756
1577.4272363394157 2676.6688619364004
1578.190730350747 2605.638609156277
1578.9540390895163 2839.664696884309
1579.7171626048384 2513.7146341824987
1580.480100945806 2632.6878314132073
1581.2428541614918 2657.134165562823
1582.0054223009538 2751.7293019029007
1582.767805413223 2795.210994006954
1583.5300035473156 2734.552511505692
1584.292016752228 2881.506595576473
1585.0538450769309 2825.671674609055
1585.8154885703807 2526.842711973861
1586.5769472815136 2585.3088755924846
1587.3382212592405 2677.97349978665
1588.099310552463 2734.083848773071
1588.8602152100484 2579.6557921313993
1589.6209352808564 2708.0753662794873
1590.3814708137234 2670.436976150234
1591.14182185746 2662.9896225101575
1591.9019884608679 2474.570708284302
1592.6619706727215 2430.733199459849
1593.4217685417734 2654.957145741987
1594.1813821167616 2741.652535232187
1594.9408114464022 2421.4328765981472
1595.7000565793933 2492.2151739158144
1596.459117564409 2638.379799272095
1597.2179944501113 2464.2382976075064
1597.9766872851324 2448.66084808878
1598.735196118092 2632.3529052297163
1599.4935209975883 2616.4565885206143
1600.2516619721973 2659.0090136677563
1601.0096190904787 2533.924346384894
1601.7673924009723 2481.0475252391143
1602.524981952196 2468.600397073656
1603.2823877926476 2524.5541950988913
1604.0396099708087 2362.8135649583082
1604.7966485351371 2395.193142294958
1605.5535035340745 2463.4927033226454
1606.3101750160404 2551.125940853295
1607.0666630294363 2333.803420996416
1607.822967622642 2352.5543599389334
1608.5790888440224 2412.6807747485955
1609.3350267419137 2498.8374203587205
1610.0907813646445 2408.364349204644
1610.8463527605145 2400.632829610138
1611.601740977805 2540.033724244445
1612.356946064785 2430.3758253833757
1613.1119680696902 2229.550558408068
1613.8668070407512 2447.354013360297
1614.6214630261748 2428.089459448123
1615.375936074137 2575.0913722963996
1616.1302262328118 2365.364555915086
1616.8843335503425 2522.4027359250513
1617.638258074854 2325.1250179316266
1618.391999854457 2459.9435403296934
1619.1455589372363 2593.5136537633853
1619.8989353712623 2429.769699628697
1620.65212920458 2229.193033499644
1621.4051404852235 2348.0309521980216
1622.1579692611976 2583.0578594321037
1622.9106155804966 2206.1391891811904
1623.663079491087 2460.886676068798
1624.4153610409248 2458.598629154431
1625.1674602779385 2355.850528509296
1625.9193772500403 2342.00442701254
1626.6711120051277 2523.435821326462
1627.4226645910676 2355.485664876889
1628.174035055721 2302.8580960640493
1628.9252234469168 2409.2508711109726
1629.676229812474 2385.40151068144
1630.4270542001905 2672.3243754124533
1631.1776966578382 2416.455618086948
1631.9281572331747 2321.4582893445768
1632.678435973945 2517.477875285146
1633.4285329278573 2545.1589036201767
1634.1784481426203 2125.6117928898675
1634.9281816659113 2377.2807815422616
1635.677733545388 2548.1611875255676
1636.4271038286934 2429.95456661542
1637.176292563452 2466.6441038382914
1637.9252997972635 2429.00914887192
1638.674125577716 2514.59412025422
1639.4227699523672 2750.4673910426127
1640.171232968767 2226.136033606339
1640.9195146744423 2386.216000439218
1641.6676151168977 2665.40110027664
1642.4155343436178 2582.6963325491943
1643.1632724020765 2536.0789097751995
1643.9108293397167 2497.370848633521
1644.658205203974 2393.5581941355886
1645.4054000422566 2410.69956329877
1646.1524139019566 2427.6567446136787
1646.8992468304423 2332.7134049241135
1647.6458988750728 2432.994096251796
1648.3923700831765 2392.5394286316364
1649.1386605020743 2339.7515028178705
1649.8847701790564 2598.1368183097215
1650.6306991614038 2498.1070418122417
1651.3764474963682 2572.5894060396563
1652.1220152311944 2284.421436769276
1652.867402413096 2447.251325375488
1653.6126090892776 2536.2257236827345
1654.3576353069184 2755.320716722419
1655.1024811131829 2441.6438780331873
1655.8471465552066 2414.863986166606
1656.5916316801213 2495.4380150738116
1657.3359365350298 2507.9923496569213
1658.0800611670165 2353.866807125877
1658.824005623148 2396.695950666825
1659.5677699504722 2239.529630238953
1660.3113541960192 2517.36283768693
1661.054758406799 2355.1048168056486
1661.7979826297997 2200.088213204634
1662.5410269119966 2306.413615586681
1663.283891300338 2345.2387610480814
1664.0265758417645 2292.310135447424
1664.7690805831826 2404.4125924468685
1665.5114055714948 2448.0258321270007
1666.2535508535748 2681.262229293498
1666.9955164762814 2148.8456741204636
1667.7373024864555 2300.3112995003394
1668.478908930916 2390.804407606409
1669.220335856462 2292.352378582928
1669.9615833098778 2195.0735460096193
1670.7026513379296 2179.392766901079
1671.44353998736 2303.8821281544765
1672.1842493048916 2306.872072921254
1672.9247793372379 2244.467741293955
1673.6651301310812 2310.5365440175437
1674.4053017330934 2213.465569195995
1675.1452941899242 2378.594954032028
1675.885107548207 1918.27702602744
1676.6247418545518 2062.0339217431674
1677.3641971555535 2143.6597038370714
1678.1034734977893 2291.305651184606
1678.8425709278108 2179.1203212823903
1679.5814894921605 2312.347246497609
1680.320229237359 2204.7226821855393
1681.0587902098978 2387.552472806946
1681.7971724562685 2204.752613328649
1682.5353760229264 2113.8965082902328
1683.2734009563173 2332.9288048563135
1684.0112473028657 2046.530686975372
1684.7489151089794 2265.1181879504265
1685.4864044210462 2354.0295743995403
1686.2237152854377 1953.7975383600551
1686.960847748498 2434.9165276553986
1687.6978018565642 2039.4349061467772
1688.434577655944 2128.164828015666
1689.1711751929379 2004.6180389403653
1689.9075945138156 2218.451294184844
1690.6438356648396 2162.3623431061105
1691.3798986922448 1927.2043327664323
1692.1157836422499 2118.826134647415
1692.851490561059 2033.070266261527
1693.587019494853 2109.5886955700894
1694.3223704897991 2048.91661316669
1695.0575435920364 1869.7989938457692
1695.792538847696 2299.4043818050172
1696.527356302886 2146.366700796036
1697.2619960036936 1936.1437528556714
1697.9964579961907 1901.253590752877
1698.730742326432 1698.0893434679267
1699.4648490404488 1774.3923548961477
1700.1987781842563 1968.7398599771363
1700.9325298038548 2156.7538180155066
1701.6661039452174 2188.835077383362
1702.3995006543082 1997.2273451700544
1703.1327199770658 2064.6451962319425
1703.865761959416 2000.7303975630664
1704.598626647261 2175.076460424109
1705.3313140864866 1881.013874037049
1706.0638243229587 1912.833567233053
1706.7961574025303 1961.6994067826868
1707.528313371029 2000.3001894484576
1708.260292274268 1855.7415185885923
1708.9920941580403 1925.899852504727
1709.7237190681226 1959.7808303501693
1710.4551670502697 1991.3512324315063
1711.18643815022 1779.9883201414973
1711.9175324136959 2209.9555375971754
1712.6484498863938 2008.864894452554
1713.379190614005 1676.3407677242685
1714.109754642188 1843.0623800086432
1714.8401420165883 1877.944696355648
1715.570352782839 2101.12454460334
1716.3003869865497 1974.2644344708708
1717.0302446733076 1704.9374709454655
1717.7599258886876 1856.335996108967
1718.4894306782444 1799.772778204826
1719.2187590875183 1743.0739428732195
1719.9479111620203 2055.5151802782093
1720.6768869472544 1744.5420006369957
1721.4056864887025 2085.978718514405
1722.1343098318284 2055.558853718932
1722.8627570220742 1909.5841365639826
1723.591028104871 1858.6772024682407
1724.3191231256242 1812.1339471474807
1725.0470421297232 1867.6730994281127
1725.7747851625427 1965.2967646934499
1726.5023522694337 1850.567814979568
1727.2297434957363 1845.5578493245703
1727.9569588867635 1572.8876710408715
1728.6839984878152 1962.0220330841228
1729.4108623441734 1531.5196192208218
1730.1375505011038 1971.894248036852
1730.8640630038426 1786.038995345109
1731.5903998976264 1723.3942415334816
1732.316561227657 1912.1858475421086
1733.0425470391274 1692.307484810018
1733.7683573772065 1877.9680667956968
1734.4939922870508 1817.9372388450017
1735.2194518137949 1912.1161814913037
1735.9447360025606 1809.9453669201616
1736.669844898439 1780.5967770043255
1737.3947785465189 1610.6536647440407
1738.1195369918605 1554.8068048345326
1738.8441202795093 1878.6047636972155
1739.5685284544943 1933.51613803781
1740.292761561821 1899.598319287669
1741.0168196464838 1903.0728424243255
1741.7407027534518 1868.9622978294726
1742.464410927687 1908.4322868270465
1743.187944214118 1832.147367744687
1743.9113026576688 1768.143881117021
1744.634486303241 1808.662378691828
1745.3574951957125 1786.3126443736116
1746.0803293799509 1818.6906679763117
1746.8029889008048 1891.287750382519
1747.5254738031017 1921.6815557324985
1748.2477841316504 1689.704403508451
1748.969919931249 1862.1766761999356
1749.6918812466665 1732.5480087372293
1750.4136681226646 1935.607105881305
1751.1352806039777 1739.9411354318818
1751.856718735331 1554.7837949723278
1752.5779825614281 1600.7537628014138
1753.2990721269507 1902.7153858454208
1754.0199874765676 1862.0653926924529
1754.7407286549314 1584.3623909548312
1755.4612957066693 1823.2398377575496
1756.1816886763954 1657.120782067852
1756.9019076087097 1855.5350272242026
1757.6219525481865 1889.0004149845292
1758.3418235393856 1764.1779633275369
1759.061520626854 1759.6546444495896
1759.7810438551096 1994.7686643528934
1760.5003932686614 1659.3807153061116
1761.2195689119999 1893.0512541701669
1761.938570829594 1845.331009945368
1762.657399065898 1818.8668447286116
1763.376053665348 1633.0324222000079
1764.0945346723602 1522.547882577966
1764.812842131334 1852.5645995345171
1765.5309760866512 1680.90822958355
1766.2489365826787 1538.9976537709167
1766.9667236637597 1672.1955355742837
1767.684337374223 1530.1547870302652
1768.401777758383 1547.5512297713244
1769.1190448605284 1736.7503406043222
1769.836138724937 1607.9721089339544
1770.5530593958665 1729.5453082097363
1771.2698069175603 2031.6224741156923
1771.9863813342326 1777.9559928054641
1772.702782690094 1678.8073195746479
1773.4190110293293 1820.6790013819846
1774.1350663961111 1790.4660524851163
1774.8509488345844 1638.7623222109828
1775.5666583888924 1806.0889611944908
1776.2821951031437 1936.0117113925867
1776.9975590214362 1605.5013267235258
1777.7127501878585 1880.2745482886064
1778.4277686464684 1775.9548336693497
1779.1426144413108 1841.473171841976
1779.8572876164162 1875.133349089705
1780.571788215797 1480.272815000884
1781.2861162834415 1734.0311554227337
1782.0002718633277 1623.9481140766059
1782.7142549994132 1892.0737595827534
1783.4280657356376 1807.6472402377974
1784.141704115922 1594.6919446957368
1784.855170184177 1641.219872961309
1785.5684639842839 1882.4299771003814
1786.2815855601148 1828.8041709572979
1786.9945349555237 1775.0883997729484
1787.707312214343 1675.2042895121472
1788.4199173803918 1602.424271997012
1789.132350497468 1529.6581530285096
1789.8446116093583 1601.0069298778535
1790.556700759822 1597.0294977164967
1791.2686179926077 1781.07133865789
1791.9803633514493 1660.0777120361072
1792.6919368800554 1503.7245342085712
1793.4033386221236 1756.8366006249603
1794.1145686213295 1747.2856992328136
1794.8256269213307 1853.8625786024736
1795.536513565774 1750.153592752527
1796.247228598284 1504.3814760403036
1796.9577720624693 1651.2139479422603
1797.6681440019165 1781.8950392379134
1798.3783444602013 1697.3189467415646
1799.0883734808776 1772.2034097593546
1799.7982311074884 1806.755764969456
1800.5079173835475 1752.1999413262613
1801.2174323525633 1812.1563246162812
1801.9267760580187 1606.1755086645599
1802.635948543386 1865.9239381532611
1803.3449498521113 1576.03785385918
1804.0537800276325 1821.9399090998709
1804.7624391133668 1665.7512702288943
1805.47092715271 1534.24035347079
1806.1792441890484 1550.162663649484
1806.8873902657433 1800.0896383233653
1807.5953654261448 1758.1889141885108
1808.3031697135812 1552.5934316443
1809.0108031713662 1570.3334856836195
1809.71826584279 1698.7112653248798
1810.425557771141 1713.1493368138422
1811.1326789996747 1971.5789015205985
1811.839629571632 1654.2874755657576
1812.5464095302468 1660.1130610430523
1813.2530189187182 1596.629882995046
1813.959457780249 1669.0842792467233
1814.6657261580076 1747.423367669975
1815.371824095153 1596.133264876048
1816.0777516348262 1427.6162308311377
1816.78350882015 1597.1690185596026
1817.4890956942272 1404.334630107502
1818.1945123001533 1672.0701639537667
1818.8997586809928 1602.6622416985992
1819.6048348798067 1528.154344486321
1820.3097409396287 1726.82660066954
1821.0144769034796 1659.3449859576242
1821.7190428143622 1591.7115893536472
1822.423438715261 1715.7441525442493
1823.1276646491478 1539.9821571227853
1823.8317206589727 1632.829345337425
1824.5356067876692 1609.7175200682289
1825.2393230781581 1618.489830515585
1825.942869573335 1499.476211753446
1826.646246316086 1477.9390849378094
1827.3494533492758 1715.413821634357
1828.052490715756 1722.555353473975
1828.7553584583547 1654.0191801707722
1829.458056619891 1631.7812403790917
1830.1605852431585 1491.7251989911692
1830.8629443709433 1547.8686531560093
1831.5651340460063 1515.6636531122087
1832.2671543110919 1468.3404645784276
1832.9690052089318 1761.800085311214
1833.6706867822395 1755.7114570081053
1834.3721990737104 1749.782224180391
1835.0735421260233 1667.5768834038583
1835.774715981841 1560.12393970127
1836.4757206838058 1806.8869615712078
1837.1765562745459 1562.7176697547352
1837.8772227966747 1483.0944342310727
1838.5777202927839 1545.8290271271646
1839.2780488054523 1527.2537554419437
1839.9782083772352 1497.6853558341302
1840.6781990506806 1821.524077652226
1841.378020868313 1560.1559820043954
1842.0776738726418 1573.0376116755813
1842.777158106157 1548.275691576619
1843.4764736113375 1447.5267902153541
1844.1756204306403 1661.802100665453
1844.8745986065078 1591.569857578041
1845.5734081813607 1499.845063373991
1846.2720491976124 1550.4620713312536
1846.970521697649 1443.9992234122287
1847.6688257238511 1707.462728114133
1848.3669613185684 1533.2279083885155
1849.0649285241452 1472.3394685155386
1849.7627273829057 1579.8021125017572
1850.460357937156 1578.7064864988772
1851.1578202291857 1362.5357060369354
1851.8551143012664 1548.9330529474041
1852.5522401956569 1544.4399117121384
1853.2491979545957 1717.6433819743525
1853.9459876203055 1513.1427040159244
1854.6426092349902 1521.5748665221176
1855.3390628408451 1545.7394015160908
1856.0353484800362 1874.631933164403
1856.7314661947203 1644.6416286010226
1857.4274160270397 1448.0507310066416
1858.123198019115 1556.4259800678365
1858.8188122130487 1422.653124912147
1859.5142586509319 1607.3861413581112
1860.209537374838 1535.8290864802927
1860.9046484268183 1538.7440901189022
1861.599591848917 1715.2648153831499
1862.294367683151 1532.3675615105228
1862.988975971528 1551.739058443222
1863.6834167560355 1598.0899573682682
1864.3776900786452 1632.3052290805513
1865.0717959813119 1474.8953390368235
1865.7657345059724 1389.6438792375684
1866.4595056945564 1635.8573290552354
1867.1531095889586 1694.7656354396083
1867.846546231076 1376.298918877881
1868.5398156627743 1711.5829536456372
1869.2329179259123 1504.7109209506525
1869.9258530623283 1472.2748114011156
1870.618621113843 1439.7526786368207
1871.3112221222636 1404.938896434163
1872.0036561293764 1465.7593588452366
1872.695923176956 1608.3826095202244
1873.3880233067594 1670.2801615788626
1874.0799565605212 1369.6028761226491
1874.7717229799673 1466.6806859491662
1875.4633226068036 1743.7942426769623
1876.1547554827175 1574.9083946643918
1876.8460216493859 1494.947761192164
1877.5371211484617 1507.6556756198293
1878.2280540215852 1417.768452640989
1878.9188203103804 1327.7153078177316
1879.6094200564548 1507.7091492051354
1880.299853301396 1390.06649483661
1880.9901200867826 1776.1925387213007
1881.6802204541673 1575.071990712793
1882.3701544450942 1571.7812553070885
1883.059922101087 1620.9249800268094
1883.7495234636517 1670.1110546399882
1884.4389585742792 1493.1643691651484
1885.1282274744517 1474.5634262486137
1885.8173302056166 1520.1268334836468
1886.506266809225 1565.7534436854394
1887.195037326701 1344.5015143103196
1887.8836417994517 1551.8294240163511
1888.5720802688702 1722.8295583682186
1889.260352776333 1683.8497842263398
1889.9484593632042 1745.1425771141057
1890.63640007082 1466.9204783694345
1891.3241749405151 1303.0814724567565
1892.0117840135954 1592.3008476292464
1892.6992273313572 1525.3515262757342
1893.3865049350788 1390.8452421920306
1894.0736168660223 1790.6065239727395
1894.7605631654333 1599.2716251527117
1895.4473438745408 1330.0701829499083
1896.133959034556 1709.7290535509426
1896.820408686679 1634.097611939857
1897.506692872088 1721.7463899599406
1898.192811631945 1514.0419947766618
1898.8787650073991 1508.6006938041005
1899.5645530395832 1630.739830581578
1900.2501757696118 1628.2163993895022
1900.9356332385796 1394.8240233766294
1901.620925487574 1497.9580248121017
1902.3060525576602 1601.387618185378
1902.9910144898859 1561.1662514401828
1903.6758113252872 1413.6724905039064
1904.3604431048789 1575.38259841644
1905.0449098696663 1616.298059584007
1905.7292116606295 1309.7747725070276
1906.4133485187394 1602.5306212558799
1907.0973204849488 1178.267485617314
1907.7811276001976 1346.0867542963738
1908.4647699053967 1537.1159693590494
1909.1482474414588 1452.447170020287
1909.8315602492694 1367.5430172416268
1910.5147083696957 1629.6775215288335
1911.1976918436012 1469.2151147582222
1911.880510711815 1351.667270224559
1912.5631650151681 1641.83761188885
1913.2456547944657 1464.2380834760859
1913.927980090495 1386.8852690440133
1914.6101409440362 1470.9249621054732
1915.2921373958416 1627.133617560379
1915.9739694866603 1498.0175975588838
1916.655637257214 1685.048642384891
1917.3371407482136 1536.3804951472064
1918.0184800003572 1786.7086262488847
1918.6996550543154 1592.416267269849
1919.3806659507554 1441.3786370492253
1920.0615127303208 1598.2253490328228
1920.7421954336423 1671.5963989996515
1921.4227141013343 1708.745949682302
1922.103068773993 1417.7138748132484
1922.783259492202 1577.5490383781698
1923.4632862965227 1478.8662678783298
1924.1431492275078 1481.6534563045948
1924.8228483256917 1390.3917556984336
1925.5023836315922 1477.206780399711
1926.1817551857057 1253.3990585197068
1926.8609630285227 1594.4344400184157
1927.5400072005123 1569.6144213384453
1928.218887742125 1472.7797017055686
1928.8976046938005 1317.7821870511348
1929.5761580959588 1591.066103893255
1930.2545479890086 1419.168962087665
1930.9327744133352 1248.8328564120682
1931.6108374093164 1509.9927909886096
1932.2887370173066 1394.5038987070843
1932.9664732776473 1666.791905908171
1933.6440462306673 1528.464573682902
1934.3214559166754 1401.5852112661673
1934.9987023759659 1717.2012622171364
1935.675785648813 1610.0651220572286
1936.3527057754836 1222.0497968240952
1937.029462796223 1263.6747796452146
1937.70605675126 1305.4182415961018
1938.3824876808085 1330.6397263452511
1939.058755625072 1505.4565206582017
1939.7348606242267 1395.6331644439754
1940.4108027184448 1432.5579288403326
1941.0865819478713 1555.5682251253431
1941.7621983526478 1316.2712629871498
1942.4376519728921 1338.8418481936264
1943.1129428487038 1519.649849566194
1943.7880710201734 1583.7178260597484
1944.4630365273733 1613.2862435492832
1945.1378394103576 1294.642833675138
1945.8124797091714 1268.0251435593125
1946.4869574638324 1241.310261167154
1947.161272714353 1412.2822421074045
1947.8354255007234 1514.012141847172
1948.5094158629272 1418.7309024983338
1949.1832438409183 1443.2223364227045
1949.8569094746435 1635.26179923769
1950.530412804037 1609.5884141394092
1951.2037538690092 1652.7332099018197
1951.8769327094578 1320.217902312777
1952.5499493652678 1405.8800300901744
1953.222803876306 1647.2192948087693
1953.895496282421 1420.753835404632
1954.5680266234522 1506.49895479394
1955.2403949392155 1602.043412971345
1955.9126012695142 1338.7986753269324
1956.5846456541403 1445.0339343024684
1957.2565281328643 1381.525026557253
1957.9282487454457 1658.9803615709886
1958.5998075316202 1410.8387682143443
1959.27120453112 1375.709611598771
1959.9424397836501 1551.1232105368688
1960.613513328908 1553.3588046462094
1961.2844252065697 1709.587136961241
1961.9551754563017 1395.7977047112283
1962.6257641177453 1385.0310924517978
1963.29619123054 1236.5546931130439
1963.966456834296 1342.5905209765453
1964.6365609686181 1252.837640688347
1965.306503673086 1223.010486543972
1965.976284987275 1193.1185320053467
1966.645904950734 1405.6772687843206
1967.315363603002 1312.6422258104174
1967.9846609836077 1429.6337132487135
1968.6537971320486 1349.2308391994525
1969.3227720878222 1528.4037270132242
1969.9915858904042 1523.946586284853
1970.660238579252 1559.0387701235886
1971.3287301938108 1392.608103294674
1971.997060773514 1296.377751064021
1972.665230357772 1225.926631781464
1973.3332389859843 1281.2857676103142
1974.0010866975335 1306.1217295708711
1974.6687735317864 1385.6207240569229
1975.3362995280932 1541.7033540939435
1976.003664725793 1494.2897405867454
1976.6708691642052 1222.9618772996143
1977.3379128826364 1384.9894366312044
1978.004795920373 1619.8183522494103
1978.6715183166925 1368.6985763479981
1979.3380801108524 1555.8796630489796
1980.0044813420973 1302.4743412706243
1980.6707220496555 1184.560540279716
1981.3368022727373 1429.1310728090493
1982.0027220505417 1508.266244359393
1982.66848142225 1084.4070972398672
1983.3340804270283 1201.6158415463344
1983.999519104027 1345.1648868279185
1984.6647974923835 1457.9126939279176
1985.329915631215 1466.4069472900999
1985.99487355963 1429.627392811936
1986.6596713167146 1580.9097180918734
1987.3243089415428 1456.4041927725564
1987.9887864731754 1535.2874290378593
1988.6531039506553 1316.6270220986785
1989.3172614130071 1272.30820778545
1989.9812588992481 1227.9328995722208
1990.645096448372 1115.7202817645377
1991.3087740993633 1409.3631596529308
1991.9722918911848 1276.8795909637304
1992.635649862792 1400.8191956271335
1993.2988480531185 1504.7128741934428
1993.9618865010852 1629.1873676060507
1994.6247652455968 1368.3661729721969
1995.287484325545 1264.9407970581537
1995.9500437798033 1367.3329430094573
1996.6124436472292 1405.6981438346713
1997.2746839666706 1443.1640619591667
1997.936764776954 1183.947364777137
1998.598686116895 1363.6571535710618
1999.2604480252903 1504.7806882408277
1999.9220505409212 1589.687837899673
2000.5834937025593 1237.740321826613
2001.2447775489582 1420.1397216673581
2001.9059021188514 1561.5782667417711
2002.5668674509616 1284.5358382081909
2003.2276735839987 1314.4182523410223
2003.8883205566508 1300.3793823449064
2004.5488084075987 1286.2784769369991
2005.2091371755014 1351.2667883382903
2005.8693068990033 1268.4402742777636
2006.5293176167397 1235.2893244612328
2007.1891693673224 1202.193407974616
2007.848862189354 1132.830687672815
2008.5083961214223 1346.9679418848723
2009.1677712020955 1221.6580311889177
2009.8269874699254 1192.9534443692994
2010.4860449634598 1175.1950767749138
2011.1449437212177 1157.4594363074764
2011.8036837817108 1420.3927187406132
2012.4622651834325 1459.0888301005282
2013.1206879648653 1475.943264264225
2013.7789521644736 1538.0330520795287
2014.4370578207036 1163.9304817467969
2015.0950049719922 1295.2338658507956
2015.7527936567585 1579.8341132754663
2016.4104239134067 1367.7252629953637
2017.067895780323 1655.2796623775587
2017.725209295886 1636.945981333533
2018.3823644984514 1618.5213987727657
2019.0393614263648 1408.2948860300457
2019.6962001179545 1351.7006338351898
2020.3528806115355 1578.2489174102147
2021.0094029454067 1465.2122352016834
2021.6657671578487 1303.8337027459643
2022.321973287133 1298.190091914353
2022.9780213715148 1249.7477317221515
2023.6339114492293 1401.8164934167148
2024.2896435585026 1444.857540185901
2024.9452177375442 1371.8925891619645
2025.600634024544 1481.9899262083331
2026.2558924576842 1478.0401445577224
2026.9109930751292 1507.6261868292872
2027.565935915025 1582.8170439427872
2028.2207210155066 1658.2468655402572
2028.8753484146964 1792.5986198720573
2029.529818150695 1677.9557270260798
2030.1841302615903 1562.8324846306796
2030.8382847854573 1268.0743313392422
2031.4922817603601 1419.7175112352234
2032.1461212243357 1475.215394281216
2032.7998032154192 1421.553911643422
2033.4533277716218 1367.597384906766
2034.1066949309443 1163.4064177361938
2034.7599047313688 1217.1666375542989
2035.4129572108704 1445.9196709496323
2036.0658524074006 1252.0747075850045
2036.7185903589016 1473.4673393029489
2037.3711711032956 1536.4349420703138
2038.023594678496 1354.5288163282094
2038.675861122394 1395.6544828900799
2039.3279704728757 1318.6289864392957
2039.9799227678031 1241.549185456999
2040.6317180450278 1241.9962206752307
2041.2833563423865 1262.4708530222804
2041.9348376977014 1363.5986913198333
2042.5861621487784 1464.9242075385466
2043.2373297334088 1329.5441722391329
2043.8883404893695 1461.5298311839567
2044.5391944544208 1547.8551949292053
2045.1898916663158 1640.8928273567694
2045.8404321627804 1441.9345974866526
2046.4908159815368 1556.5801189992003
2047.1410431602853 1331.819807952587
2047.7911137367173 1224.9557791089132
2048.441027748504 1259.2138829100284
2049.090785233302 1293.4582082120112
2049.7403862287592 1358.0156230106868
2050.389830772503 1573.119340626444
2051.0391189021466 1531.7503040621846
2051.688250655294 1490.4149296827327
2052.337226069527 1248.3580087165976
2052.986045182417 1382.0211335883546
2053.634708031521 1063.1786018081582
2054.283214654375 1379.7154610773534
2054.931565088511 1071.7595525933643
2055.579759371436 1203.6938991041247
2056.2277975406523 1551.6679028081303
2056.8756796336384 1564.119553034398
2057.5234056878617 1412.2832288541747
2058.1709757407752 1260.0845878257148
2058.8183898298194 1565.1794626028332
2059.465647992416 1507.7386846978218
2060.1127502659747 1563.4671221229232
2060.759696687888 1085.4326203033381
2061.4064872955405 1408.5447703500804
2062.053122126292 1164.4974414520807
2062.699601217497 1581.3834749579519
2063.345924606485 1394.7078843552974
2063.992092330587 1333.9189222983398
2064.638104427102 1350.3132613971507
2065.283960933324 1618.7905017524138
2065.92966188653 1319.6254978184966
2066.5752073239855 1580.3936661019422
2067.2205972829397 1259.3800671391728
2067.86583180062 1311.1131526957524
2068.5109109142522 1387.939136614927
2069.15583466104 1364.6796536971297
2069.8006030781708 1184.241312465339
2070.445216202821 1321.5105021162738
2071.089674072153 1351.7459371259226
2071.7339767233116 1358.6317343647484
2072.3781241934303 1365.534697520619
2073.0221165196253 1502.029391830923
2073.6659537390024 1204.7303777914867
2074.3096358886505 1445.367522366468
2074.953163005637 1244.9957501771278
2075.596535127028 1053.5645035042312
2076.2397522898664 1277.4798721242455
2076.882814531182 1329.8533328439878
2077.5257218879924 1416.680064775173
2078.1684743973 1232.9088907336866
2078.8110720960885 1480.4371077430367
2079.453515021336 1307.9110722002997
2080.095803209997 1481.0196156349348
2080.7379366990135 1422.0319246432662
2081.37991552532 1426.210970462978
2082.0217397258275 1571.9320275103437
2082.6634093374414 1471.9861023300505
2083.3049243970418 1371.9938000742663
2083.9462849415067 1393.5975869525166
2084.587491007689 1469.5604085799346
2085.2285426324324 1400.28047743405
2085.869439852564 1292.8378167788333
2086.510182704902 1271.9879471327376
2087.1507712262483 1233.7440414131534
2087.791205453381 1167.6066603490754
2088.4314854230743 1368.0043440232405
2089.0716111720867 1366.8042998236028
2089.7115827371617 1074.1134129472703
2090.351400155023 1151.1751380037
2090.991063462385 1228.4323818251446
2091.6305726959527 1223.804535222826
2092.2699278924047 1473.3609947267682
2092.9091290884153 1275.3718912010129
2093.548176320641 1121.3799972721076
2094.187069625721 1137.8136159556798
2094.8258090402887 1154.2829115460565
2095.464394600951 1416.9324748322545
2096.102826344313 1349.2647407768377
2096.741104306955 1501.1256171679565
2097.379228525453 1240.5470335215027
2098.017199036358 1423.2346975946161
2098.6550158762147 1243.296941647567
2099.2926790815527 1492.437524100548
2099.9301886888825 1449.1617056714467
2100.5675447347076 1425.8745022053288
2101.2047472555114 1413.1817078824702
2101.841796287761 1221.5370001888432
2102.47869186792 1403.1474546967934
2103.1154340324265 1173.1015122433478
2103.752022817709 1278.9934860758115
2104.388458260184 1241.124211790086
2105.024740396251 1339.0066742284891
2105.660869262292 1240.3204197388895
2106.296844894685 1482.9505599933807
2106.93266732978 1314.919721935506
2107.5683366039284 1156.0999743252485
2108.2038527534532 1436.739196581047
2108.8392158146726 1497.3176911904102
2109.4744258238843 1276.9470464382407
2110.1094828173755 1461.4260356809384
2110.744386831422 1525.9544056317334
2111.3791379022787 1351.8711929819042
2112.01373606619 1561.384913011872
2112.648181359389 1482.4283325954266
2113.28247381809 1408.077930494493
2113.916613478492 1323.7841516779024
2114.550600376786 1401.8723076298343
2115.1844345491445 1175.0302786432708
2115.818116031729 1220.1284252126172
2116.451644860679 1155.6394444873447
2117.085021072133 1090.956672263082
2117.718244702204 1184.7276872693492
2118.3513157869984 1198.001692315938
2118.984234362604 1120.7854892376765
2119.617000465092 1176.7461337119319
2120.249614130529 1578.0358322309241
2120.8820753949585 1482.4822556686547
2121.5143842944162 1253.153958579343
2122.14654086492 1211.3113448492063
2122.7785451424734 1436.1222514358592
2123.4103971630702 1418.0309748185744
2124.042096962681 1400.0536346220738
2124.6736445772767 1388.3230607561597
2125.305040042802 1287.725876956086
2125.936283395191 1376.0306953559839
2126.567374670365 1460.7859828135493
2127.198313904233 1289.0260815211007
2127.8291011326855 1283.6244000901293
2128.4597363916037 1278.0588781298006
2129.0902197168507 1353.7735760843568
2129.720551144279 1502.8984154780567
2130.3507307097225 1652.1324573299971
2130.980758449008 1569.7156913680915
2131.6106343979427 1571.8862947500588
2132.2403585923203 1573.9779753110927
2132.8699310679276 1574.7666480396542
2133.499351860526 1469.4006919204935
2134.1286210058715 1296.4802169654067
2134.7577385397053 1450.2479513603296
2135.3867044977487 1604.2480401683065
2136.0155189157176 1657.7995387442352
2136.644181829308 1636.4008736263527
2137.2726932742025 1450.9168147515222
2137.901053286074 1602.5734013717886
2138.5292619005777 1239.93554902708
2139.1573191533535 1253.5864819247045
2139.7852250800315 1399.3158917466178
2140.4129797162295 1500.0305176989075
2141.0405830975433 1142.4159001360927
2141.6680352595613 1173.1345630973285
2142.2953362378576 1203.9254315329188
2142.9224860679915 1331.4350892497941
2143.549484785508 1277.095037308518
2144.1763324259373 1290.9959291443486
2144.803029024799 1244.0688246443474
2145.429574617594 1345.3691353805484
2146.0559692398165 1356.6377597798846
2146.682212926942 1129.0210307768875
2147.308305714432 1364.9138758497386
2147.9342476377333 1510.730193248983
2148.5600387322847 1696.1304129694224
2149.185679033506 1745.5421269526214
2149.8111685768017 1149.1276562175156
2150.4365073975678 1151.2728713744193
2151.061695531187 1162.4797085651212
2151.686733013021 1272.182250125325
2152.311619878423 1382.1872120188978
2152.9363561627342 1327.3055691570928
2153.560941901278 1224.8489553227143
2154.1853771293663 1351.667134388857
2154.809661882293 1265.4638868558427
2155.433796195348 1223.2785249489255
2156.0577801037944 1180.8881655064222
2156.681613642895 1531.1217178285765
2157.3052968478896 1341.3457517454121
2157.928829754006 1431.9051566877115
2158.552212396462 1453.0729221177467
2159.1754448104566 1344.295442753434
2159.7985270311783 1271.6152148234394
2160.4214590938027 797.973789906857
2161.0442410334927 1087.6371000873542
2161.6668728853874 1419.187621179201
2162.289354684628 1183.908934021553
2162.911686466332 1187.5785244096624
2163.533868265602 1461.8875281916085
2164.1559001175337 1600.5332551006327
2164.7777820572046 1428.0225982488964
2165.399514119681 1351.2525302105855
2166.021096340013 1250.9621177755148
2166.6425287532384 1441.790768338331
2167.263811394385 1121.591266087638
2167.8849442984574 1192.9802143327272
2168.505927500455 1264.633395971866
2169.126761035366 1450.153274540342
2169.7474449381552 1172.2594848589815
2170.367979243778 1388.4537041331168
2170.9883639871823 1084.3369840426835
2171.608599203293 1236.1027053073587
2172.2286849270276 1630.7294220352894
2172.8486211932886 1832.921151293423
2173.4684080369625 1391.2522666667714
2174.0880454929265 1134.4253581814826
2174.7075335960417 1200.563315833114
2175.3268723811543 1131.9640083967874
2175.9460618831 1063.2088819332632
2176.565102136701 1156.0689710972586
2177.1839931767627 1271.768284347732
2177.802735038078 1387.7916362756775
2178.421327755432 1050.1719126921507
2179.0397713635866 1300.8140911692037
2179.658065897298 1303.8081173561065
2180.276211391305 1424.340637788237
2180.8942078803357 1060.7755247639
2181.5120553991 1032.514019704819
2182.129753982299 1004.1641342282255
2182.7473036646206 1199.9361056493794
2183.3647044807367 1416.3412132422554
2183.9819564653044 1383.7093489046658
2184.599059652968 1351.0469376671135
2185.216014078367 1417.4601088836785
2185.832819776113 1473.200012436418
2186.4494767808137 1528.9879340045966
2187.065985127063 1339.7864742637812
2187.682344849436 1488.0934172224338
2188.298555982501 1260.9290401606722
2188.9146185608097 1367.8297107343253
2189.530532618901 1535.9924664622838
2190.1462981912937 1512.7658896241114
2190.761915312507 1432.409377396607
2191.377384017036 1354.6984450525301
2191.9927043393654 1290.5386953707111
2192.6078763139667 1452.777749752822
2193.2228999753006 1615.376401288412
2193.837775357808 1459.8145089683799
2194.452502495922 1382.6208998775617
2195.0670814240602 1305.2638764952067
2195.6815121766285 1159.863767230831
2196.2957947880186 1081.4216298658546
2196.9099292926057 1002.8249046001478
2197.523915724758 1313.317241078956
2198.137754118825 1232.1011340619373
2198.7514445091456 1584.9409584945786
2199.3649869300443 1583.3065744032863
2199.9783814158327 1581.7348683231962
2200.5916280008096 1619.6335223927329
2201.2047267192593 1567.637765331007
2201.8176776054515 1369.924393963173
2202.430480693649 1400.1347714921292
2203.0431360180955 1430.4424063058552
2203.6556436130195 1513.0684317588814
2204.268003512645 999.3297155528866
2204.8802157511727 1306.441880520559
2205.492280362796 1283.864159395455
2206.1041973816937 1261.2519131770682
2206.715966842032 1352.8379020541297
2207.3275887779655 1540.0972786153065
2207.93906322363 1252.5122364809508
2208.550390213153 1393.3442448247783
2209.1615697806465 1254.5567668779847
2209.7726019602105 1394.5431417877658
2210.3834867859277 1169.7165692951833
2210.9942242918787 1281.9159687975348
2211.6048145121167 1314.9969793363061
2212.2152574806914 2030.6392889449332
2212.825553231638 1197.3440043281744
2213.435701798975 1891.0566617227712
2214.045703216707 1316.1333036935675
2214.655557518832 842.6010705643354
2215.2652647393297 1105.6278548835755
2215.874824912169 944.9908869073864
2216.4842380713 1287.0806381855268
2217.09350425067 1109.4275874919315
2217.7026234842033 1244.7283172772377
2218.311595805819 1380.3539885770608
2218.9204212494133 1273.5008337487716
2219.52909984888 1638.0502982848461
2220.137631638092 1061.6548362855976
2220.7460166509154 1559.7902813925953
2221.354254921198 1098.1497920123957
2221.9623464827764 1381.905844140013
2222.5702913694713 1242.4079862386538
2223.178089615096 1258.661402459477
2223.7857412534486 1274.945501683001
2224.39324631831 1041.320138714407
2225.000604843457 1124.4433740396398
2225.607816862641 1367.84448583597
2226.214882409611 1513.3634348214955
2226.8218015180973 1531.8188779369173
2227.4285742218217 1353.4931844448997
2228.0352005544864 1157.494859923672
2228.6416805497847 1242.832486832361
2229.248014241399 1328.231554890833
2229.8542016629945 1233.2711237531223
2230.460242848223 1451.4757418173272
2231.0661378307304 1280.3649806616081
2231.671886644139 1109.08784939725
2232.277489322065 971.7632751912706
2232.8829458981127 863.3529660898997
2233.48825640587 1381.7838342753316
2234.0934208789095 1826.6595877452141
2234.6984393507955 1577.3440357844252
2235.3033118550793 1412.2714208575355
2235.9080384252975 1276.185420126832
2236.5126190949723 1097.6076052391522
2237.1170538976166 1228.513000004463
2237.721342866729 1244.138236539254
2238.32548603579 1259.7909402310468
2238.9294834382763 1356.0055710776924
2239.533335107646 1362.9457963782247
2240.1370410773434 1325.8761362282644
2240.740601380803 1385.6335066586223
2241.3440160514474 1445.4987620922566
2241.9472851226783 1592.2384476759332
2242.550408627896 1377.232982407282
2243.1533866004793 1599.325032415857
2243.756219073799 1342.7361176695028
2244.3589060812064 1000.1434802476736
2244.961447656049 1066.0144504577972
2245.5638438316564 1409.9093937916248
2246.166094641343 1405.3252240373213
2246.7682001184166 1183.0722581223185
2247.3701602961664 1230.1958449831309
2247.971975207871 1456.9598205989093
2248.5736448867974 1611.3602556584563
2249.175169366197 1361.6111336803267
2249.7765486793123 1276.4985556553077
2250.3777828593684 1390.7057052155162
2250.9788719395783 1457.3075171584403
2251.579815953146 1494.0958250125473
2252.1806149332606 1141.3871530191343
2252.781268913097 1274.9787512668559
2253.381777925817 1233.914066903623
2253.9821420045737 1412.5645944875453
2254.5823611825035 1429.9021808188252
2255.1824354927303 1251.2006420323053
2255.782364968365 1137.4580485175443
2256.38214964251 1023.5934709933981
2256.9817895482483 1024.3533160800814
2257.5812847186553 1086.6993789417334
2258.180635186791 1149.1816256375728
2258.779840985704 1156.1685396120997
2259.37890214843 1242.9639606264345
2259.97781870799 1518.2276691013733
2260.5765906973957 1353.7423824011653
2261.175218149645 1413.8071048776562
2261.773701097718 1473.9546812788572
2262.3720395745895 1272.6467402622343
2262.970233613216 1290.3307575927342
2263.568283246548 1307.9929938249356
2264.1661885075137 1084.708566639339
2264.763949429038 980.8536248513983
2265.3615660440246 1063.470297929299
2265.959038385374 1146.2067818986914
2266.5563664859637 1417.5089036482113
2267.153550378669 1199.6261817389134
2267.7505900963424 1181.608231172427
2268.3474856718312 1163.6424272408292
2268.9442371379664 1205.9511201770933
2269.5408445275643 1233.1429449002578
2270.1373078734377 1449.904228243498
2270.7336272083758 1185.2900752861538
2271.32980256516 1120.7000080204348
2271.925833976562 1405.4371660668724
2272.5217214753357 1291.0112677782442
2273.117465094223 1176.3301967504156
2273.7130648659586 1149.8110968855194
2274.308520823257 1310.984204676245
2274.903832998827 1115.856285135213
2275.4990014253563 1225.642025773951
2276.094026135528 1503.0737313693028
2276.6889071620117 1226.385198863852
2277.2836445374614 1368.1542364360644
2277.878238294519 1395.5787176102333
2278.472688465812 1223.9855355049522
2279.066995083962 1052.0918921534067
2279.6611581815705 1301.0031569045314
2280.255177791232 1539.4429553483956
2280.8490539455233 1352.716156243429
2281.442786677013 1611.937077852085
2282.0363760182554 1579.1921837913653
2282.6298220017943 1603.3454515408253
2283.223124660155 1627.6482707536973
2283.816284025859 1284.483203738762
2284.4093001314086 1600.0827187981242
2285.002173009292 1131.017768549376
2285.5949026919952 1362.617124283621
2286.1874892119777 1282.6419905832602
2286.7799326016993 1141.1997400821515
2287.3722328936 999.3787706728729
2287.964390120109 939.0059299130714
2288.556404313642 1599.634179137152
2289.1482755066027 1558.4399717207807
2289.7400037313873 1356.2312982974024
2290.3315890203703 1387.2877498980945
2290.9230314059205 1418.4048819851096
2291.5143309203904 1250.4054636937606
2292.1054875961236 1335.3676369225668
2292.6965014654506 1742.094969023569
2293.287372560684 1177.8144001984542
2293.878100914131 1207.6203945797697
2294.468686558086 1237.5289263600512
2295.059129524827 1442.4932085245005
2295.649429846617 1595.3475272890262
2296.239587555716 1413.7341041780535
2296.8296026843636 1231.667339174202
2297.419475264791 1240.8375668061806
2298.0092053292137 1249.9478728854126
2298.598792909839 1673.3922201279897
2299.1882380388597 1309.6041444130974
2299.777540748455 1743.1640608485711
2300.3667010707904 1329.0057924012453
2300.9557190380256 1523.9073301770254
2301.544594682302 1736.6245747891003
2302.1333280357503 1613.0761914294822
2302.721919130485 1489.423427587934
2303.3103679986198 1511.2327517595404
2303.898674672242 1605.6210105224166
2304.486839183437 1291.3116389073327
2305.0748615642697 1229.666225474628
2305.6627418468015 1445.5511932421057
2306.2504800630704 1193.5467650644473
2306.8380762451143 1413.2329593935738
2307.425530424949 1432.6681544796818
2308.012842634582 1452.1367983715222
2308.6000129060103 1552.775224094003
2309.187041271214 1358.7810112837806
2309.773927762164 1575.0532187604408
2310.3606724108213 1330.2166073509868
2310.9472752491274 1100.3136298363424
2311.5337363090184 1126.1591088751745
2312.120055622414 1152.0772940722893
2312.706233221221 1328.619186575691
2313.2922691373424 1025.5020127014088
2313.8781634026564 1119.4506830762311
2314.463916049037 1213.6117181120158
2315.049527108342 1422.2728456126877
2315.6349966124235 1669.270288889993
2316.2203245931123 1709.1228956654868
2316.8055110822315 1126.8918092311164
2317.3905561115935 1103.3733394040573
2317.9754597129977 1238.5686074838463
2318.560221918229 1101.703221476775
2319.1448427590603 1412.1194419980097
2319.729322267256 1216.2986097828848
2320.313660474563 1484.5049789643022
2320.8978574127195 1364.1375020183123
2321.481913113452 1575.9023160278082
2322.0658276084705 1307.8130174790379
2322.6496009294806 1341.4093998689962
2323.233233108165 1249.6231809624308
2323.8167241762058 1222.8978471431435
2324.4000741652617 1310.1364635256364
2324.983283106987 1647.8298778185194
2325.5663510330232 1617.859130197878
2326.1492779749933 1259.2855209446152
2326.7320639645204 1287.4667481733363
2327.3147090332004 1113.1098565110456
2327.897213212629 1171.3132518229781
2328.4795765343843 1229.5075942447547
2329.0617990300307 1130.542083717396
2329.643880731124 1581.1320625359483
2330.22582166921 1186.178571694723
2330.807621875816 1137.1056619416413
2331.3892813824623 1088.0508860880832
2331.9708002206517 929.5586168293199
2332.5521784218818 1128.3269845073935
2333.133416017634 1327.5466827599428
2333.7145130393765 1165.569300567376
2334.295469518571 1350.8266595176278
2334.876285486658 1538.208048741761
2335.456960975076 1551.8641575720383
2336.037496015242 1565.5776710186612
2336.6178906385667 1296.981568845134
2337.198144876451 1329.336663120022
2337.778258760278 1396.0823993459517
2338.3582323214214 1383.9815515380094
2338.938065591243 1371.8178295504113
2339.517758601087 1614.3305631695189
2340.0973113822965 1467.8864274776074
2340.676723966193 1146.8608598794997
2341.255996384094 1374.2317812859694
2341.835128667295 1406.7421423354017
2342.4141208470883 1423.7435317973657
2342.992972954751 1497.9399086653461
2343.5716850215467 1317.4144821083034
2344.1502570787306 1028.8927055132558
2344.7286891575386 1151.4473167377196
2345.3069812892045 1309.787731091414
2345.885133504944 1468.295013165823
2346.4631458359618 1324.8376000289038
2347.04101831345 1045.1961006486888
2347.6187509685915 983.083841458583
2348.196343832553 1158.1281102376636
2348.7737969364935 1095.991601208255
2349.351110311558 1033.8007413188811
2349.9282839888765 1029.238051307548
2350.5053179995757 1115.6662121728932
2351.0822123747585 983.4821191082232
2351.658967145526 1095.5173186060833
2352.2355823429643 1207.8049371883346
2352.812057998144 1280.8744824870173
2353.3883941421263 1275.1016209022064
2353.9645908059647 1388.9478286428687
2354.540648020693 1230.2386345763714
2355.116565817336 1390.181199436055
2355.6923442269126 1142.084364045792
2356.2679832804224 1379.1151359824412
2356.8434830088518 1095.9450564604945
2357.41884344318 1146.6325966956829
2357.994064614377 1177.8836968896128
