#exp_cfg={"servo_angle": 0.0, "laser_lim": 100.0, "servo_angle_to": 18.0, "laser_wup": 0.0, "bt_dev": "EnSpectr-25AE3", "laser_wdn_max": 0.0, "frames": 10.0, "servo_used": 0, "servo_calib_use": 0, "laser_wdn_min": 0.0, "servo_pix_from": 90.0, "cooler_tout": 300.0, "servo_angle_from": 0.0, "servo_calib": "[-1.9174921013161362e-09, 3.9322238269163779e-05, -0.27385609119055809, 653.59552119713567]", "laser_autoctl": 0, "servo_pix_to": 3682.0, "laser_pw": 100.0, "cooler_on": 0, "laser_volt": 4.0, "cooler_autoctl": 0, "cooler_curr": 70.0, "cooler_startup": 10.0, "laser_fixed_pw": 0, "gain": 1.3, "offset": 2.53059635486, "servo_calib_degree": 3.0, "laser_curr": 55.0, "shutter": 8200.0, "servo_calib_step": 1.0, "laser_fixed_curr": 0, "exp": 2000.0, "ccd_volt": 4.7, "bt_addr": "00:06:66:62:5A:E3", "servo_delay": 500.0, "laser_autooff": 1}
#proc_cfg={"flat_auto_wnd": 200.0, "flat_auto_fr": 200.0, "flat_auto_shift": 5.0, "yconv": 1, "flatten": 1, "flatten_strength": 100.0, "xfrom": 300.0, "auto_max_frame": 2000.0, "auto_signal": 48000.0, "flat_auto_tol": 0.1, "autoclip": 1, "xrel_range": 0.0, "flat_auto_to": 4000.0, "intensity_adj": 1.0, "xrel": 7852.0, "rmhot": 1, "flat_auto_slit": 4.999999999999997, "auto_ini_exp": 300.0, "auto_off": 0, "xto": 2860.0, "flat_auto_ref": "", "flat_auto_rank": 1, "autobackg": 0, "xrel_adj": 0.0, "auto_black_lvl": 1, "base_wnd": 100.0, "sub_baseline": 0, "xconv": 2, "auto_max_exp": 1000.0, "auto_total_exp": 10000.0, "auto_exp": 0, "rmripple": 0, "black_lvl": 8257.4, "shutter_clip_adj": 0.0, "auto_bckg": 0, "flat_auto_thr": 0.9, "subbackg": 1}
316.8218498245369 10410.015321407454
317.89969571804795 10226.169604202067
318.977263876126 10316.819841277333
320.05455438786703 10256.769715430233
321.1315673423287 10207.580298196308
322.2083028285215 10286.277715611588
323.2847609354267 10240.108206951996
324.3609417519747 10226.658906026827
325.43684536705587 10138.230564732283
326.5124718695279 10148.60820028533
327.58782134820103 10167.128735114378
328.66289389184385 10192.417944639616
329.7376895891921 10038.244613112567
330.8122085289342 10126.37596250152
331.88645079971866 10099.484986844865
332.9604164901575 10089.733928642147
334.03410568881554 10050.667135024652
335.1075184842266 10108.973863857878
336.18065496487543 9981.25105109376
337.2535152192122 10012.472201108667
338.32609933564163 10032.684912043185
339.39840740253203 9956.575598782383
340.4704395082099 10043.299926916268
341.5421957409617 9915.049205648413
342.6136761890357 10023.755345093685
343.6848809406365 9928.56869366454
344.75581008392874 9868.881564895233
345.82646370703696 9851.615514106043
346.8968418980512 9836.394978660026
347.96694474501055 9882.502230435774
349.0367723359268 9911.749797193002
350.106324758759 9836.998416479899
351.1756021014353 9744.673838908522
352.2446044518383 9776.366091399232
353.31333189781435 9863.405193393792
354.38178452716966 9687.036400629251
355.449962427665 9734.635267728403
356.51786568702846 9695.794841948566
357.58549439294256 9724.039727458756
358.6528486330535 9711.872394240618
359.71992849496564 9672.8593468305
360.7867340662433 9707.668719323596
361.8532654344144 9661.561698404119
362.9195226869597 9676.143536312205
363.9855059113288 9534.647411295136
365.05121519492604 9568.835156587815
366.11665062511565 9574.896707358968
367.1818122892273 9569.125090320214
368.2467002745434 9554.813218086523
369.31131466831175 9580.909242800808
370.375655557742 9547.450806722221
371.4397230299983 9514.218855071065
372.5035171722102 9530.47671705573
373.5670380714637 9516.889203113673
374.6302858148101 9459.87540635951
375.6932604892554 9511.969318505056
376.7559621817709 9445.64116187485
377.81839097928605 9400.730277735076
378.8805469686886 9394.121594820406
379.94243023683157 9525.689303805628
381.0040408705263 9394.107937480148
382.0653789565458 9286.418725164045
383.1264445816196 9368.954789032143
384.1872378324406 9329.66977444336
385.2477587956637 9320.798501213745
386.3080075579037 9286.0981148134
387.3679842057336 9213.75022541909
388.4276888256918 9249.994043864359
389.48712150426945 9266.381531072348
390.54628232792857 9254.126582516834
391.6051713830857 9187.852844241748
392.66378875611736 9265.631633651354
393.7221345333637 9180.692321567476
394.7802088011249 9162.082578905163
395.838011645661 9176.088914761958
396.89554315319765 9173.846732070964
397.9528034099112 9065.833779328295
399.00979250194723 9054.046001438955
400.06651051541485 9068.791405986989
401.1229575363741 9084.338391280875
402.17913365085224 8992.860028673087
403.23503894483656 9092.95971616478
404.2906735042761 8985.131767054892
405.3460374150818 8899.102605846369
406.401130763119 9002.028621923888
407.455953634224 9052.32127302839
408.5105061141876 8938.725320739619
409.56478828876243 8831.119310098056
410.6188002436629 8877.673739360209
411.6725420645689 8849.440734995425
412.72601383711117 8882.333026376496
413.77921564689314 8909.387971848608
414.8321475794728 8881.221684062166
415.88480972036814 8738.189889260131
416.93720215506437 8841.772733566944
417.9893249690049 8822.189916264997
419.04117824759123 8692.39078042757
420.09276207619223 8748.070706520039
421.144076540133 8753.416640513939
422.1951217247042 8681.163485194405
423.24589771515275 8751.792749466202
424.2964045966928 8677.846637903443
425.34664245449494 8678.410519469759
426.3966113736933 8607.964609930114
427.4463114393875 8651.074787292233
428.49574273662984 8631.490285706419
429.5449053504417 8593.763055819505
430.5937993658026 8643.620429969702
431.6424248676558 8586.81558061924
432.6907819409007 8525.452180175838
433.73887067040596 8570.896028447565
434.7866911409965 8572.50510257135
435.8342434374608 8572.525168164924
436.88152764455117 8522.627583788684
437.9285438469724 8564.353568731163
438.9752921294057 8494.691957640429
440.02177257648145 8582.61730380246
441.06798527279716 8424.046667405408
442.1139303029122 8564.22964039874
443.1596077513459 8450.231708935062
444.2050177025794 8461.063143936877
445.25016024105753 8438.835952540934
446.2950354511886 8503.5033862853
447.33964341733736 8468.983824378283
448.383984223834 8452.09960062653
449.4280579549686 8390.61231041537
450.471864694995 8388.951767917013
451.5154045281306 8386.985710526107
452.5586775385509 8350.276987894787
453.60168381039693 8386.397793924963
454.64442342776783 8469.356395714782
455.6868964747264 8370.708142582524
456.7291030353008 8312.56143692624
457.77104319347563 8398.415527114423
458.8127170332027 8285.116296891476
459.854124638392 8248.026626601011
460.895266092919 8376.183172850386
461.93614148061897 8286.318924337293
462.97675088529104 8360.115917075385
464.01709439069236 8324.53623359555
465.0571720805492 8240.003869268898
466.0969840385442 8248.694106660061
467.1365303483253 8391.44540955518
468.17581109350067 8250.558129643978
469.2148263576437 8207.821238452514
470.2535762242878 8265.773484160994
471.29206077693016 8282.552805938029
472.33028009902773 8294.638724216142
473.3682342740012 8255.13187869838
474.40592338523857 8202.714659951833
475.4433475160804 8261.05901357506
476.4805067498364 8222.558828633348
477.51740116978 8192.626706785162
478.5540308591426 8262.828755488914
479.59039590112116 8266.232941631199
480.6264963788726 8214.990002106293
481.6623323755193 8234.238205078516
482.6979039741436 8222.724208563212
483.7332112577915 8218.104759984237
484.76825430947247 8332.973875561465
485.80303321215797 8216.781966242093
486.837548048783 8307.014865743698
487.8717989022425 8333.024355797123
488.90578585539697 8246.233802356608
489.9395089910686 8360.396669161084
490.97296839203955 8251.403218141211
492.00616414106116 8167.900041087027
493.0390963208429 8224.492980443267
494.0717650140559 8248.727403743844
495.10417030333883 8248.483543242146
496.1363122712901 8200.675320359616
497.16819100046814 8149.7735649238675
498.1998065734024 8113.3666585113515
499.2311590725767 8053.906207301613
500.26224858044407 8088.371020513237
501.2930751794156 8074.6892064680505
502.3236389518679 8076.320445657958
503.35393998014115 8013.087314052779
504.38397834653733 7967.8478664487775
505.4137541333221 8025.1413336757105
506.4432674227228 7954.1306751508255
507.4725182969323 7952.270407153099
508.5015068381035 7907.164615970047
509.53023312835467 8012.212041909549
510.55869724976765 7855.3523456235
511.58689928438434 7910.249954843532
512.6148393142121 7813.0185821101795
513.6425174212218 7847.926364603685
514.6699336873462 7899.155175208053
515.6970881944835 7892.087166439802
516.7239810244901 7796.688173854915
517.7506122591931 7882.804129892732
518.7769819803761 7808.779518802949
519.8030902697901 7826.539873120006
520.8289372091476 7821.484356488468
521.8545228801249 7823.085451998297
522.8798473643619 7763.35938750612
523.9049107434621 7789.634423655148
524.9297130989908 7802.3709286540525
525.9542545124805 7761.548418446297
526.9785350654201 7782.705426874991
528.0025548392696 7767.600827625592
529.0263139154504 7693.134110401896
530.0498123753423 7709.0885055730705
531.073050300296 7712.314944399844
532.0960277716204 7667.198008652321
533.1187448705896 7715.5316041600645
534.1412016784416 7734.881500647278
535.1633982763833 7703.9058012937485
536.1853347455726 7679.358059144484
537.2070111671401 7670.549192186978
538.2284276221817 7672.8721525436395
539.2495841917516 7608.815470795242
540.2704809568677 7638.976827795673
541.2911179985167 7625.035288760807
542.3114953976419 7577.771742949897
543.3316132351592 7568.0617402044645
544.3514715919409 7588.380779882874
545.3710705488247 7597.650994511094
546.3904101866156 7594.030995916398
547.4094905860784 7550.756017600067
548.4283118279418 7516.3420721924995
549.4468739929034 7630.91575660233
550.4651771616191 7546.8665439226315
551.4832214147063 7421.729414814459
552.501006832761 7551.146450910598
553.5185334963226 7530.657258564987
554.5358014859103 7577.483257031347
555.5528108820035 7541.556408666086
556.5695617650363 7529.023421722891
557.5860542154242 7529.061921831839
558.6022883135283 7516.205005365914
559.6182641396881 7478.455881203427
560.6339817741991 7566.759569834352
561.6494412973225 7535.113833293262
562.6646427892883 7580.564323310197
563.6795863302796 7465.6746980833095
564.694272000459 7437.036856498419
565.7086998799423 7523.478950841309
566.7228700488104 7431.648457381896
567.7367825871115 7370.877288333788
568.7504375748576 7351.888779689357
569.7638350920224 7401.901907309941
570.7769752185486 7387.413192104914
571.7898580343353 7401.475128563051
572.802483619258 7284.284148055672
573.8148520531431 7401.657370244987
574.8269634157932 7375.005826267773
575.8388177869692 7259.026732672048
576.8504152463938 7295.760802697089
577.8617558737587 7356.389006707225
578.8728397487175 7186.247372673337
579.883666950891 7213.102535455706
580.8942375598654 7268.268528916987
581.9045516551851 7272.143231007208
582.9146093163617 7418.6745426058715
583.924410622878 7200.900112387581
584.9339556541727 7245.449339363251
585.9432444896538 7319.266286374082
586.9522772086875 7318.085311637211
587.9610538906127 7286.949151169417
588.9695746147318 7200.155840537785
589.9778394603054 7276.001721849049
590.985848506567 7193.391154187481
591.9936018327098 7175.106667005125
593.0010995178891 7081.272140235087
594.0083416412344 7241.871093808879
595.0153282818283 7108.0158512417165
596.0220595187293 7147.734806220675
597.0285354309508 7108.68873896013
598.0347560974806 7064.909889374384
599.0407215972609 7059.060336647264
600.0464320092051 7043.786632973101
601.0518874121954 7105.182184606284
602.0570878850685 7026.289147747806
603.062033506636 7067.173059920744
604.0667243556636 7009.350023555436
605.0711605108936 6960.763332677052
606.0753420510264 7134.135705477207
607.0792690547278 7006.5485872856025
608.082941600629 6938.683651823478
609.0863597673306 6996.574936458448
610.0895236333909 7057.623565255974
611.0924332773357 7139.770427956229
612.0950887776617 7011.3621617073
613.0974902128219 7076.070950908157
614.0996376612384 7055.285767005455
615.1015312013005 7104.384952759104
616.1031709113595 7109.371521953559
617.1045568697336 7025.583758599333
618.1056891547069 7107.7510664872825
619.1065678445229 7158.390107204087
620.1071930173985 7226.905623854039
621.1075647515099 7171.18221156749
622.1076831250048 7164.313059677518
623.1075482159849 7200.557733329226
624.1071601025305 7113.123565531801
625.1065188626781 7085.042817409923
626.105624574433 7197.859161529428
627.1044773157682 7185.766568698683
628.1030771646128 7087.06970948594
629.1014241988742 7170.725504917247
630.0995184964158 7153.830426337723
631.0973601350688 7112.841949531586
632.0949491926294 7245.397487289229
633.0922857468631 7083.917850149564
634.089369875499 7084.965469901416
635.0862016562278 7111.598898654546
636.0827811667077 6953.980687377964
637.0791084845641 7021.02387622373
638.0751836873878 6957.87186384644
639.0710068527369 7079.249917365312
640.0665780581294 6969.515534185545
641.0618973810506 6964.408380545948
642.0569648989604 7009.244407014473
643.0517806892676 6899.307409808318
644.0463448293649 6955.6437287237295
645.040657396592 6881.784985138898
646.0347184682723 6930.836596033446
647.0285281216875 6836.678663398588
648.0220864340772 6770.067230911693
649.0153934826558 6781.602069931058
650.0084493446047 6790.507079733712
651.0012540970674 6798.165821727176
651.9938078171526 6755.925094118356
652.9861105819346 6702.54785542365
653.9781624684565 6845.539792559808
654.9699635537254 6673.345972768528
655.9615139147136 6737.893294159297
656.9528136283589 6611.6366935738015
657.9438627715699 6750.348917740756
658.9346614212154 6666.858685743176
659.925209654135 6542.888826219401
660.9155075471263 6575.650027133606
661.9055551769616 6615.347187810599
662.895352620375 6641.45775752079
663.8848999540678 6579.387447026946
664.8741972547068 6539.380535447652
665.863244598926 6503.3260518260595
666.8520420633213 6606.251658673435
667.8405897244611 6465.984602822793
668.8288876588758 6394.770650721769
669.8169359430613 6449.936709563159
670.8047346534822 6534.400981747904
671.7922838665672 6360.334000756541
672.7795836587156 6464.424944085288
673.766634106285 6562.379068836453
674.7534352856092 6399.112095322021
675.7399872729766 6409.740259531264
676.7262901446538 6433.573988391173
677.712343976862 6428.834565381437
678.6981488457986 6515.679591848739
679.6837048276229 6361.134456265167
680.6690119984596 6343.276123350438
681.6540704344043 6376.380625591846
682.6388802115107 6417.662056465533
683.6234414058108 6401.160071682093
684.6077540932874 6332.770030890111
685.591818349907 6349.344075017749
686.575634251587 6354.375921188637
687.5592018742263 6329.9456102304375
688.5425212936734 6255.881027177643
689.5255925857564 6401.962640359055
690.5084158262707 6339.1612130967205
691.4909910909646 6318.801591531873
692.4733184555644 6286.58895782145
693.4553979957618 6328.926901709468
694.4372297872123 6382.6607796057815
695.4188139055404 6327.496612980253
696.4001504263324 6236.848558592417
697.3812394251509 6387.460822695518
698.3620809775111 6415.766010466125
699.3426751589104 6305.775467598414
700.3230220448004 6293.216399628932
701.3031217106054 6341.952572470795
702.2829742317172 6491.2600125759045
703.2625796834873 6275.075989110946
704.2419381412474 6227.4223197032825
705.22104968028 6375.822165779918
706.1999143758458 6338.1347304851115
707.178532303169 6371.178536640882
708.1569035374378 6417.665516360996
709.1350281538107 6398.168486778805
710.1129062274158 6447.213526459888
711.0905378333373 6544.832404114982
712.0679230466376 6604.280986197498
713.0450619423427 6735.303192220463
714.0219545954424 6847.779092150646
714.9986010808989 6823.145515211462
715.9750014736292 6923.689470632964
716.9511558485392 7070.723844440849
717.9270642804786 7319.8301340251155
718.9027268442787 7331.6504221288415
719.8781436147328 7350.650690060295
720.8533146666014 7409.647289999879
721.828240074612 7474.972741722612
722.8029199134635 7373.328216806987
723.7773542578125 7348.042370943792
724.751543182294 7275.923281107042
725.7254867615029 7237.442261795064
726.6991850700015 6998.032133737785
727.6726381823228 7019.581752977766
728.6458461729599 6974.74687057424
729.6188091163858 6913.143598624777
730.5915270870246 6875.998610218335
731.5640001592856 6879.760886851589
732.536228407529 6925.031725654141
733.5082119060917 6974.74867548195
734.4799507292755 6958.581592348819
735.4514449513481 6957.265452646473
736.4226946465496 7006.956704461869
737.3936998890786 7021.146468965545
738.3644607531078 6866.275958138454
739.3349773127793 6891.031904052626
740.3052496421951 6800.4289498504195
741.27527781543 6675.708190336091
742.2450619065221 6537.035737677719
743.2146019894826 6450.242353798846
744.183898138288 6486.7358500624905
745.1529504268801 6328.673762305598
746.1217589291682 6173.876765954143
747.0903237190341 6189.276467438853
748.058644870318 6107.940761285144
749.0267224568397 6048.436530584693
749.994556552374 5952.901346192684
750.9621472306771 5959.716024772431
751.9294945654583 5953.206602941592
752.8965986304011 5934.213728222895
753.8634594991636 5846.759566765245
754.8300772453586 5837.91824835101
755.7964519425768 5828.202452942749
756.762583664371 5937.0707022220395
757.7284724842611 5849.720467628786
758.6941184757416 5815.88859204138
759.6595217122667 5746.878383459405
760.6246822672638 5809.968717761985
761.5896002141235 5660.192924894163
762.5542756262093 5709.100683074611
763.5187085768503 5713.7491755284955
764.4828991393406 5658.741383053269
765.4468473869474 5722.012300800758
766.4105533929032 5707.360557775737
767.3740172304078 5712.288391648648
768.3372389726283 5757.688844932479
769.3002186926988 5641.674314070952
770.2629564637282 5628.412477583275
771.2254523587872 5623.568386434595
772.1877064509154 5631.533741446217
773.1497188131179 5574.801209506453
774.1114895183728 5526.191052140224
775.0730186396268 5582.439707964936
776.0343062497905 5583.01125210083
776.9953524217381 5573.993406100716
777.9561572283274 5589.316474203538
778.9167207423689 5532.560475027779
779.8770430366476 5503.852704030984
780.8371241839159 5499.727341054326
781.7969642568951 5565.774276237958
782.7565633282757 5610.8921971515565
783.7159214707099 5495.903734577988
784.6750387568281 5560.364686151391
785.6339152592227 5525.524868810008
786.5925510504512 5481.26840378724
787.5509462030477 5505.351723695723
788.5091007895098 5472.318889998964
789.4670148823006 5491.63593619335
790.4246885538596 5439.382035397902
791.3821218765861 5509.574611079266
792.3393149228505 5396.665080581668
793.2962677649975 5505.125745599402
794.2529804753303 5477.139866530074
795.20945312613 5474.105600615904
796.1656857896378 5373.471943417119
797.1216785380675 5359.344826227914
798.0774314435985 5356.816865843347
799.0329445783846 5499.832879722276
799.9882180145414 5465.107329064317
800.9432518241574 5384.242508383429
801.89804607929 5440.668113317841
802.852600851962 5412.310652124712
803.8069162141637 5399.550657499051
804.760992237856 5417.97664152393
805.714828994971 5434.361246316783
806.6684265574077 5463.412692641608
807.6217849970271 5284.032434587656
808.574904385674 5278.782004126358
809.527784795142 5421.877933830479
810.4804262972102 5462.354497506714
811.4328289636178 5347.22418326278
812.3849928660748 5252.278677907121
813.3369180762638 5303.408584901268
814.2886046658241 5355.682533846449
815.2400527063783 5282.192228733208
816.1912622695108 5314.864453130513
817.1422334267718 5341.881250054525
818.0929662496856 5270.739986936262
819.0434608097457 5216.315152314155
819.9937171784059 5291.375774543923
820.9437354271013 5253.216969838597
821.8935156272255 5402.833117651787
822.8430578501484 5198.213471957121
823.7923621672016 5113.074686308705
824.7414286496896 5204.681226151534
825.6902573688876 5245.922812681366
826.6388483960363 5175.442927704361
827.5872018023492 5143.697848428322
828.5353176590033 5268.066668611181
829.4831960371503 5098.982764267971
830.4308370079016 5124.893707862762
831.3782406423525 5154.610147879709
832.3254070115545 5157.0065938391745
833.2723361865319 5108.527113956954
834.2190282382799 5039.928941280088
835.1654832377644 5163.347399634812
836.1117012559116 5033.543151460117
837.0576823636256 5180.900677911241
838.003426631778 5038.717913701749
838.9489341312074 5031.729793662396
839.8942049327197 5110.218185920379
840.8392391070975 5161.806500541692
841.7840367250865 5016.399131824852
842.7285978573982 5020.101394121963
843.672922574724 5109.232875126205
844.6170109477152 5047.487622347665
845.560863046996 5036.336075480836
846.5044789431595 5035.108647670259
847.4478587067697 5003.5670937700725
848.3910024083561 5170.804425787619
849.333910118421 4962.088289791516
850.2765819074339 4966.125486156552
851.2190178458332 5049.7686652679795
852.161218004032 5055.983185881371
853.1031824524016 5059.049899121757
854.0449112612987 4964.107853934185
854.9864045010327 5044.2843001113315
855.9276622418947 4993.014250004474
856.8686845541379 4995.271097573948
857.8094715079915 5015.52172412801
858.7500231736467 5112.524932278014
859.690339621271 5007.8552470905315
860.6304209209939 5019.737103512307
861.5702671429244 4931.545531964737
862.5098783571284 4970.5139534448845
863.4492546336569 5010.464646415991
864.3883960425155 5010.285761820913
865.3273026536863 4905.906436577042
866.2659745371238 4858.557953301921
867.2044117627465 5043.510429895463
868.1426144004472 4914.268968480968
869.0805825200823 4974.182113204444
870.0183161914847 4943.5602351204125
870.9558154844526 4931.008654807757
871.8930804687552 4967.450779914495
872.8301112141307 4855.365810360845
873.7669077902865 4940.976176596593
874.7034702669062 5054.0354800235
875.6397987136315 4900.985880845567
876.5758932000863 4904.175021128774
877.5117537958522 4950.835595113926
878.4473805704911 4838.1989551046745
879.3827735935283 4865.69877358131
880.3179329344603 4932.712194076562
881.2528586627541 4968.213604333812
882.1875508478479 5012.36274971991
883.1220095591489 4835.333180149964
884.0562348660296 4897.579062819119
884.9902268378391 4900.699596070884
885.9239855438955 4847.763623097648
886.8575110534839 4812.027610165949
887.7908034358588 4902.830383397347
888.7238627602474 4918.110794528178
889.6566890958475 4918.619698897109
890.5892825118208 4778.672492132189
891.5216430773125 4851.988051888051
892.4537708614189 4859.77180515694
893.3856659332196 4824.054704658547
894.3173283617652 4771.456006076605
895.2487582160684 4909.084031522189
896.179955565116 4788.167921555656
897.110920477864 4778.098032344455
898.0416530232451 4744.815274741721
898.9721532701478 4777.387377430694
899.9024212874428 4832.949442259276
900.8324571439662 4738.281675163133
901.7622609085302 4687.542650204137
902.6918326499072 4711.392465790426
903.6211724368477 4758.362649066656
904.5502803380696 4785.036537360777
905.4791564222614 4869.0788118244445
906.4078007580792 4752.093528207138
907.3362134141571 4731.947677725118
908.2643944590909 4847.409345835208
909.1923439614493 4667.3773734430915
910.1200619897754 4747.7154960646885
911.0475486125779 4860.221396533675
911.9748038983344 4770.6765761011175
912.9018279155007 4727.716496526638
913.8286207324982 4725.584327195466
914.7551824177117 4746.689544192288
915.6815130395116 4727.417009175962
916.6076126662283 4687.415161544134
917.533481366163 4684.492946871572
918.4591192075914 4731.517611048149
919.3845262587565 4779.116705119974
920.3097025878706 4626.379138305237
921.2346482631237 4631.81964523443
922.1593633526682 4678.561410449555
923.0838479246304 4692.307298569139
924.0081020471061 4757.072728011548
924.9321257881656 4594.784815120002
925.8559192158464 4673.012370498371
926.7794823981512 4533.827933204901
927.7028154030686 4551.989247524317
928.6259182985414 4533.767930439457
929.5487911524906 4657.1242970034355
930.4714340328119 4735.2147843263765
931.3938470073608 4499.9581680109495
932.3160301439748 4569.89555271292
933.2379835104548 4565.507180854457
934.1597071745709 4653.935012121894
935.0812012040769 4567.688778509276
936.002465666681 4669.902952627293
936.9235006300696 4611.123006848951
937.8443061619055 4605.016754809485
938.7648823298077 4486.697702539444
939.6852292013809 4537.674702203917
940.6053468441951 4600.5429043921595
941.5252353257874 4489.0594846143285
942.4448947136698 4536.030725522685
943.364325075323 4567.1836334937425
944.2835264782043 4524.122514816643
945.2024989897309 4547.573862556235
946.1212426773054 4591.83786763193
947.0397576082851 4571.849094439174
947.9580438500125 4588.2716359944625
948.8761014697939 4635.407560755361
949.7939305349064 4662.442800593357
950.7115311125999 4571.7885458810615
951.6289032700952 4556.569191306216
952.5460470745875 4621.151124217164
953.4629625932339 4585.883839662101
954.3796498931715 4632.1898213639115
955.2961090415029 4579.629019042947
956.2123401053068 4649.970069921974
957.1283431516276 4545.6786231824135
958.0441182474842 4503.999347023453
958.9596654598663 4591.099377989076
959.8749848557309 4548.862976715494
960.7900765020167 4476.350105341522
961.7049404656209 4483.2673410170655
962.6195768134185 4522.761491657517
963.5339856122537 4548.820302596224
964.4481669289453 4545.12019780806
965.3621208302793 4501.139715165525
966.2758473830145 4425.442820172289
967.1893466538822 4635.530279228804
968.1026187095813 4433.735725855515
969.0156636167867 4406.924060113344
969.9284814421426 4488.2411952924695
970.8410722522622 4452.87428383973
971.753436113735 4438.444595600147
972.6655730931161 4386.687793731279
973.5774832569368 4493.334153147885
974.4891666716958 4430.067359502193
975.4006234038698 4395.072945438287
976.3118535198955 4343.982833590117
977.2228570861935 4454.923918582947
978.1336341691494 4462.363705657785
979.0441848351202 4264.774212420292
979.9545091504333 4453.481802080742
980.864607181391 4386.931865612155
981.7744789942699 4420.426065117457
982.6841246553086 4335.516133335052
983.5935442307236 4356.404012021678
984.5027377867027 4356.565807181394
985.4117053894024 4382.469598386025
986.3204471049557 4229.28338018837
987.2289629994648 4338.483646695549
988.1372531390007 4452.522206375574
989.0453175896091 4385.47947746507
989.9531564173067 4355.24010394457
990.860769688079 4241.499300562322
991.7681574678918 4274.0689570139975
992.6753198226706 4335.185785843236
993.582256818323 4249.830837811545
994.4889685207218 4272.421861712214
995.3954549957143 4431.000441698483
996.301716309119 4374.031043503042
997.2077525267232 4266.6561426092285
998.1135637142943 4243.603812374286
999.0191499375615 4361.560862724402
999.924511262232 4353.53390601135
1000.8296477539861 4341.584532303359
1001.7345594784656 4235.115783288775
1002.6392465012996 4237.9007643087625
1003.5437088880753 4299.317060246841
1004.4479467043584 4257.528254152027
1005.3519600156869 4212.182913920404
1006.2557488875718 4314.895373216645
1007.1593133854858 4259.360716859419
1008.0626535748888 4133.455439029357
1008.9657695212009 4176.527218383624
1009.8686612898182 4372.540693053258
1010.7713289461135 4309.020378466868
1011.6737725554212 4275.550063666057
1012.5759921830577 4196.280841464783
1013.4779878943027 4274.743409531911
1014.379759754418 4319.576171631652
1015.2813078286254 4221.561888857867
1016.18263218213 4181.012360696016
1017.0837328801026 4166.725655472094
1017.9846099876886 4274.78604910389
1018.8852635700023 4172.618252611792
1019.7856936921362 4117.198710884999
1020.6859004191447 4243.004323067782
1021.5858838160675 4118.2553985315335
1022.4856439479063 4093.081018958886
1023.3851808796389 4110.977029131819
1024.2844946762143 4205.402733819929
1025.183585402554 4240.317721859563
1026.082453123554 4057.0869377071967
1026.9810979040776 4200.877708303516
1027.8795198089647 4070.8765297989726
1028.777718903024 4125.188268632127
1029.6756952510368 4078.9422917037978
1030.5734489177648 4205.0113474019
1031.4709799679313 4109.340074401387
1032.3682884662358 4298.193778978546
1033.2653744773506 4053.598068299845
1034.1622380659192 4069.912475544648
1035.058879296559 4202.778957813955
1035.9552982338591 4252.59201493102
1036.8514949423825 4126.023726029931
1037.7474694866614 4172.682551952763
1038.6432219312028 4071.828617958318
1039.5387523404825 4335.905122596336
1040.4340607789582 4246.439574075687
1041.3291473110476 4281.909667389873
1042.2240120011465 4350.500468130025
1043.1186549136273 4421.901773670404
1044.0130761128294 4344.450754567018
1044.9072756630649 4362.926954069902
1045.8012536286205 4439.618318489311
1046.6950100737577 4564.083205261326
1047.588545062701 4569.3397468767935
1048.481858659663 4489.452889693409
1049.3749509288118 4605.9818495599475
1050.2678219343034 4486.193615684398
1051.1604717402515 4473.386715861429
1052.0529004107575 4419.8396582079795
1052.9451080098825 4459.354260748146
1053.8370946016694 4545.31460240281
1054.7288602501267 4445.293327181229
1055.6204050192446 4464.618498283413
1056.511728972977 4355.244893949737
1057.402832175254 4378.421934675888
1058.2937146899785 4229.866431678949
1059.1843765810263 4175.022979525295
1060.0748179122456 4221.44489264161
1060.9650387474576 4199.04340728079
1061.855039150456 4102.3585806358005
1062.7448191850071 4111.052694292877
1063.6343789148505 4044.280298253594
1064.5237184037014 4207.974572380234
1065.412837715241 4053.040858406752
1066.3017369131267 4057.3035610819766
1067.190416060992 3960.976187722262
1068.0788752224398 4037.185289281109
1068.9671144610438 3929.5331367006693
1069.8551338403558 3945.439143318987
1070.7429334239023 4020.332735665938
1071.6305132751695 3928.6223902924494
1072.517873457633 3984.4983071463553
1073.4050140347335 3958.737254129964
1074.2919350698776 3953.748315851214
1075.1786366264623 3991.2647562057145
1076.0651187678395 3903.426491113349
1076.95138155735 3889.866108259294
1077.8374250582929 3867.8244662686766
1078.7232493339507 3977.420577865168
1079.608854447577 3933.0351059097957
1080.4942404623907 3957.3225678826057
1081.3794074415982 4022.756974784603
1082.2643554483657 4031.44657348349
1083.149084545841 3932.8780827008727
1084.033594797138 3980.0275924277094
1084.9178862653516 3954.9288625768813
1085.8019590135427 4129.022329911113
1086.6858131047484 3916.6990318274934
1087.5694486019802 4060.3536874877836
1088.4528655682225 4052.316961249685
1089.3360640664287 4213.7819329069725
1090.2190441595321 4121.611308803965
1091.1018059104317 4030.821003872982
1091.98434938201 4212.886155019261
1092.866674637111 4225.538659793149
1093.748781738559 4085.0190792478875
1094.6306707491512 4092.646635028597
1095.5123417316554 4179.3561717401
1096.3937947488157 4125.097841620806
1097.2750298633455 4102.650574749463
1098.156047137938 4054.360290289859
1099.0368466352556 4042.293587742572
1099.9174284179317 4209.210194966165
1100.7977925485757 3921.5253958443764
1101.6779390897755 3975.723623621218
1102.5578681040806 3993.873499371513
1103.4375796540226 4012.427210127419
1104.3170738021054 3889.8355883757004
1105.1963506108077 3752.1370265501255
1106.0754101425773 3844.2234509891714
1106.9542524598382 3860.877447629579
1107.8328776249855 3798.2529627053655
1108.7112857003904 3750.3115946071084
1109.5894767483987 3740.3974265606203
1110.4674508313292 3861.0562556660902
1111.3452080114657 3714.9709379819333
1112.2227483510815 3799.7822574146353
1113.1000719124077 3771.219522415472
1113.9771787576592 3777.0119877950356
1114.854068949022 3669.364468556318
1115.7307425486542 3716.5056097929687
1116.6071996186893 3756.523864719436
1117.483440221229 3881.8593548688978
1118.3594644183577 3632.167989480924
1119.235272272128 3660.049006670202
1120.1108638445658 3711.630408284904
1120.9862391976712 3831.0584471036636
1121.8613983934229 3769.0886598871557
1122.7363414937627 3685.266418085771
1123.6110685606182 3708.8433536618695
1124.485579655884 3874.608096824131
1125.359874841426 3742.2607919400616
1126.2339541790916 3761.02655990517
1127.1078177306936 3897.6989897063077
1127.9814655580267 3726.4295017345844
1128.854897722851 3743.81474633069
1129.7281142869106 3732.599907454101
1130.6011153119125 3757.97165861704
1131.473900859548 3900.654329977745
1132.3464709914697 3702.9826144103854
1133.2188257693178 3737.6128453044976
1134.0909652546961 3685.674359265244
1134.96288950919 3663.148503916781
1135.8345985943506 3749.4964372550685
1136.7060925717087 3625.9367743246685
1137.57737150277 3706.650779333196
1138.4484354490069 3801.132167507647
1139.3192844718778 3660.0987589926162
1140.1899186327992 3517.6620564992163
1141.060337993178 3752.8536037307285
1141.930542614382 3659.718268528496
1142.8005325577597 3622.889352941228
1143.670307884635 3462.100872171395
1144.5398686563003 3600.7416648236454
1145.409214934025 3627.6876975897467
1146.2783467790541 3467.5827263570113
1147.1472642526023 3626.8901688042997
1148.0159674158622 3732.3437794582555
1148.8844563300026 3608.0377304899907
1149.7527310561618 3541.1952464426495
1150.6207916554504 3501.5081673265827
1151.4886381889592 3498.7853078206754
1152.3562707177498 3721.270643100671
1153.2236893028585 3523.5955801025375
1154.090894005296 3466.773505927541
1154.9578848860474 3583.3928822515845
1155.8246620060709 3499.542404703769
1156.6912254262988 3442.7636548337928
1157.5575752076438 3495.2116945611306
1158.42371141098 3602.662954772159
1159.2896340971656 3632.425632499825
1160.1553433270346 3495.3973285946404
1161.0208391613887 3552.3226331890073
1161.8861216610057 3514.845724936082
1162.75119088664 3557.7966891273545
1163.6160468990201 3509.5966763179504
1164.4806897588442 3498.706578788876
1165.3451195267917 3537.5953807280944
1166.2093362635114 3485.3642697479145
1167.0733400296285 3577.168219238324
1167.9371308857444 3456.1188017880995
1168.8007088924278 3464.9366596735863
1169.6640741102328 3549.737476973621
1170.5272265996773 3399.0105049729273
1171.390166421259 3424.9730504225577
1172.252893635452 3449.176681041326
1173.1154083026995 3599.8889160001368
1173.977710483421 3504.802573424622
1174.8398002380145 3408.4661865602757
1175.7016776268483 3462.310464409706
1176.563342710264 3412.0800694471022
1177.4247955485826 3436.8651130717017
1178.2860362020947 3450.863453384637
1179.147064731069 3329.2630906332624
1180.0078811957483 3493.8545014183574
1180.8684856563486 3413.1012698302125
1181.7288781730604 3451.872796288661
1182.589058806052 3417.3747646688157
1183.4490276154593 3582.238746847352
1184.3087846614017 3344.686563959116
1185.1683300039676 3407.091129726112
1186.027663703222 3525.625833959828
1186.8867858192025 3412.643212627058
1187.7456964119228 3437.4317944184077
1188.6043955413716 3413.835368534337
1189.4628832675116 3511.134633647278
1190.3211596502842 3483.5861494166916
1191.179224749596 3553.8200016230185
1192.0370786253388 3370.6749521338947
1192.8947213373758 3572.312127473885
1193.7521529455407 3601.63092574779
1194.6093735096438 3404.2295575270036
1195.466383089477 3395.8470907384544
1196.3231817447977 3423.7834393765615
1197.1797695353398 3556.513987869012
1198.0361465208189 3330.3359592304523
1198.8923127609214 3345.656141665733
1199.7482683153048 3502.9592759340912
1200.6040132436028 3562.5132740186664
1201.459547605431 3378.3054928226784
1202.3148714603722 3448.5920917432095
1203.1699848679855 3353.799178620525
1204.0248878878065 3536.145294741042
1204.8795805793507 3274.6240011263317
1205.7340630020935 3527.7467237351543
1206.5883352155033 3499.4756298233174
1207.4423972790064 3524.769100368081
1208.2962492520237 3351.435185715619
1209.1498911939307 3456.5009497815945
1210.0033231640937 3428.7079974326757
1210.8565452218427 3432.7325002475054
1211.7095574264913 3232.3228405681702
1212.5623598373222 3319.9129230253116
1213.4149525135963 3188.812982959086
1214.2673355145507 3397.7987290706237
1215.1195088993936 3257.4073972833708
1215.9714727273113 3306.4772301816092
1216.8232270574663 3391.487337797474
1217.6747719489904 3188.030529122577
1218.5261074609934 3226.1848430929826
1219.3772336525653 3341.7738111355234
1220.2281505827668 3349.8147093421458
1221.0788583106296 3397.021516981884
1221.9293568951707 3234.8585649786246
1222.7796463953746 3201.050668699543
1223.629726870202 3287.28664709917
1224.4795983785934 3329.221777696569
1225.3292609794553 3254.388734911745
1226.1787147316809 3161.274853327316
1227.0279596941327 3272.754317785492
1227.8769959256424 3314.59122852587
1228.7258234850306 3279.9484887848766
1229.5744424310833 3093.928258704173
1230.422852822563 3393.523335100303
1231.2710547182105 3374.5808664923475
1232.119048176739 3250.2269324906524
1232.9668332568417 3072.06203059554
1233.8144100171812 3255.271430922692
1234.6617785163999 3272.883995000489
1235.508938813111 3057.3250680334145
1236.3558909659114 3123.6501436924427
1237.2026350333617 3391.8459515861396
1238.049171074008 3349.3327235577444
1238.8954991463652 3079.9301230401206
1239.741619308932 3185.086820820444
1240.587531620169 3257.1860854835995
1241.4332361385277 3328.5998473824793
1242.2787329224248 3158.973983447928
1243.1240220302534 3034.1958949153714
1243.9691035203869 3124.7088595369196
1244.813977451171 3338.4242473433937
1245.6586438809263 3103.2372665989255
1246.5031028679496 3042.288053163521
1247.3473544705157 3197.239846433376
1248.1913987468706 3184.4423385601394
1249.0352357552383 3007.4876137173624
1249.8788655538228 3071.4301421570744
1250.7222882007918 3198.972330553832
1251.565503754302 3231.7155612215633
1252.4085122724755 2946.486102065347
1253.2513138134182 3242.986722339565
1254.0939084352049 3139.6885973284902
1254.9362961958905 3165.3106461906227
1255.7784771535007 3136.912280136282
1256.6204513660432 3226.3631077955783
1257.4622188915 3340.020279148336
1258.3037797878242 3196.707000858345
1259.1451341129468 3153.2928045173876
1259.9862819247755 3250.200791131184
1260.8272232811978 3209.5700179788573
1261.6679582400666 3365.9000349424214
1262.5084868592203 3184.0727150380485
1263.34880919647 3238.673151469653
1264.1889253095997 3216.6742353389027
1265.0288352563712 3305.7214839024136
1265.8685390945266 3138.741572778401
1266.7080368817751 3356.749825547945
1267.5473286758115 3368.8681652495893
1268.386414534294 3355.659063201635
1269.2252945148703 3115.5387187663555
1270.0639686751547 3135.9847560872204
1270.9024370727402 3196.790288549809
1271.7406997651997 3137.0616679077707
1272.5787568100714 3099.8250483956726
1273.4166082648808 3176.896816903942
1274.2542541871244 3202.626394557433
1275.091694634275 3464.8642514684857
1275.9289296637817 3086.443040576248
1276.7659593330663 3316.870529902143
1277.6027836995308 3169.5375266206725
1278.4394028205552 3367.2511418657123
1279.2758167534867 3191.7583240660815
1280.112025555658 3210.2754762875975
1280.9480292843746 3305.4567353448547
1281.7838279969128 3065.62244754527
1282.6194217505326 3193.3839191135767
1283.4548106024686 3110.1820198490323
1284.289994609926 3167.123496754697
1285.1249738300921 3266.6236054416827
1285.959748320127 3126.2655482052173
1286.7943181371702 3243.606727217633
1287.6286833383328 3196.9340442382845
1288.4628439807038 3258.8458835251886
1289.2968001213521 3122.9441309939566
1290.1305518173194 3153.973157086386
1290.9640991256183 3294.9746653448287
1291.7974421032523 3129.5887738329843
1292.630580807183 3034.171894108254
1293.463515294361 3198.95424253901
1294.29624562171 3292.571093644741
1295.12877184613 3184.147997551874
1295.961094024493 3159.929866987872
1296.79321221365 3292.7823801525205
1297.6251264704333 3220.640912506955
1298.4568368516466 3409.2282963968414
1299.2883434140658 3310.314417451945
1300.1196462144526 3099.1483318303644
1300.9507453095375 3339.8221198971346
1301.7816407560313 3291.80300028038
1302.6123326106172 3286.978509895153
1303.4428209299622 3244.8189308941774
1304.2731057707024 3514.000106800641
1305.1031871894502 3264.4687489924977
1305.933065242798 3381.8583128134837
1306.7627399873181 3312.530335764163
1307.5922114795467 3554.1023284848015
1308.4214797760123 3414.5911521571797
1309.2505449332057 3334.364594803714
1310.0794070076026 3352.7001159118945
1310.9080660556538 3545.611742687218
1311.736522133786 3495.648054915627
1312.5647752983987 3364.59597664154
1313.3928256058734 3159.342408060526
1314.2206731125661 3331.259511788855
1315.048317874809 3376.4694130622397
1315.8757599489109 3342.113559193197
1316.7029993911547 3365.221700680937
1317.5300362578055 3473.7028092293904
1318.356870605101 3234.314223469901
1319.183502489257 3304.529805611158
1320.0099319664623 3411.8538322034924
1320.836159092889 3372.0918671031445
1321.66218392468 3466.6648464617456
1322.4880065179532 3200.3524731332177
1323.3136269288134 3356.064378437581
1324.1390452133292 3486.729986203792
1324.9642614275563 3522.057888962815
1325.7892756275214 3357.3603460565
1326.6140878692295 3229.0013914779342
1327.4386982086617 3663.94081970135
1328.2631067017755 3394.4975987368452
1329.0873134045069 3412.0916101651555
1329.911318372764 3253.1238953306356
1330.735121662441 3322.986992367195
1331.558723329399 3219.730404977521
1332.3821234294774 3218.684523649653
1333.2053220185007 3358.03083568461
1334.0283191522612 3213.3263804249336
1334.851114886529 3266.0676869684557
1335.6737092770582 3075.9901909151968
1336.4961023795695 3129.846543742524
1337.3182942497697 3010.0474253346392
1338.1402849433325 3104.2459075180095
1338.962074515921 2982.892779246117
1339.7836630231632 2949.5567256517897
1340.6050505206676 3228.773320501804
1341.426237064028 3262.2417493921535
1342.2472227088037 3017.865343178315
1343.0680075105338 2869.2645953609504
1343.888591524741 3046.8817815422526
1344.7089748069138 3102.573792545393
1345.5291574125276 3032.4319995676096
1346.3491393970307 2879.722127561159
1347.168920815846 3120.659531028433
1347.9885017243778 3116.2831106834337
1348.8078821780036 2986.6049589541967
1349.6270622320844 2959.6752809905765
1350.4460419419447 2879.5777796065095
1351.2648213629054 2977.9985228224155
1352.0834005502438 2836.7772647220704
1352.90177955923 2920.7236651263197
1353.7199584451064 2951.07138135086
1354.5379372630887 2986.7570433640785
1355.355716068374 2886.1307144686293
1356.1732949161305 2826.7771391341057
1356.9906738615155 2930.291556629788
1357.8078529596478 2927.156797645356
1358.6248322656375 2924.114246882479
1359.441611834567 2843.4214677345717
1360.2581917214866 2922.966854158828
1361.0745719814367 2902.713096367222
1361.890752669433 2810.2519511739883
1362.7067338404577 2810.35881171217
1363.5225155494845 2967.1391637983093
1364.3380978514506 3015.8332035245317
1365.1534808012839 2701.8289869287764
1365.9686644538815 2679.8255397443722
1366.783648864117 3010.436124770072
1367.5984340868417 2952.4579350439453
1368.413020176893 2869.3636826704587
1369.2274071890715 2903.88457067506
1370.0415951781652 2939.4007871065687
1370.8555841989346 2882.3411075103513
1371.6693743061223 2736.261210431287
1372.48296555444 2656.9699797902476
1373.2963579985844 2884.794026914498
1374.1095516932255 2918.9018650559688
1374.9225466930166 2628.9102366928587
1375.7353430525782 2824.5555717651437
1376.5479408265164 2707.159547134662
1377.36034006941 2906.867822006806
1378.1725408358216 2842.332288999508
1378.9845431802805 2635.508431425039
1379.796347157304 2984.2902109706124
1380.6079528213813 2872.5868452678087
1381.4193602269788 2663.7959949975584
1382.230569428546 2704.4982687201
1383.0415804805016 2795.656128607349
1383.852393437246 2739.8875259686924
1384.6630083531563 2801.0993446383623
1385.4734252825892 2728.058942589706
1386.2836442798798 2746.8207661121573
1387.0936653993322 2803.739854762299
1387.9034886952395 2757.353713755682
1388.713114221864 2830.374025719392
1389.5225420334482 2822.083322159246
1390.331772184214 2763.6129254949374
1391.1408047283585 2588.0512859743217
1391.9496397200564 2739.154588601465
1392.758277213461 2804.5521981398756
1393.5667172627054 2880.7542780579174
1394.3749599218918 2773.342606136121
1395.1830052451114 2656.6115877451857
1395.9908532864265 2732.1606287643485
1396.7985040998774 2846.1216425722077
1397.6059577394808 2630.2481131713566
1398.4132142592352 2732.9093164857604
1399.2202737131156 2694.4431135800505
1400.027136155073 2873.1959709656626
1400.8338016390353 2636.789047136385
1401.6402702189134 2681.149485311751
1402.446541948586 2720.967981093897
1403.2526168819204 2640.082708647771
1404.058495072757 2551.1681771553
1404.8641765749107 2664.0401423680664
1405.6696614421799 2752.7319591057867
1406.4749497283356 2932.612876453802
1407.280041487129 2680.757487227801
1408.084936772295 2477.4686588304403
1408.8896356375335 2813.705491581521
1409.6941381365323 2809.7121694070543
1410.498444322955 2578.4866112925474
1411.3025542504402 2691.5949160713058
1412.106467972606 2745.734150244413
1412.9101855430508 2778.6323006170737
1413.7137070153458 2532.418155300117
1414.5170324430437 2770.4514027222926
1415.320161879672 2819.459270031587
1416.1230953787435 2869.031485722299
1416.925832993742 2650.968224519764
1417.7283747781275 2543.956336678967
1418.5307207853439 2745.120938495688
1419.3328710688093 2738.585326428127
1420.134825681922 2605.2854411297567
1420.9365846780584 2632.57046768889
1421.7381481105713 2902.4626532547177
1422.539516032788 2786.0309028698603
1423.3406884980232 2696.731871383297
1424.1416655595604 2573.383827381503
1424.942447270665 2663.7273241451485
1425.7430336845828 2860.22553791859
1426.5434248545298 2663.4653755721283
1427.3436208337116 2870.898188064007
1428.143621675301 2843.7144784931306
1428.9434274324558 2954.235181304371
1429.7430381583108 2664.6375040690023
1430.5424539059713 2724.141706984224
1431.3416747285337 3014.7489005282946
1432.1407006790632 2863.3094756351943
1432.9395318106053 2836.554837788283
1433.7381681761835 2691.897114503336
1434.5366098288014 2870.7754886252737
1435.3348568214424 2896.845194858235
1436.1329092070573 2769.6404300982495
1436.9307670385879 2936.4384866567298
1437.7284303689503 2974.3685364093444
1438.5258992510335 3052.665250013668
1439.3231737377118 2881.4552371375844
1440.1202538818306 2905.471926095577
1440.9171397362225 2782.333189602524
1441.7138313536925 2867.4424017040883
1442.5103287870243 2814.263888724879
1443.3066320889775 2748.411424485059
1444.1027413122956 3019.498718207435
1444.8986565096966 2871.2172759165173
1445.694377733882 2891.42114335952
1446.4899050375207 2684.526525613129
1447.2852384732687 2777.158976623122
1448.0803780937622 2881.303213554421
1448.8753239516063 2664.7737821319715
1449.6700760993954 2587.557004849262
1450.464634589689 2794.524781235966
1451.2589994750397 2934.9166172133064
1452.0531708079689 2690.908100993599
1452.8471486409799 2610.9404702135444
1453.6409330265524 2906.1258084093743
1454.4345240171442 2742.9327053917764
1455.2279216651987 2652.351151372076
1456.0211260231263 2706.308217898014
1456.8141371433194 2946.8217819596935
1457.6069550781594 2807.5993189422657
1458.3995798799897 2588.764227081384
1459.1920116011424 2687.059348339883
1459.98425029393 2564.2288382614793
1460.7762960106338 2524.8755343730145
1461.5681488035225 2676.1943845660503
1462.3598087248392 2763.060204047472
1463.1512758268036 2840.675865164654
1463.942550161617 2522.6168351775477
1464.7336317814625 2471.8120272474157
1465.524520738496 2705.7392523657886
1466.3152170848552 2472.786686223465
1467.1057208726506 2609.4276806126827
1467.8960321539817 2517.561662923122
1468.6861509809169 2371.073196927967
1469.4760774055085 2552.739798172184
1470.265811479785 2643.085811476003
1471.055353255755 2412.2515323001217
1471.844702785409 2381.6536379468293
1472.6338601207044 2396.7776124223155
1473.4228253135934 2555.758967720453
1474.2115984159936 2373.3324342687642
1475.0001794798063 2290.1487688422194
1475.7885685569145 2482.7274070477947
1476.576765699172 2389.1954826296155
1477.3647709584238 2432.158250061211
1478.1525843864802 2599.4588754471342
1478.9402060351367 2415.5203110146604
1479.7276359561693 2527.930064362484
1480.514874201328 2375.3108708070895
1481.3019208223468 2308.0382344953914
1482.0887758709323 2206.958953979058
1482.8754393987747 2552.0574617661414
1483.6619114575406 2261.7434806556703
1484.4481920988783 2291.9027084773875
1485.2342813744108 2434.0607113069564
1486.0201793357446 2542.686141078076
1486.8058860344572 2201.6210061866605
1487.591401522117 2398.7507568386995
1488.3767258502594 2275.686642872582
1489.1618590704056 2373.420104631493
1489.9468012340494 2087.3757373267545
1490.7315523926754 2385.529342433642
1491.5161125977356 2422.7973072794152
1492.3004819006637 2368.9555173530603
1493.084660352877 2211.9137383326765
1493.8686480057622 2413.556635530492
1494.6524449106964 2451.357237824599
1495.4360511190262 2518.4299997536264
1496.219466682087 2280.9915258231504
1497.0026916511779 2320.5499365901587
1497.7857260775945 2427.7177795227026
1498.5685700125996 2374.068939557176
1499.3512235074395 2155.749129875886
1500.133686613337 2215.10942177681
1500.9159593814966 2273.9833473648205
1501.698041863101 2587.8704266116647
1502.4799341093094 2086.739307381636
1503.2616361712662 2098.4767788851464
1504.043148100087 2371.8165449449625
1504.8244699468742 2373.85009504692
1505.6056017626997 2193.6018809604875
1506.3865435986281 2166.21702411796
1507.1672955056893 2279.442548432545
1507.9478575348967 2187.61731378126
1508.7282297372512 2391.233174093361
1509.5084121637192 2221.1871305026293
1510.2884048652577 2240.887105833452
1511.0682078927948 2224.0305318303253
1511.8478212972423 2195.378422916805
1512.6272451294917 2199.216779488616
1513.4064794404076 2257.4973354662156
1514.1855242808433 2343.601655590516
1514.9643797016215 2216.8583616394676
1515.743045753552 2343.0043818837958
1516.5215224874191 2316.5735274719996
1517.2998099539836 2111.2583805550057
1518.077908203999 2244.530896769778
1518.8558172881785 2208.095546225607
1519.633537257234 2262.6353170816105
1520.4110681618404 2299.0724343693755
1521.1884100526604 2219.0069019997004
1521.9655629803365 2259.8827754857275
1522.7425269954856 2395.640773324595
1523.5193021487103 2526.073272813919
1524.2958884905856 2243.113477003831
1525.0722860716687 2263.173354378211
1525.848494942502 2164.193646529035
1526.624515153595 2225.285918790829
1527.4003467554485 2328.2229854696334
1528.175989798534 2308.3172188722733
1528.9514443333064 2218.222071519495
1529.726710410203 2417.966641045378
1530.5017880796331 2160.812725029993
1531.276677391992 2211.5271310278
1532.0513783976457 2455.3485878738106
1532.825891146953 2267.9454021480915
1533.6002156902414 2314.9666108771976
1534.3743520778207 2236.571991052377
1535.1483003599806 2250.2274018926255
1535.9220605869923 2233.641188425804
1536.6956328091019 2280.8986457829697
1537.4690170765407 2167.8961254844703
1538.242213439511 2256.979046600138
1539.015221948208 2210.4131820794746
1539.78804265279 2156.3736769236702
1540.560675603405 2056.867914797436
1541.3331208501804 2336.5768721244394
1542.1053784432224 2369.452254398317
1542.8774484326168 2247.1330227539456
1543.649330868422 2279.1516061137463
1544.4210258006842 2200.1532937551306
1545.1925332794308 2250.3109719854483
1545.9638533546604 2202.5998065672748
1546.7349860763552 2154.3513167896267
1547.5059314944829 2388.9921080729114
1548.27668965898 2143.8505782637485
1549.0472606197673 2224.2756286696213
1549.817644426752 2105.9595778733087
1550.5878411298072 1911.392961758486
1551.3578507787988 2162.762960871508
1552.1276734235635 2026.9620482877224
1552.8973091139233 2250.535150241213
1553.6667578996767 2267.7516944351314
1554.436019830604 2053.41672409596
1555.20509495646 2119.69138506115
1555.9739833269869 1960.325469916473
1556.7426849919011 2057.4132737518303
1557.511200000903 2277.9404777539603
1558.2795284036674 2247.1306277425183
1559.0476702498509 2050.1149978884596
1559.8156255890954 2296.835787536665
1560.5833944710157 2390.354619147728
1561.3509769452048 2046.5543999613103
1562.1183730612447 2158.8011882578694
1562.8855828686865 2106.016402928496
1563.6526064170703 2417.5628620657358
1564.4194437559127 2278.5420866345034
1565.1860949347047 2095.2672087879528
1565.9525600029283 2298.109619951477
1566.7188390100328 2444.40816717361
1567.4849320054564 2079.4025396816314
1568.250839038612 2098.01662890391
1569.0165601588997 2227.47929984292
1569.7820954156887 2250.4717029314224
1570.5474448583373 2115.3613218776527
1571.31260853618 2111.105714552542
1572.0775864985299 2014.8370072077273
1572.8423787946813 2327.2231810556427
1573.6069854739108 2094.534435915439
1574.371406585471 2249.1367769576473
1575.1356421785986 2344.8629384212963
1575.899692302506 2192.946212420096
1576.6635570063845 2332.002936456393
1577.4272363394157 2116.044240186723
1578.190730350747 2108.473391536408
1578.9540390895163 2284.0375394028724
1579.7171626048384 1953.4587097986282
1580.480100945806 2125.7788486345335
1581.2428541614918 2119.6785748770058
1582.0054223009538 2233.9706752905213
1582.767805413223 2129.4435960417386
1583.5300035473156 2190.4844605143417
1584.292016752228 2399.198542236613
1585.0538450769309 2233.1565149163516
1585.8154885703807 2122.51841909317
1586.5769472815136 2066.7732901886143
1587.3382212592405 2155.847727640527
1588.099310552463 2310.6619700014326
1588.8602152100484 2341.025121501125
1589.6209352808564 2340.579582131287
1590.3814708137234 2124.6200616745705
1591.14182185746 2131.2793886134878
1591.9019884608679 2059.6337181126564
1592.6619706727215 1966.149183514332
1593.4217685417734 2283.6304367823222
1594.1813821167616 2273.187666042954
1594.9408114464022 1990.2797962109198
1595.7000565793933 2097.1008471742366
1596.459117564409 2182.9230780798125
1597.2179944501113 1980.741708291133
1597.9766872851324 2038.9112675609442
1598.735196118092 2179.9650713139536
1599.4935209975883 2208.7605497170575
1600.2516619721973 2132.343791674115
1601.0096190904787 2097.6870354018474
1601.7673924009723 2124.7626272343805
1602.524981952196 2071.467973425177
1603.2823877926476 2115.780428269726
1604.0396099708087 2046.9009234516816
1604.7966485351371 1977.8015747931458
1605.5535035340745 2037.8159616418732
1606.3101750160404 2241.2290448059834
1607.0666630294363 1891.5695716773098
1607.822967622642 1935.4336085421746
1608.5790888440224 2020.0469836974946
1609.3350267419137 2197.5864120855313
1610.0907813646445 2031.396429929338
1610.8463527605145 1975.3386813131813
1611.601740977805 2083.7998595484746
1612.356946064785 2085.8096463447255
1613.1119680696902 1817.89872048638
1613.8668070407512 1916.9809179693116
1614.6214630261748 1935.0657397209657
1615.375936074137 2143.576890701901
1616.1302262328118 1941.0827902767287
1616.8843335503425 2151.660939471557
1617.638258074854 1946.2300467567231
1618.391999854457 2001.0796219810768
1619.1455589372363 2167.429816590402
1619.8989353712623 2164.0674193079
1620.65212920458 1852.5238267315358
1621.4051404852235 1887.1301980625976
1622.1579692611976 2085.517140194506
1622.9106155804966 1845.532421085009
1623.663079491087 1924.0654956277078
1624.4153610409248 2194.4335513005663
1625.1674602779385 1952.9816032620863
1625.9193772500403 1929.26617433545
1626.6711120051277 2180.003639604328
1627.4226645910676 1986.0524814775279
1628.174035055721 1850.5185318303659
1628.9252234469168 2086.1361874365984
1629.676229812474 1946.8132037770472
1630.4270542001905 2160.898680736972
1631.1776966578382 2029.0045311364752
1631.9281572331747 1986.0846370811146
1632.678435973945 2078.536065682885
1633.4285329278573 1996.3598123293355
1634.1784481426203 1735.043924318432
1634.9281816659113 1944.1729468483275
1635.677733545388 2058.1334682720308
1636.4271038286934 2016.6737762460689
1637.176292563452 2087.193228546331
1637.9252997972635 1955.6125151306055
1638.674125577716 2055.148607004792
1639.4227699523672 2239.232235396198
1640.171232968767 1849.415865043545
1640.9195146744423 2009.1110241990125
1641.6676151168977 2163.604809777817
1642.4155343436178 2073.5472468611565
1643.1632724020765 1990.710565525715
1643.9108293397167 1976.378749830188
1644.658205203974 1918.394991766259
1645.4054000422566 1907.705699099488
1646.1524139019566 1896.8466101420563
1646.8992468304423 1880.3496747940815
1647.6458988750728 1922.4786145850037
1648.3923700831765 1933.6075717091499
1649.1386605020743 1877.8459560906963
1649.8847701790564 2099.3491540450805
1650.6306991614038 2021.8283882962828
1651.3764474963682 2071.7412448974474
1652.1220152311944 1778.321171525884
1652.867402413096 2037.0795585635547
1653.6126090892776 1986.199822869703
1654.3576353069184 2186.023790944921
1655.1024811131829 2072.724915148301
1655.8471465552066 1896.6412560396395
1656.5916316801213 2127.152990968171
1657.3359365350298 2105.119869114472
1658.0800611670165 1909.3144413198145
1658.824005623148 2020.1010175295553
1659.5677699504722 1875.7406156282173
1660.3113541960192 2094.8959514653025
1661.054758406799 1996.6487202055118
1661.7979826297997 1862.9446182501156
1662.5410269119966 1842.8433947006913
1663.283891300338 2114.353030938514
1664.0265758417645 1983.5348753881176
1664.7690805831826 2034.5369231816953
1665.5114055714948 2038.150555594309
1666.2535508535748 1879.5291645926966
1666.9955164762814 1720.4581488465622
1667.7373024864555 1967.9978217219582
1668.478908930916 2027.0075586733867
1669.220335856462 1841.6583063966784
1669.9615833098778 1921.0335682895889
1670.7026513379296 1923.6681047870284
1671.44353998736 1976.1283682714807
1672.1842493048916 1993.8480719773888
1672.9247793372379 1847.1277439165854
1673.6651301310812 1967.062748574062
1674.4053017330934 1921.0671868742604
1675.1452941899242 1687.9083564754333
1675.885107548207 1896.3717418803076
1676.6247418545518 1739.3796273777818
1677.3641971555535 1880.1706250146185
1678.1034734977893 2019.6777377002738
1678.8425709278108 1834.0188906085245
1679.5814894921605 2023.0231397125103
1680.320229237359 1805.1633262792027
1681.0587902098978 2078.3930767689144
1681.7971724562685 1889.6336543874938
1682.5353760229264 1846.8561969664484
1683.2734009563173 2120.5166600327984
1684.0112473028657 1748.861693906163
1684.7489151089794 2075.538722831363
1685.4864044210462 2011.90928528904
1686.2237152854377 1681.5507648744679
1686.960847748498 2064.077121857694
1687.6978018565642 1808.7484372864208
1688.434577655944 1829.1619722046548
1689.1711751929379 1674.156605629451
1689.9075945138156 2004.5645309667118
1690.6438356648396 1875.615675437526
1691.3798986922448 1630.0190427143796
1692.1157836422499 1929.8450773337777
1692.851490561059 1897.8479190855353
1693.587019494853 1942.1957348443216
1694.3223704897991 1548.7916688731875
1695.0575435920364 1648.1965661291863
1695.792538847696 2049.2091767505317
1696.527356302886 1793.7682311635003
1697.2619960036936 1663.780743688442
1697.9964579961907 1717.97490189959
1698.730742326432 1513.2539600915773
1699.4648490404488 1639.238030303212
1700.1987781842563 1733.164932770646
1700.9325298038548 1935.7009801073632
1701.6661039452174 2010.1827231884556
1702.3995006543082 1847.8136438941867
1703.1327199770658 1899.7122147858965
1703.865761959416 1721.0524808124105
1704.598626647261 1965.0418193359505
1705.3313140864866 1668.5983101327333
1706.0638243229587 1709.0742081819462
1706.7961574025303 1878.6679243985461
1707.528313371029 1721.658290046798
1708.260292274268 1654.4097645199595
1708.9920941580403 1751.0196097459873
1709.7237190681226 1749.2793467562576
1710.4551670502697 1859.1618464908447
1711.18643815022 1622.546682547993
1711.9175324136959 1967.2243862732764
1712.6484498863938 1748.2007979492541
1713.379190614005 1620.9850822144842
1714.109754642188 1663.7017808767546
1714.8401420165883 1792.047507801577
1715.570352782839 1760.1228215021033
1716.3003869865497 1728.2139501295685
1717.0302446733076 1631.4736697016244
1717.7599258886876 1681.4104142676836
1718.4894306782444 1681.7778279882361
1719.2187590875183 1682.1116331578207
1719.9479111620203 1840.5172062875658
1720.6768869472544 1625.1219987708234
1721.4056864887025 1971.6977468580094
1722.1343098318284 1980.8981233532577
1722.8627570220742 1777.1030453397027
1723.591028104871 1663.7727469966126
1724.3191231256242 1560.7173844880451
1725.0470421297232 1667.9445836873479
1725.7747851625427 1765.4281059246737
1726.5023522694337 1829.768573403487
1727.2297434957363 1750.9211005837574
1727.9569588867635 1454.8386592520596
1728.6839984878152 1449.1533382961952
1729.4108623441734 1443.5272671835642
1730.1375505011038 1762.2949599349213
1730.8640630038426 1643.5223201837864
1731.5903998976264 1623.096874945416
1732.316561227657 1670.2172617963188
1733.0425470391274 1487.957305963508
1733.7683573772065 1703.7255626942929
1734.4939922870508 1667.0360074536468
1735.2194518137949 1783.0951652174385
1735.9447360025606 1771.39538671492
1736.669844898439 1623.8524254138017
1737.3947785465189 1544.5564900139157
1738.1195369918605 1476.431635265603
1738.8441202795093 1622.843946303255
1739.5685284544943 1780.0624762887776
1740.292761561821 1708.5382415431475
1741.0168196464838 1728.7433667940272
1741.7407027534518 1558.8894692674307
1742.464410927687 1746.9281733569255
1743.187944214118 1583.8392729380598
1743.9113026576688 1658.63662560193
1744.634486303241 1737.4914996832438
1745.3574951957125 1705.08602948389
1746.0803293799509 1748.937150847664
1746.8029889008048 1748.2783146007564
1747.5254738031017 1621.9821347757722
1748.2477841316504 1594.271952188146
1748.969919931249 1673.9209398072974
1749.6918812466665 1476.8088780318344
1750.4136681226646 1788.783965743201
1751.1352806039777 1647.9981465391343
1751.856718735331 1341.7053845453922
1752.5779825614281 1479.0976419310207
1753.2990721269507 1752.1505770242431
1754.0199874765676 1665.3978118912278
1754.7407286549314 1547.2448805967306
1755.4612957066693 1572.3066415794178
1756.1816886763954 1389.540925593744
1756.9019076087097 1724.5112543050486
1757.6219525481865 1624.115994248824
1758.3418235393856 1537.4794806571413
1759.061520626854 1609.5822900717749
1759.7810438551096 1812.5000688621126
1760.5003932686614 1490.3561074582792
1761.2195689119999 1704.3441098339038
1761.938570829594 1705.1780461817787
1762.657399065898 1730.4503879117524
1763.376053665348 1481.7184325054488
1764.0945346723602 1435.587258113203
1764.812842131334 1457.5461804926276
1765.5309760866512 1479.6401618103575
1766.2489365826787 1439.9966525522152
1766.9667236637597 1654.3485285609604
1767.684337374223 1486.2330376766904
1768.401777758383 1444.302105394702
1769.1190448605284 1441.110112341533
1769.836138724937 1448.254206864217
1770.5530593958665 1556.1645124248548
1771.2698069175603 1710.3698753802862
1771.9863813342326 1754.4088807465148
1772.702782690094 1480.9787895293857
1773.4190110293293 1719.0268298715669
1774.1350663961111 1655.236886056536
1774.8509488345844 1557.6769489557014
1775.5666583888924 1639.50357980551
1776.2821951031437 1622.2825267728624
1776.9975590214362 1509.049307780103
1777.7127501878585 1790.1565969077863
1778.4277686464684 1660.9476700619507
1779.1426144413108 1707.943076750568
1779.8572876164162 1639.6263054597143
1780.571788215797 1444.4476238304335
1781.2861162834415 1618.6165810393288
1782.0002718633277 1497.9616744172667
1782.7142549994132 1588.8226165632927
1783.4280657356376 1534.73209930238
1784.141704115922 1514.3271340778106
1784.855170184177 1520.4217306791538
1785.5684639842839 1603.1811500880654
1786.2815855601148 1350.4548954037807
1786.9945349555237 1723.608712263152
1787.707312214343 1545.953133829287
1788.4199173803918 1729.5525646423278
1789.132350497468 1450.4732244466002
1789.8446116093583 1534.7338696426561
1790.556700759822 1556.6948256258136
1791.2686179926077 1495.770378979095
1791.9803633514493 1445.3255869864752
1792.6919368800554 1418.4003232986279
1793.4033386221236 1589.7763906207163
1794.1145686213295 1701.00607450309
1794.8256269213307 1737.9897755155537
1795.536513565774 1746.3656031104188
1796.247228598284 1268.5628387783145
1796.9577720624693 1415.9711034171528
1797.6681440019165 1633.4979248526456
1798.3783444602013 1505.1870884979703
1799.0883734808776 1558.485330326609
1799.7982311074884 1652.167587165252
1800.5079173835475 1574.3927233259199
1801.2174323525633 1707.6584389877564
1801.9267760580187 1570.14779142541
1802.635948543386 1580.296983107379
1803.3449498521113 1363.825240625567
1804.0537800276325 1584.7722558744376
1804.7624391133668 1560.0829231084408
1805.47092715271 1375.4829817616628
1806.1792441890484 1477.519838111795
1806.8873902657433 1646.0984456907136
1807.5953654261448 1501.1486060704124
1808.3031697135812 1531.3051129039427
1809.0108031713662 1449.2668116831287
1809.71826584279 1536.7955359027287
1810.425557771141 1532.812350802885
1811.1326789996747 1495.8385264982794
1811.839629571632 1458.7400486725699
1812.5464095302468 1520.3371073255453
1813.2530189187182 1441.7741990914706
1813.959457780249 1453.2373279521755
1814.6657261580076 1604.1269283334836
1815.371824095153 1522.1057588384267
1816.0777516348262 1620.5486357733423
1816.78350882015 1220.8420123544643
1817.4890956942272 1387.082361924363
1818.1945123001533 1489.9345101063345
1818.8997586809928 1422.9371375906705
1819.6048348798067 1449.7095768884692
1820.3097409396287 1455.5265175860131
1821.0144769034796 1807.6973682871899
1821.7190428143622 1712.8599837986862
1822.423438715261 1556.562213861011
1823.1276646491478 1424.4126420936675
1823.8317206589727 1570.1453302151535
1824.5356067876692 1534.4146257060625
1825.2393230781581 1431.397574518424
1825.942869573335 1280.4020122225138
1826.646246316086 1362.2304216002194
1827.3494533492758 1537.449755207066
1828.052490715756 1586.6056451151976
1828.7553584583547 1553.3708457507664
1829.458056619891 1611.0565350503134
1830.1605852431585 1464.2585127875222
1830.8629443709433 1355.319393370772
1831.5651340460063 1443.5192849389155
1832.2671543110919 1304.2783114855956
1832.9690052089318 1587.5283157570616
1833.6706867822395 1256.8374871594401
1834.3721990737104 1525.4511697982898
1835.0735421260233 1550.40380073929
1835.774715981841 1407.295040449129
1836.4757206838058 1402.6856175919954
1837.1765562745459 1398.438764396738
1837.8772227966747 1297.2693632754067
1838.5777202927839 1392.8325182779508
1839.2780488054523 1434.5150569946618
1839.9782083772352 1402.1476015116873
1840.6781990506806 1425.8576864104512
1841.378020868313 1449.522634510596
1842.0776738726418 1499.2290793105035
1842.777158106157 1453.6066696486616
1843.4764736113375 1273.166345691617
1844.1756204306403 1456.9846401172595
1844.8745986065078 1459.3990899726007
1845.5734081813607 1368.534196403753
1846.2720491976124 1408.802627527763
1846.970521697649 1327.5145283620473
1847.6688257238511 1451.8674782888322
1848.3669613185684 1460.98835132732
1849.0649285241452 1225.8167393034037
1849.7627273829057 1436.105338979762
1850.460357937156 1483.3700661268877
1851.1578202291857 1244.8548268035597
1851.8551143012664 1374.4614749592351
1852.5522401956569 1495.6885159901956
1853.2491979545957 1609.4767299984
1853.9459876203055 1284.3680155752386
1854.6426092349902 1289.2511610582394
1855.3390628408451 1420.1878151836468
1856.0353484800362 1705.857902479119
1856.7314661947203 1482.6489069965778
1857.4274160270397 1300.6210862073526
1858.123198019115 1495.3536362426871
1858.8188122130487 1331.24244203246
1859.5142586509319 1393.7825273687831
1860.209537374838 1457.2769815280378
1860.9046484268183 1476.613136441351
1861.599591848917 1656.5592883936965
1862.294367683151 1367.6307185644905
1862.988975971528 1384.2742577526271
1863.6834167560355 1453.9954222534022
1864.3776900786452 1590.8419120407693
1865.0717959813119 1350.6351616875643
1865.7657345059724 1329.8121413580745
1866.4595056945564 1514.032364953982
1867.1531095889586 1485.5258773963465
1867.846546231076 1518.2000456039998
1868.5398156627743 1550.9751376823385
1869.2329179259123 1410.495510948579
1869.9258530623283 1529.115593006202
1870.618621113843 1328.7157952368132
1871.3112221222636 1252.5644038014582
1872.0036561293764 1394.9470761356883
1872.695923176956 1386.3359359878539
1873.3880233067594 1299.4122144387466
1874.0799565605212 1212.3631790085442
1874.7717229799673 1392.1298319520504
1875.4633226068036 1558.9782820519692
1876.1547554827175 1533.768200588489
1876.8460216493859 1316.0132325875345
1877.5371211484617 1431.980132438208
1878.2280540215852 1315.0540416214556
1878.9188203103804 1197.9203202295826
1879.6094200564548 1352.1210952474994
1880.299853301396 1269.8223628986589
1880.9901200867826 1350.6383226068062
1881.6802204541673 1431.560745276133
1882.3701544450942 1493.9197147820182
1883.059922101087 1244.231929398622
1883.7495234636517 1227.7513034376416
1884.4389585742792 1211.2273324826797
1885.1282274744517 1220.950546003271
1885.8173302056166 1300.6730806330493
1886.506266809225 1380.504033473778
1887.195037326701 1215.3749058553483
1887.8836417994517 1343.9881459958813
1888.5720802688702 1573.8492274369933
1889.260352776333 1589.3394509369837
1889.9484593632042 1512.658379008404
1890.63640007082 1295.191643444628
1891.3241749405151 1204.7589695448942
1892.0117840135954 1404.1330989523212
1892.6992273313572 1381.9462476882268
1893.3865049350788 1254.514310573531
1894.0736168660223 1343.2642194410737
1894.7605631654333 1432.1062585480959
1895.4473438745408 1503.8906532041397
1896.133959034556 1575.6967568098555
1896.820408686679 1383.5743292644636
1897.506692872088 1630.8905496506811
1898.192811631945 1432.1683134002856
1898.8787650073991 1310.0678933386819
1899.5645530395832 1480.9283991511825
1900.2501757696118 1518.1299177964243
1900.9356332385796 1604.404286975147
1901.620925487574 1348.7174832675419
1902.3060525576602 1443.8461916212098
1902.9910144898859 1367.1415896911265
1903.6758113252872 1330.3682107756836
1904.3604431048789 1591.1967228607157
1905.0449098696663 1520.0559441341807
1905.7292116606295 1352.0770655861697
1906.4133485187394 1361.7914603306963
1907.0973204849488 1136.5578907913687
1907.7811276001976 1241.1864777866622
1908.4647699053967 1438.5197651112553
1909.1482474414588 1512.397439921685
1909.8315602492694 1291.7022642928296
1910.5147083696957 1551.9316486463713
1911.1976918436012 1288.4222355033774
1911.880510711815 1284.8373251985636
1912.5631650151681 1465.3714365382498
1913.2456547944657 1222.214307739853
1913.927980090495 1376.1646032621918
1914.6101409440362 1365.1420281982723
1915.2921373958416 1440.004593504659
1915.9739694866603 1395.7776365933858
1916.655637257214 1562.3840379546768
1917.3371407482136 1430.283581671042
1918.0184800003572 1594.3864806847996
1918.6996550543154 1589.9829745671882
1919.3806659507554 1377.7219021332874
1920.0615127303208 1408.294685049757
1920.7421954336423 1541.9225898682803
1921.4227141013343 1700.7313027835135
1922.103068773993 1534.278102736659
1922.783259492202 1531.386514000184
1923.4632862965227 1355.4238077871562
1924.1431492275078 1387.9368669807009
1924.8228483256917 1268.6523853838241
1925.5023836315922 1314.3421389177129
1926.1817551857057 1469.3575112163444
1926.8609630285227 1286.9905820492843
1927.5400072005123 1482.082502525066
1928.218887742125 1478.74521395932
1928.8976046938005 1474.0895366480486
1929.5761580959588 1469.5238902846138
1930.2545479890086 1342.549091707901
1930.9327744133352 1228.5103952927673
1931.6108374093164 1333.460414691865
1932.2887370173066 1281.8179043591422
1932.9664732776473 1230.023816836117
1933.6440462306673 1469.3370351596118
1934.3214559166754 1380.2004921193095
1934.9987023759659 1632.3997397286946
1935.675785648813 1507.1791310970307
1936.3527057754836 1540.036374738851
1937.029462796223 1572.979084455568
1937.70605675126 1424.5461186155621
1938.3824876808085 1250.1426219992825
1939.058755625072 1399.1567916356846
1939.7348606242267 1293.0253466157571
1940.4108027184448 1332.6952665234044
1941.0865819478713 1571.2158821545545
1941.7621983526478 1315.673338365097
1942.4376519728921 1214.6909945249517
1943.1129428487038 1358.9234162301057
1943.7880710201734 1629.1931693491374
1944.4630365273733 1375.3352310802838
1945.1378394103576 1248.8307300594392
1945.8124797091714 1172.0957615548728
1946.4869574638324 1095.1674535581317
1947.161272714353 1256.3535477990727
1947.8354255007234 1419.7409561035188
1948.5094158629272 1292.4791956848483
1949.1832438409183 1352.6506120841536
1949.8569094746435 1532.98985634998
1950.530412804037 1562.4649180078345
1951.2037538690092 1383.4411213395763
1951.8769327094578 1403.103170010141
1952.5499493652678 1300.3327518052188
1953.222803876306 1453.0927201050868
1953.895496282421 1382.1906908012184
1954.5680266234522 1323.7712835902466
1955.2403949392155 1357.7960520856673
1955.9126012695142 1243.5968392684479
1956.5846456541403 1381.9730290914972
1957.2565281328643 1250.0732681331733
1957.9282487454457 1381.8525959518638
1958.5998075316202 1309.025661229804
1959.27120453112 1236.1448683930985
1959.9424397836501 1271.404440425848
1960.613513328908 1441.0131919117214
1961.2844252065697 1519.6602578711627
1961.9551754563017 1191.9805629507578
1962.6257641177453 1203.6594350751416
1963.29619123054 1150.414889886149
1963.966456834296 1266.2329137298711
1964.6365609686181 1124.268914918012
1965.306503673086 1380.9493344791422
1965.976284987275 1390.555200406768
1966.645904950734 1295.633453493324
1967.315363603002 1157.1766630465463
1967.9846609836077 1305.6770329092296
1968.6537971320486 1208.446898867804
1969.3227720878222 1312.528889046162
1969.9915858904042 1393.9363978899773
1970.660238579252 1387.4864567510413
1971.3287301938108 1279.3065656563797
1971.997060773514 1184.9982951940215
1972.665230357772 1242.1304849510102
1973.3332389859843 1207.3868589770075
1974.0010866975335 1144.9470762301044
1974.6687735317864 1381.0329865365554
1975.3362995280932 1445.7734907183808
1976.003664725793 1370.4590638878021
1976.6708691642052 1322.7726698061283
1977.3379128826364 1274.9116951477185
1978.004795920373 1445.9507964989357
1978.6715183166925 1486.6275684143754
1979.3380801108524 1206.3767836662305
1980.0044813420973 1279.9082595466862
1980.6707220496555 1044.2097653650576
1981.3368022727373 1306.655526165765
1982.0027220505417 1387.6899105173904
1982.66848142225 1292.8843929495729
1983.3340804270283 1197.985582206315
1983.999519104027 1253.315249003525
1984.6647974923835 1462.3028637883217
1985.329915631215 1477.8328426752698
1985.99487355963 1271.1429846944986
1986.6596713167146 1383.0286815232002
1987.3243089415428 1205.9686486016724
1987.9887864731754 1513.486171119157
1988.6531039506553 1126.3032194023563
1989.3172614130071 1197.4516974950666
1989.9812588992481 1268.7418641325487
1990.645096448372 1042.2494120257645
1991.3087740993633 1295.3230871924648
1991.9722918911848 1298.5430903242618
1992.635649862792 1303.8130686555792
1993.2988480531185 1328.412057470145
1993.9618865010852 1309.905775560975
1994.6247652455968 1291.4202175257633
1995.287484325545 1249.0255882375932
1995.9500437798033 1203.5385147660386
1996.6124436472292 1269.2758727716423
1997.2746839666706 1245.2480697524602
1997.936764776954 1221.1735866194
1998.598686116895 1170.3859368209228
1999.2604480252903 1601.5944436410684
1999.9220505409212 1498.6688055916
2000.5834937025593 1156.9035798030495
2001.2447775489582 1360.833225454961
2001.9059021188514 1219.9548527345214
2002.5668674509616 1289.0465991530377
2003.2276735839987 1289.009519565909
2003.8883205566508 1443.776056666017
2004.5488084075987 1256.7014339388493
2005.2091371755014 1366.1300767800792
2005.8693068990033 1072.2310465751666
2006.5293176167397 1120.2131210193343
2007.1891693673224 1168.3780744816345
2007.848862189354 1177.832662329079
2008.5083961214223 1189.4862923902845
2009.1677712020955 1171.0968040229968
2009.8269874699254 1065.29037805248
2010.4860449634598 1086.9805222814425
2011.1449437212177 1108.7916006922483
2011.8036837817108 1475.138790781117
2012.4622651834325 1294.0891874893932
2013.1206879648653 1410.2904563625668
2013.7789521644736 1503.7787107028962
2014.4370578207036 1412.4897749126008
2015.0950049719922 1320.9042189192887
2015.7527936567585 1373.505114921456
2016.4104239134067 1226.5824590430473
2017.067895780323 1565.765776969011
2017.725209295886 1540.4213820945017
2018.3823644984514 1514.968911475188
2019.0393614263648 1295.0417948842337
2019.6962001179545 1346.781491172467
2020.3528806115355 1435.9335995939753
2021.0094029454067 1404.8227217319024
2021.6657671578487 1360.8355447724339
2022.321973287133 1316.771949887383
2022.9780213715148 1159.1125721746535
2023.6339114492293 1292.8086685340952
2024.2896435585026 1258.3246725106321
2024.9452177375442 1151.6956905975821
2025.600634024544 1485.6278685674229
2026.2558924576842 1369.3904946290434
2026.9109930751292 1487.4812400229412
2027.565935915025 1546.3853005680453
2028.2207210155066 1605.4727486544548
2028.8753484146964 1603.839656715186
2029.529818150695 1538.4323539262393
2030.1841302615903 1472.7136438088285
2030.8382847854573 1291.4231749549426
2031.4922817603601 1273.5480015067774
2032.1461212243357 1368.2879489973525
2032.7998032154192 1117.669520349095
2033.4533277716218 1243.968886481864
2034.1066949309443 1112.178629539334
2034.7599047313688 1053.7322917550825
2035.4129572108704 1142.5943094765148
2036.0658524074006 1231.5624336509566
2036.7185903589016 1265.569983995969
2037.3711711032956 1384.6252973409396
2038.023594678496 1266.6189991095573
2038.675861122394 1137.4660013972994
2039.3279704728757 1409.7644350038993
2039.9799227678031 1224.2419870425767
2040.6317180450278 1204.7044488969477
2041.2833563423865 1293.9805708492247
2041.9348376977014 1542.4745975198766
2042.5861621487784 1433.0568527816047
2043.2373297334088 1201.7864434386208
2043.8883404893695 1458.6009136865941
2044.5391944544208 1324.8981509766536
2045.1898916663158 1395.3807182138037
2045.8404321627804 1266.7096871335564
2046.4908159815368 1137.7322995112377
2047.1410431602853 1073.4655291519853
2047.7911137367173 1155.883012426917
2048.441027748504 1134.0354350152654
2049.090785233302 1112.124427097609
2049.7403862287592 1059.8667234448526
2050.389830772503 1111.4445381529565
2051.0391189021466 1163.1022295996158
2051.688250655294 1275.0094345188193
2052.337226069527 1240.9063841573027
2052.986045182417 1374.5644380696554
2053.634708031521 1024.1770824463704
2054.283214654375 1363.228206563407
2054.931565088511 1011.2535849578131
2055.579759371436 1032.4636071358705
2056.2277975406523 1187.0266520435139
2056.8756796336384 1069.7033840963802
2057.5234056878617 952.0851577870975
2058.1709757407752 1207.2920963892336
2058.8183898298194 1511.2370496447436
2059.465647992416 1260.059999665748
2060.1127502659747 1405.2650408283037
2060.759696687888 1094.9228963780247
2061.4064872955405 1255.9748500375956
2062.053122126292 1036.273790823764
2062.699601217497 1354.4997986959497
2063.345924606485 1166.0602761161376
2063.992092330587 1293.505730754274
2064.638104427102 1280.3789786081186
2065.283960933324 1468.2218401972889
2065.92966188653 1288.2497866815534
2066.5752073239855 1194.4918425377311
2067.2205972829397 1420.656878174145
2067.86583180062 1303.5788366280005
2068.5109109142522 1117.5761589835124
2069.15583466104 1137.4464760353305
2069.8006030781708 1157.336443123357
2070.445216202821 1103.1814149577172
2071.089674072153 1430.8245705300428
2071.7339767233116 1404.1047721637574
2072.3781241934303 1359.1170409787467
2073.0221165196253 1292.4273041896554
2073.6659537390024 1302.2337369610075
2074.3096358886505 1312.100608801104
2074.953163005637 1185.9688594845375
2075.596535127028 1028.8235425830649
2076.2397522898664 1087.8684874973133
2076.882814531182 1161.885425077648
2077.5257218879924 1305.9190968302748
2078.1684743973 1065.873321748369
2078.8110720960885 1011.4431252629527
2079.453515021336 1132.6329008517578
2080.095803209997 1253.9328139358918
2080.7379366990135 1300.5951407803495
2081.37991552532 1331.1685819685704
2082.0217397258275 1422.75169324401
2082.6634093374414 1343.4553905493979
2083.3049243970418 1264.129482213909
2083.9462849415067 1253.3876342997612
2084.587491007689 1271.5713553976905
2085.2285426324324 1202.1371098655711
2085.869439852564 1278.2498802918863
2086.510182704902 1118.6092436541794
2087.1507712262483 1149.6810312031098
2087.791205453381 1263.6159888634543
2088.4314854230743 1377.7147255307686
2089.0716111720867 1246.5580125951442
2089.7115827371617 1003.7059247354273
2090.351400155023 1047.5795462585736
2090.991063462385 1091.5844036911965
2091.6305726959527 1008.7980764950855
2092.2699278924047 1276.7865726234738
2092.9091290884153 1203.4562624280402
2093.548176320641 947.7479075785881
2094.187069625721 1263.3926852227914
2094.8258090402887 1022.4192240472614
2095.464394600951 1106.7633041963447
2096.102826344313 1241.7518529640947
2096.741104306955 1128.5974267390116
2097.379228525453 1015.1934842397793
2098.017199036358 951.5702155564874
2098.6550158762147 1429.9609095427522
2099.2926790815527 1431.524716762518
2099.9301886888825 1337.3924330078414
2100.5675447347076 1133.0728655443195
2101.2047472555114 1304.7258192972067
2101.841796287761 1124.8153242917517
2102.47869186792 1241.0804391643412
2103.1154340324265 1054.7968298116195
2103.752022817709 1132.0288575491497
2104.388458260184 1098.7586513582137
2105.024740396251 1277.4996386978066
2105.660869262292 1085.7090150905872
2106.296844894685 1412.9451435226313
2106.93266732978 1228.0952693335594
2107.5683366039284 1002.1428274919781
2108.2038527534532 1273.0069536592366
2108.8392158146726 1315.3837675788739
2109.4744258238843 1183.6877125751162
2110.1094828173755 1203.244277962637
2110.744386831422 1252.9839727348085
2111.3791379022787 1302.8739656239118
2112.01373606619 1310.6394483968938
2112.648181359389 1325.6751786338218
2113.28247381809 1314.0849825382338
2113.916613478492 1226.034778142442
2114.550600376786 1381.6916585428366
2115.1844345491445 1169.4095778921653
2115.818116031729 1059.9894208814585
2116.451644860679 1221.8630195567684
2117.085021072133 1156.636561318172
2117.718244702204 1091.2246523400186
2118.3513157869984 1064.1100797046117
2118.984234362604 1043.010463467809
2119.617000465092 1100.131473154469
2120.249614130529 1149.9719952849543
2120.8820753949585 1199.8931698427773
2121.5143842944162 1102.775483549822
2122.14654086492 1103.7585579284598
2122.7785451424734 1322.3198144436687
2123.4103971630702 1269.662776759383
2124.042096962681 1217.0229835428386
2124.6736445772767 1375.221310987727
2125.305040042802 1070.8668505718956
2125.936283395191 1228.1186010669041
2126.567374670365 1263.1566046958565
2127.198313904233 1168.0104102062817
2127.8291011326855 1091.119520269966
2128.4597363916037 1013.9380967303605
2129.0902197168507 1304.508712851807
2129.720551144279 1362.142639217305
2130.3507307097225 1419.7599882962065
2130.980758449008 1404.4742637917898
2131.6106343979427 1170.9282857888315
2132.2403585923203 1397.324478924023
2132.8699310679276 1492.8694226586915
2133.499351860526 1276.3418861949863
2134.1286210058715 1225.7460801130246
2134.7577385397053 1302.6141784382664
2135.3867044977487 1379.6251780693242
2136.0155189157176 1454.3089075614585
2136.644181829308 1321.3291415737608
2137.2726932742025 1249.6398950758548
2137.901053286074 1139.6565223489094
2138.5292619005777 1029.5403103524864
2139.1573191533535 1079.437990323239
2139.7852250800315 1236.3269464763446
2140.4129797162295 1260.120025880257
2141.0405830975433 1110.135368154301
2141.6680352595613 1048.1452162565142
2142.2953362378576 986.0482174132803
2142.9224860679915 1128.506125937496
2143.549484785508 1140.9917043313383
2144.1763324259373 1191.4694627352549
2144.803029024799 1127.9768515744167
2145.429574617594 1144.2057757955458
2146.0559692398165 1254.3068797590654
2146.682212926942 1139.6586920146951
2147.308305714432 1296.7555645076902
2147.9342476377333 1336.9715800509257
2148.5600387322847 1439.5554944549633
2149.185679033506 1502.8183425446023
2149.8111685768017 1135.5897697617306
2150.4365073975678 1029.3396377316903
2151.061695531187 1201.2449849726038
2151.686733013021 1451.5045379238366
2152.311619878423 1227.9359503560972
2152.9363561627342 1215.1366476406224
2153.560941901278 1225.3294766861209
2154.1853771293663 1235.4343420235477
2154.809661882293 1269.7960188382326
2155.433796195348 1613.590914258656
2156.0577801037944 1512.2950877537014
2156.681613642895 1410.7469758685045
2157.3052968478896 1182.3392854291933
2157.928829754006 1172.4799047796716
2158.552212396462 1196.1182707367211
2159.1754448104566 1183.804177464825
2159.7985270311783 1053.0487998119884
2160.4214590938027 732.6982122634965
2161.0442410334927 871.3355501515477
2161.6668728853874 953.4435320992336
2162.289354684628 1035.7385378842848
2162.911686466332 1067.7370854082242
2163.533868265602 1261.6489198012841
2164.1559001175337 1479.1850004118612
2164.7777820572046 1372.7307047547586
2165.399514119681 1090.803351516219
2166.021096340013 1138.41937499758
2166.6425287532384 1440.9781255876046
2167.263811394385 1041.3962705573688
2167.8849442984574 991.5721994385573
2168.505927500455 941.7517414519192
2169.126761035366 1260.0521645100168
2169.7474449381552 1090.4055473099431
2170.367979243778 945.2675270980499
2170.9883639871823 1348.9093105616341
2171.608599203293 1047.611396959893
2172.2286849270276 1455.1225164086425
2172.8486211932886 1672.8715883203906
2173.4684080369625 1294.2417795036686
2174.0880454929265 925.1528215435553
2174.7075335960417 798.17398827359
2175.3268723811543 856.7018389823503
2175.9460618831 915.3892444482244
2176.565102136701 1163.1959912774996
2177.1839931767627 1162.7311235991401
2177.802735038078 1162.2817272317195
2178.421327755432 1085.2830319407713
2179.0397713635866 1141.3573106838792
2179.658065897298 1193.5308089015466
2180.276211391305 1218.3816831274073
2180.8942078803357 1243.2295839657627
2181.5120553991 1169.63563185631
2182.129753982299 1000.6442799770499
2182.7473036646206 1176.276339057775
2183.3647044807367 1108.411733480299
2183.9819564653044 1040.4310237418576
2184.599059652968 1210.0988774867105
2185.216014078367 1254.756527930574
2185.832819776113 1354.1893548487392
2186.4494767808137 1453.7807238098308
2187.065985127063 1226.6008256613732
2187.682344849436 1006.9652280419472
2188.298555982501 1315.6783451710094
2188.9146185608097 1176.981586639557
2189.530532618901 1316.467954564889
2190.1462981912937 1293.063958220767
2190.761915312507 1264.220742201873
2191.377384017036 1114.1922378833854
2191.9927043393654 1202.4583646107562
2192.6078763139667 1340.0548840894091
2193.2228999753006 1477.9593027956325
2193.837775357808 1193.7567786085804
2194.452502495922 954.1332895604403
2195.0670814240602 1101.674902449188
2195.6815121766285 902.5923744994172
2196.2957947880186 951.5412278654655
2196.9099292926057 1000.5922065765475
2197.523915724758 1216.1809351214208
2198.137754118825 1159.644844434884
2198.7514445091456 1420.054721155812
2199.3649869300443 1499.64782196995
2199.9783814158327 1579.489803000759
2200.5916280008096 1386.3800130826232
2201.2047267192593 1255.148956228581
2201.8176776054515 1183.2347100079237
2202.430480693649 993.1289404336139
2203.0431360180955 1191.8325868601087
2203.6556436130195 1007.5521817002788
2204.268003512645 822.8134118292468
2204.8802157511727 1044.525323466818
2205.492280362796 1143.8920358517285
2206.1041973816937 1243.5765360116895
2206.715966842032 1206.1446355663325
2207.3275887779655 1207.8574896217137
2207.93906322363 1290.9997038289696
2208.550390213153 1333.3454586794003
2209.1615697806465 1403.7368288667049
2209.7726019602105 1290.714812813806
2210.3834867859277 981.1436523027912
2210.9942242918787 1098.8859729772066
2211.6048145121167 1103.6298000338275
2212.2152574806914 1799.3990254191467
2212.825553231638 1064.9734273183142
2213.435701798975 1758.6208094899187
2214.045703216707 1269.9562916941024
2214.655557518832 870.0444758884521
2215.2652647393297 1036.692250531963
2215.874824912169 878.8220112144157
2216.4842380713 1031.8667735418671
2217.09350425067 960.5910927442561
2217.7026234842033 1292.2669327418382
2218.311595805819 1349.5130690337533
2218.9204212494133 1205.4974956046535
2219.52909984888 1316.9445509282552
2220.137631638092 943.4149294979345
2220.7460166509154 908.5496369861128
2221.354254921198 873.5730514555928
2221.9623464827764 1270.4994402440052
2222.5702913694713 1135.2078752711043
2223.178089615096 1557.555292548026
2223.7857412534486 1212.1606872216823
2224.39324631831 1259.3797423774101
2225.000604843457 1306.6540249699292
2225.607816862641 1293.346296115509
2226.214882409611 1161.5150112896936
2226.8218015180973 1145.747767882525
2227.4285742218217 1129.8694273782055
2228.0352005544864 1066.870555372686
2228.6416805497847 1125.3724192694947
2229.248014241399 1183.9097349524561
2229.8542016629945 1100.468459773243
2230.460242848223 1163.4284140106915
2231.0661378307304 1141.6088947845533
2231.671886644139 1119.7957831420445
2232.277489322065 1028.9685511556231
2232.8829458981127 862.4443647785023
2233.48825640587 1075.3874978160695
2234.0934208789095 1237.6669504774327
2234.6984393507955 1400.1818810091459
2235.3033118550793 1221.8671330500106
2235.9080384252975 1071.054887530363
2236.5126190949723 997.4269609704415
2237.1170538976166 849.202534565297
2237.721342866729 849.8961069351448
2238.32548603579 945.7120895882839
2238.9294834382763 1150.050897463219
2239.533335107646 1291.6746692386723
2240.1370410773434 1134.2649396636764
2240.740601380803 1008.9012077352809
2241.3440160514474 1178.657229717711
2241.9472851226783 1254.6022906424935
2242.550408627896 1196.778119880029
2243.1533866004793 1134.4584839123415
2243.756219073799 1072.0514248114682
2244.3589060812064 1002.1721688485816
2244.961447656049 1070.2600491349453
2245.5638438316564 1138.4958307618913
2246.166094641343 1306.754577319083
2246.7682001184166 1241.3835961458722
2247.3701602961664 1175.9034240492467
2247.971975207871 1294.2922505587767
2248.5736448867974 1234.6521143137152
2249.175169366197 1174.8472208444146
2249.7765486793123 1288.9603658299989
2250.3777828593684 1382.3290813720282
2250.9788719395783 1259.6591372907292
2251.579815953146 1256.0471202663184
2252.1806149332606 1040.473531547758
2252.781268913097 1172.5101032730768
2253.381777925817 1250.9090994582211
2253.9821420045737 1329.406604734012
2254.5823611825035 1126.7935846232824
2255.1824354927303 1401.449500347236
2255.782364968365 1132.777151198542
2256.38214964251 1222.0165875560942
2256.9817895482483 955.9130890309822
2257.5812847186553 1049.7317088240472
2258.180635186791 1094.154625096339
2258.779840985704 962.7532531122051
2259.37890214843 1029.8145482774485
2259.97781870799 1158.0181278647458
2260.5765906973957 1286.460462518496
2261.175218149645 1231.775903248979
2261.773701097718 1312.9090372246922
2262.3720395745895 1055.5315057319733
2262.970233613216 1209.20047838897
2263.568283246548 1225.2852904098731
2264.1661885075137 964.0591241826849
2264.763949429038 1023.8785084922231
2265.3615660440246 1325.0229180192764
2265.959038385374 1087.558347454794
2266.5563664859637 1057.9558613587749
2267.153550378669 1028.359632896137
2267.7505900963424 1283.3890078069862
2268.3474856718312 1158.1203145931472
2268.9442371379664 1067.7632646170503
2269.5408445275643 1058.1789838181696
2270.1373078734377 1155.5685128274486
2270.7336272083758 1032.898368558768
2271.32980256516 981.9284442604321
2271.925833976562 1145.4265001701108
2272.5217214753357 1362.9365724011593
2273.117465094223 1355.074021326005
2273.7130648659586 1035.0798207964913
2274.308520823257 1045.3247495540302
2274.903832998827 1254.303337596338
2275.4990014253563 1122.9109045697496
2276.094026135528 1318.4451136154298
2276.6889071620117 1331.239105804975
2277.2836445374614 1343.9955587196484
2277.878238294519 1236.774819182236
2278.472688465812 1043.37846534425
2279.066995083962 1458.7096203121253
2279.6611581815705 1194.5733054456446
2280.255177791232 1068.2007450722454
2280.8490539455233 1211.173156688174
2281.442786677013 1354.454663366972
2282.0363760182554 1321.4720651162133
2282.6298220017943 1034.629961079289
2283.223124660155 1512.8494644461978
2283.816284025859 1119.6057455647906
2284.4093001314086 1053.69871629802
2285.002173009292 987.6603373982962
2285.5949026919952 1350.6729304940966
2286.1874892119777 986.8286383304496
2286.7799326016993 1176.3286744716106
2287.3722328936 1028.258007804564
2287.964390120109 750.8114430174046
2288.556404313642 1066.4227860914348
2289.1482755066027 1393.5538313680702
2289.7400037313873 1147.0495266018736
2290.3315890203703 1024.8289820751959
2290.9230314059205 1132.27531578764
2291.5143309203904 1239.9310698932597
2292.1054875961236 1250.5101763626822
2292.6965014654506 1310.283498692804
2293.287372560684 986.5657217210004
2293.878100914131 986.0150092100305
2294.468686558086 985.4948696194148
2295.059129524827 1137.6907152552988
2295.649429846617 1096.739223376486
2296.239587555716 1055.6678342403561
2296.8296026843636 1308.8584744390469
2297.419475264791 1156.784048604185
2298.0092053292137 1004.3545977813085
2298.598792909839 1163.5945902599074
2299.1882380388597 1182.1063849768843
2299.777540748455 1197.3612266750267
2300.3667010707904 1212.5599523491985
2300.9557190380256 1235.7306183117294
2301.544594682302 1047.793590935723
2302.1333280357503 859.6381147107707
2302.721919130485 1167.0330565456366
2303.3103679986198 1473.245919723026
2303.898674672242 1390.6130109923572
2304.486839183437 1224.2801851651438
2305.0748615642697 1057.7990633691293
2305.6627418468015 1178.3047399079646
2306.2504800630704 937.3107906325771
2306.8380762451143 1184.1966351205199
2307.425530424949 1257.6069941992857
2308.012842634582 1331.176052086075
2308.6000129060103 1533.9106785890074
2309.187041271214 1482.0480974964923
2309.773927762164 1287.7742464991134
2310.3606724108213 1093.0777630412854
2310.9472752491274 1006.3620492928058
2311.5337363090184 1008.4215104296272
2312.120055622414 1010.4937571345172
2312.706233221221 1173.7670350379237
2313.2922691373424 1352.1798058427605
2313.8781634026564 1020.8143433510677
2314.463916049037 1155.0971960917273
2315.049527108342 1251.8632215321966
2315.6349966124235 1510.1843644279088
2316.2203245931123 1332.2710841920477
2316.8055110822315 983.9417774176142
2317.3905561115935 965.2193502479064
2317.9754597129977 1007.6420285221614
2318.560221918229 994.6995458232916
2319.1448427590603 981.7493640772664
2319.729322267256 941.4230071967817
2320.313660474563 886.0918203808191
2320.8978574127195 1120.1775554003095
2321.481913113452 1354.9386108202616
2322.0658276084705 928.0446384598497
2322.6496009294806 1088.0807992086984
2323.233233108165 1152.3721719000828
2323.8167241762058 1216.8241979622649
2324.4000741652617 1139.6320702414453
2324.983283106987 1356.1469798587993
2325.5663510330232 1277.0469599508656
2326.1492779749933 1197.6156801228249
2326.7320639645204 1257.7608389125867
2327.3147090332004 1064.8237877213069
2327.897213212629 1166.8820541489945
2328.4795765343843 1268.9920387104544
2329.0617990300307 938.491484932288
2329.643880731124 1331.4573779718414
2330.22582166921 912.6403349903754
2330.807621875816 810.0104752539042
2331.3892813824623 707.2860482496635
2331.9708002206517 1013.3312961922178
2332.5521784218818 1362.4840238134434
2333.133416017634 1081.6732215860588
2333.7145130393765 951.7716829236067
2334.295469518571 1320.798824267433
2334.876285486658 1497.9140333277358
2335.456960975076 1455.1794562407038
2336.037496015242 1412.3745605886925
2336.6178906385667 1153.8707871269426
2337.198144876451 1383.0926648024974
2337.778258760278 1118.8385746870183
2338.3582323214214 1236.0734874757031
2338.938065591243 1353.5498496801645
2339.517758601087 1422.1944585566466
2340.0973113822965 1325.5132904911513
2340.676723966193 1263.0778186076536
2341.255996384094 1283.364562828078
2341.835128667295 1514.5542033130343
2342.4141208470883 1348.2632807572197
2342.992972954751 1216.2778446136601
2343.5716850215467 1250.4493439323755
2344.1502570787306 722.3724877417546
2344.7286891575386 957.5490603080036
2345.3069812892045 1332.1716926481445
2345.885133504944 1366.2908121326768
2346.4631458359618 1053.8629307277727
2347.04101831345 1068.500118729416
2347.6187509685915 1226.0761897685632
2348.196343832553 1022.7115113942085
2348.7737969364935 1272.9474420563326
2349.351110311558 1067.6421594613157
2349.9282839888765 1012.4154382846906
2350.5053179995757 899.4416611560421
2351.0822123747585 994.6406481570597
2351.658967145526 984.936417967252
2352.2355823429643 975.2734477387206
2352.812057998144 1246.4341170562138
2353.3883941421263 1087.7997985103377
2353.9645908059647 1050.2283154384597
2354.540648020693 1012.6199599929281
2355.116565817336 899.1791564091233
2355.6923442269126 1026.310220171677
2356.2679832804224 1153.7146951567534
2356.8434830088518 1107.216118747142
2357.41884344318 1211.0103867088883
2357.994064614377 1295.4727630765624
