#exp_cfg={"servo_angle": 0.0, "laser_lim": 100.0, "servo_angle_to": 18.0, "laser_wup": 0.0, "bt_dev": "EnSpectr-25AE3", "laser_wdn_max": 0.0, "frames": 10.0, "servo_used": 0, "servo_calib_use": 0, "laser_wdn_min": 0.0, "servo_pix_from": 90.0, "cooler_tout": 300.0, "servo_angle_from": 0.0, "servo_calib": "[-1.9174921013161362e-09, 3.9322238269163779e-05, -0.27385609119055809, 653.59552119713567]", "laser_autoctl": 0, "servo_pix_to": 3682.0, "laser_pw": 100.0, "cooler_on": 0, "laser_volt": 4.0, "cooler_autoctl": 0, "cooler_curr": 70.0, "cooler_startup": 10.0, "laser_fixed_pw": 0, "gain": 1.3, "offset": 2.53059635486, "servo_calib_degree": 3.0, "laser_curr": 55.0, "shutter": 8200.0, "servo_calib_step": 1.0, "laser_fixed_curr": 0, "exp": 2000.0, "ccd_volt": 4.7, "bt_addr": "00:06:66:62:5A:E3", "servo_delay": 500.0, "laser_autooff": 1}
#proc_cfg={"flat_auto_wnd": 200.0, "flat_auto_fr": 200.0, "flat_auto_shift": 5.0, "yconv": 1, "flatten": 1, "flatten_strength": 100.0, "xfrom": 300.0, "auto_max_frame": 2000.0, "auto_signal": 48000.0, "flat_auto_tol": 0.1, "autoclip": 1, "xrel_range": 0.0, "flat_auto_to": 4000.0, "intensity_adj": 1.0, "xrel": 7852.0, "rmhot": 1, "flat_auto_slit": 4.999999999999997, "auto_ini_exp": 300.0, "auto_off": 0, "xto": 2860.0, "flat_auto_ref": "", "flat_auto_rank": 1, "autobackg": 0, "xrel_adj": 0.0, "auto_black_lvl": 1, "base_wnd": 100.0, "sub_baseline": 0, "xconv": 2, "auto_max_exp": 1000.0, "auto_total_exp": 10000.0, "auto_exp": 0, "rmripple": 0, "black_lvl": 8257.275, "shutter_clip_adj": 0.0, "auto_bckg": 0, "flat_auto_thr": 0.9, "subbackg": 1}
316.8218498245369 14931.795795684942
317.89969571804795 14760.150850565498
318.977263876126 14845.292028103164
320.05455438786703 14715.1439769914
321.1315673423287 14679.91689135299
322.2083028285215 14707.275098162692
323.2847609354267 14649.177373245304
324.3609417519747 14666.555039554325
325.43684536705587 14660.360478158134
326.5124718695279 14665.815432884014
327.58782134820103 14553.331820462428
328.66289389184385 14637.950112777184
329.7376895891921 14454.33913029547
330.8122085289342 14464.761473845336
331.88645079971866 14413.48852692477
332.9604164901575 14419.950265303623
334.03410568881554 14300.77264308996
335.1075184842266 14484.595368878221
336.18065496487543 14269.544607191958
337.2535152192122 14308.111539706782
338.32609933564163 14300.39258004232
339.39840740253203 14254.441419960762
340.4704395082099 14269.778192635995
341.5421957409617 14182.154370268845
342.6136761890357 14255.829597466096
343.6848809406365 14083.76483399502
344.75581008392874 14066.526951919319
345.82646370703696 14088.81850678497
346.8968418980512 14040.903698403237
347.96694474501055 14053.044544522756
349.0367723359268 14066.511318539555
350.106324758759 14077.892564796528
351.1756021014353 13872.177967624812
352.2446044518383 13914.65469563849
353.31333189781435 14028.677187874793
354.38178452716966 13820.52373656398
355.449962427665 13906.029666665116
356.51786568702846 13706.151024048948
357.58549439294256 13854.733853060106
358.6528486330535 13789.087411689714
359.71992849496564 13745.668394948461
360.7867340662433 13788.65648519142
361.8532654344144 13707.510402674996
362.9195226869597 13774.94631084858
363.9855059113288 13632.228164883656
365.05121519492604 13614.076910424734
366.11665062511565 13650.940680150443
367.1818122892273 13611.904639969749
368.2467002745434 13570.143060739403
369.31131466831175 13503.301155611396
370.375655557742 13526.424971118307
371.4397230299983 13528.819680925168
372.5035171722102 13453.687456213022
373.5670380714637 13353.631884789478
374.6302858148101 13529.950369859065
375.6932604892554 13481.945157201757
376.7559621817709 13446.240809004283
377.81839097928605 13292.184874027214
378.8805469686886 13387.596621142744
379.94243023683157 13387.962502558026
381.0040408705263 13249.437473520718
382.0653789565458 13166.131898830343
383.1264445816196 13306.48141456248
384.1872378324406 13276.898689712156
385.2477587956637 13175.8508624685
386.3080075579037 13092.263760604497
387.3679842057336 13051.957350059318
388.4276888256918 13131.783268452438
389.48712150426945 13049.106026236108
390.54628232792857 13054.32959636793
391.6051713830857 12951.277969205637
392.66378875611736 12983.753969292844
393.7221345333637 12924.767009245537
394.7802088011249 12914.192950999539
395.838011645661 12957.858218695706
396.89554315319765 12863.377636167505
397.9528034099112 12807.819971098952
399.00979250194723 12712.265568776163
400.06651051541485 12681.602368360893
401.1229575363741 12784.299522611751
402.17913365085224 12688.136600171672
403.23503894483656 12712.494553181923
404.2906735042761 12665.650192364998
405.3460374150818 12585.38957093739
406.401130763119 12577.916909214779
407.455953634224 12616.088944349356
408.5105061141876 12541.09763100425
409.56478828876243 12441.428782114606
410.6188002436629 12563.500656375305
411.6725420645689 12507.501344570206
412.72601383711117 12493.619605264601
413.77921564689314 12558.209499972303
414.8321475794728 12443.689356780913
415.88480972036814 12369.693382909853
416.93720215506437 12398.898231982224
417.9893249690049 12343.572801218186
419.04117824759123 12268.681929913451
420.09276207619223 12239.090406502612
421.144076540133 12206.1434342888
422.1951217247042 12243.07826331681
423.24589771515275 12219.807985004292
424.2964045966928 12190.814134481061
425.34664245449494 12179.07321993189
426.3966113736933 12126.977437438763
427.4463114393875 12085.165053085433
428.49574273662984 12087.6595585378
429.5449053504417 12017.960722432717
430.5937993658026 12077.750426214396
431.6424248676558 11992.403706321245
432.6907819409007 12003.315287669011
433.73887067040596 12053.079168251019
434.7866911409965 12008.922969090123
435.8342434374608 12024.428543830902
436.88152764455117 11881.861445895844
437.9285438469724 11896.664338708917
438.9752921294057 11890.568978874886
440.02177257648145 11946.076638128072
441.06798527279716 11794.89030295183
442.1139303029122 11868.164242208757
443.1596077513459 11872.74332632577
444.2050177025794 11824.086305085217
445.25016024105753 11856.794338506259
446.2950354511886 11851.390785971835
447.33964341733736 11898.535530393567
448.383984223834 11732.106675039335
449.4280579549686 11741.361929470648
450.471864694995 11788.210695581325
451.5154045281306 11755.102957444651
452.5586775385509 11755.898847815874
453.60168381039693 11725.05647120147
454.64442342776783 11810.907309742199
455.6868964747264 11672.951635760735
456.7291030353008 11640.648341741948
457.77104319347563 11722.039137154785
458.8127170332027 11603.191425133005
459.854124638392 11627.993053967568
460.895266092919 11725.347710378821
461.93614148061897 11730.271116116844
462.97675088529104 11756.260491659823
464.01709439069236 11673.057041932354
465.0571720805492 11677.23047578632
466.0969840385442 11721.424092036603
467.1365303483253 11668.257682741207
468.17581109350067 11718.191239878242
469.2148263576437 11634.957691415158
470.2535762242878 11702.488160794735
471.29206077693016 11692.235930706627
472.33028009902773 11739.063973645934
473.3682342740012 11714.139857682114
474.40592338523857 11669.916135084062
475.4433475160804 11620.652158919269
476.4805067498364 11578.363097624471
477.51740116978 11601.668255247276
478.5540308591426 11730.357674053383
479.59039590112116 11672.058183731635
480.6264963788726 11677.860556845964
481.6623323755193 11806.06218838744
482.6979039741436 11663.564980996503
483.7332112577915 11848.758481648258
484.76825430947247 11856.809169124483
485.80303321215797 11831.089607734759
486.837548048783 11797.133313920063
487.8717989022425 11900.747649412595
488.90578585539697 11849.776896207664
489.9395089910686 11911.921432648933
490.97296839203955 11872.257488411939
492.00616414106116 11700.986205530591
493.0390963208429 11733.550166186602
494.0717650140559 11762.349457923912
495.10417030333883 11712.198506047567
496.1363122712901 11763.133770741646
497.16819100046814 11529.57883393863
498.1998065734024 11510.209492142621
499.2311590725767 11521.733649816288
500.26224858044407 11427.395742467459
501.2930751794156 11336.384124794402
502.3236389518679 11383.509601678725
503.35393998014115 11258.426222940874
504.38397834653733 11378.7847615718
505.4137541333221 11283.65477829936
506.4432674227228 11192.230039730268
507.4725182969323 11245.36243989636
508.5015068381035 11233.073619035753
509.53023312835467 11211.787580186496
510.55869724976765 11138.153564368633
511.58689928438434 11101.373415534195
512.6148393142121 11072.982762498792
513.6425174212218 11084.996514862889
514.6699336873462 11061.890109057835
515.6970881944835 11123.68868362722
516.7239810244901 10990.98521317682
517.7506122591931 11049.220854753936
518.7769819803761 10968.736120691992
519.8030902697901 11087.85809621702
520.8289372091476 11046.522197873259
521.8545228801249 11068.841981311212
522.8798473643619 11049.222748004557
523.9049107434621 10908.934380021181
524.9297130989908 11014.040244767995
525.9542545124805 10886.177983742486
526.9785350654201 10917.323392489106
528.0025548392696 11004.174481164717
529.0263139154504 10895.661167777098
530.0498123753423 10972.793999282327
531.073050300296 10832.510520689626
532.0960277716204 10749.400512056538
533.1187448705896 10907.676419701293
534.1412016784416 10799.631872332813
535.1633982763833 10812.143870916141
536.1853347455726 10741.937740692732
537.2070111671401 10829.759568683716
538.2284276221817 10792.56250133407
539.2495841917516 10775.067862225846
540.2704809568677 10760.473738058537
541.2911179985167 10783.329514785935
542.3114953976419 10761.243623245293
543.3316132351592 10735.680396795931
544.3514715919409 10704.758629423535
545.3710705488247 10782.485797325488
546.3904101866156 10702.536362123778
547.4094905860784 10744.63795939986
548.4283118279418 10737.25535666371
549.4468739929034 10735.388106397402
550.4651771616191 10714.811901032519
551.4832214147063 10612.905591833904
552.501006832761 10723.982899140354
553.5185334963226 10691.404022569184
554.5358014859103 10810.487118283509
555.5528108820035 10658.156030976243
556.5695617650363 10694.100887731393
557.5860542154242 10751.217526666453
558.6022883135283 10732.116739436511
559.6182641396881 10721.398296401665
560.6339817741991 10742.048660612536
561.6494412973225 10707.984947732464
562.6646427892883 10731.034789306037
563.6795863302796 10578.010078560235
564.694272000459 10671.212067238197
565.7086998799423 10712.846885963874
566.7228700488104 10607.920153129926
567.7367825871115 10517.204292332417
568.7504375748576 10549.021792768395
569.7638350920224 10567.733148943922
570.7769752185486 10474.571877387141
571.7898580343353 10480.859496853558
572.802483619258 10394.911899342724
573.8148520531431 10497.987169637096
574.8269634157932 10377.591839284305
575.8388177869692 10319.60618966657
576.8504152463938 10321.3572432838
577.8617558737587 10394.707201979512
578.8728397487175 10274.181455856182
579.883666950891 10241.46179239375
580.8942375598654 10360.867661878134
581.9045516551851 10354.452291396277
582.9146093163617 10406.01910351067
583.924410622878 10308.189943411
584.9339556541727 10286.74446388937
585.9432444896538 10366.811474342223
586.9522772086875 10340.722699911843
587.9610538906127 10340.37114844804
588.9695746147318 10264.095756997704
589.9778394603054 10271.824016372693
590.985848506567 10216.369639674273
591.9936018327098 10215.231971509997
593.0010995178891 10094.269557969363
594.0083416412344 10174.31981101422
595.0153282818283 9970.610053347373
596.0220595187293 9985.746679979302
597.0285354309508 10003.066076880688
598.0347560974806 9954.770338861768
599.0407215972609 9931.344848194252
600.0464320092051 9897.160504322064
601.0518874121954 9915.374878687177
602.0570878850685 9890.339090788837
603.062033506636 9951.206361839297
604.0667243556636 9862.708115680385
605.0711605108936 9807.150090093233
606.0753420510264 10049.272225264012
607.0792690547278 9876.586591170573
608.082941600629 9845.337133948171
609.0863597673306 9867.222606931744
610.0895236333909 9973.287406481893
611.0924332773357 10082.6074202825
612.0950887776617 10033.24530572128
613.0974902128219 10042.675363691935
614.0996376612384 10144.598097481223
615.1015312013005 10214.572759277256
616.1031709113595 10303.986408063367
617.1045568697336 10167.552702383851
618.1056891547069 10290.007679340379
619.1065678445229 10279.4422868703
620.1071930173985 10575.983872874649
621.1075647515099 10442.478573846762
622.1076831250048 10433.855356710239
623.1075482159849 10510.2804529773
624.1071601025305 10490.559339969666
625.1065188626781 10465.843213743585
626.105624574433 10613.223667753293
627.1044773157682 10460.209446720724
628.1030771646128 10493.36577658024
629.1014241988742 10449.866925001454
630.0995184964158 10516.655339626273
631.0973601350688 10537.391171795605
632.0949491926294 10607.190577287267
633.0922857468631 10346.332109208228
634.089369875499 10424.433902199291
635.0862016562278 10454.924891182418
636.0827811667077 10301.863431335903
637.0791084845641 10388.77142903997
638.0751836873878 10202.292778135643
639.0710068527369 10334.274640461157
640.0665780581294 10173.864272869845
641.0618973810506 10179.064731809547
642.0569648989604 10310.020316247923
643.0517806892676 10090.63339737285
644.0463448293649 10153.84180850847
645.040657396592 10066.24738194388
646.0347184682723 10062.181653532663
647.0285281216875 9884.560954837498
648.0220864340772 9904.28380555874
649.0153934826558 9833.44366928317
650.0084493446047 9911.072253370936
651.0012540970674 9906.613898700436
651.9938078171526 9833.58061775164
652.9861105819346 9785.791850352445
653.9781624684565 9853.901378195895
654.9699635537254 9752.798337102493
655.9615139147136 9842.901509029292
656.9528136283589 9707.838613471255
657.9438627715699 9776.232812899181
658.9346614212154 9685.207680896372
659.925209654135 9522.158395332604
660.9155075471263 9518.109293130805
661.9055551769616 9513.006193114417
662.895352620375 9583.766479838552
663.8848999540678 9444.771540746056
664.8741972547068 9387.03119325911
665.863244598926 9363.492969536237
666.8520420633213 9437.956801277316
667.8405897244611 9248.821823919396
668.8288876588758 9261.716894735871
669.8169359430613 9307.497346228844
670.8047346534822 9292.600027587247
671.7922838665672 9183.887139715454
672.7795836587156 9192.147866766245
673.766634106285 9348.238898815023
674.7534352856092 9171.528077786073
675.7399872729766 9107.745082015976
676.7262901446538 9252.872326222723
677.712343976862 9162.310406083909
678.6981488457986 9261.146268711344
679.6837048276229 9085.755591794983
680.6690119984596 9174.4160449175
681.6540704344043 9158.863333501304
682.6388802115107 9085.611947131309
683.6234414058108 9125.975425570461
684.6077540932874 9035.098977735917
685.591818349907 9078.966542045304
686.575634251587 9084.07576899302
687.5592018742263 9040.9970842859
688.5425212936734 8945.225277829823
689.5255925857564 9061.304362628005
690.5084158262707 9012.043770056174
691.4909910909646 9070.916612068258
692.4733184555644 8973.098923693786
693.4553979957618 9115.497847049908
694.4372297872123 9079.816368744703
695.4188139055404 9055.701970941183
696.4001504263324 8978.702589076764
697.3812394251509 9204.419144116626
698.3620809775111 9218.149920123114
699.3426751589104 9137.333364738077
700.3230220448004 9117.636290547609
701.3031217106054 9170.04704472858
702.2829742317172 9343.0382487829
703.2625796834873 9068.675061684176
704.2419381412474 9103.141379760344
705.22104968028 9279.039378731073
706.1999143758458 9204.398493065695
707.178532303169 9279.806179700952
708.1569035374378 9456.174923132752
709.1350281538107 9548.049179379446
710.1129062274158 9545.46264548854
711.0905378333373 9790.864621936718
712.0679230466376 9913.662632821404
713.0450619423427 10229.339929624912
714.0219545954424 10400.365405912413
714.9986010808989 10522.491610463672
715.9750014736292 10947.745962738878
716.9511558485392 11147.79981190343
717.9270642804786 11379.468805260422
718.9027268442787 11583.11523038452
719.8781436147328 11698.045248258457
720.8533146666014 11829.01350808323
721.828240074612 11818.34762199178
722.8029199134635 11805.962717302213
723.7773542578125 11705.676424623029
724.751543182294 11532.228909291445
725.7254867615029 11431.121961672981
726.6991850700015 11164.785767219237
727.6726381823228 11094.980257420042
728.6458461729599 11106.075353827178
729.6188091163858 11032.628048124703
730.5915270870246 11117.36443504212
731.5640001592856 11176.613180588747
732.536228407529 11269.717573285465
733.5082119060917 11411.729282042226
734.4799507292755 11513.673313535071
735.4514449513481 11628.230267898945
736.4226946465496 11701.037148630088
737.3936998890786 11685.501145713999
738.3644607531078 11494.352858065975
739.3349773127793 11338.096770297774
740.3052496421951 11134.646918654082
741.27527781543 10787.993550459185
742.2450619065221 10455.699372390249
743.2146019894826 10303.427699246255
744.183898138288 10002.550960351598
745.1529504268801 9820.472133933978
746.1217589291682 9448.800064169604
747.0903237190341 9286.47018575389
748.058644870318 9187.073268329097
749.0267224568397 8979.146810386215
749.994556552374 8844.662092374352
750.9621472306771 8820.994031698287
751.9294945654583 8679.174433584181
752.8965986304011 8633.16096627669
753.8634594991636 8495.35321289294
754.8300772453586 8503.339933797986
755.7964519425768 8453.237578874465
756.762583664371 8533.482424928556
757.7284724842611 8437.647831430508
758.6941184757416 8314.6561639462
759.6595217122667 8309.201622115488
760.6246822672638 8290.5454390939
761.5896002141235 8194.649409418418
762.5542756262093 8208.5881366163
763.5187085768503 8241.904488749093
764.4828991393406 8166.522815349608
765.4468473869474 8188.643398792659
766.4105533929032 8243.27500167111
767.3740172304078 8159.031737885557
768.3372389726283 8221.109815911963
769.3002186926988 8077.660360180236
770.2629564637282 8115.148304163713
771.2254523587872 8080.518592716529
772.1877064509154 8035.337979442704
773.1497188131179 7989.815765870558
774.1114895183728 7927.94298606962
775.0730186396268 8010.081968946941
776.0343062497905 7955.917135017646
776.9953524217381 7813.062832896644
777.9561572283274 7973.50825276541
778.9167207423689 7955.424606994078
779.8770430366476 7855.966180288327
780.8371241839159 7901.98794091911
781.7969642568951 7846.4800726273115
782.7565633282757 8012.309167451234
783.7159214707099 7831.664663144814
784.6750387568281 7860.339076625809
785.6339152592227 7857.718061248146
786.5925510504512 7759.113032910565
787.5509462030477 7912.8209827892015
788.5091007895098 7820.880700784226
789.4670148823006 7768.188763476479
790.4246885538596 7809.416475910894
791.3821218765861 7794.547915463663
792.3393149228505 7727.306105670517
793.2962677649975 7871.746477862909
794.2529804753303 7788.607868474482
795.20945312613 7812.70408137766
796.1656857896378 7647.892572556857
797.1216785380675 7711.24774793078
798.0774314435985 7730.588893309609
799.0329445783846 7836.734235363669
799.9882180145414 7759.0903286266675
800.9432518241574 7674.048770402287
801.89804607929 7747.766290366273
802.852600851962 7748.615150415344
803.8069162141637 7683.859333859461
804.760992237856 7753.478641674296
805.714828994971 7755.351160206778
806.6684265574077 7746.671068895434
807.6217849970271 7709.203676884438
808.574904385674 7642.974506045515
809.527784795142 7807.321735645995
810.4804262972102 7820.394952773837
811.4328289636178 7663.749526457524
812.3849928660748 7562.809717028686
813.3369180762638 7625.479465208048
814.2886046658241 7699.626643993453
815.2400527063783 7538.096313696185
816.1912622695108 7508.896261993961
817.1422334267718 7601.326135965765
818.0929662496856 7569.993388358946
819.0434608097457 7468.052602373796
819.9937171784059 7477.937323718272
820.9437354271013 7473.077579431677
821.8935156272255 7608.145635531412
822.8430578501484 7427.390108208756
823.7923621672016 7309.789463447177
824.7414286496896 7365.302628528516
825.6902573688876 7430.548567895208
826.6388483960363 7380.858470722196
827.5872018023492 7298.662063052521
828.5353176590033 7369.567754791249
829.4831960371503 7310.971570029351
830.4308370079016 7247.290419350618
831.3782406423525 7299.432028530884
832.3254070115545 7338.95633729033
833.2723361865319 7292.302105992354
834.2190282382799 7187.711400829541
835.1654832377644 7307.545464805608
836.1117012559116 7211.875291803974
837.0576823636256 7295.210616334478
838.003426631778 7137.404439655661
838.9489341312074 7164.845767193709
839.8942049327197 7206.587472768001
840.8392391070975 7334.230455984631
841.7840367250865 7214.215303803033
842.7285978573982 7141.001573666719
843.672922574724 7316.565412270555
844.6170109477152 7250.923022357127
845.560863046996 7219.177364300114
846.5044789431595 7195.165073308002
847.4478587067697 7169.007788619825
848.3910024083561 7300.092605036843
849.333910118421 7155.439986911915
850.2765819074339 7134.7695206278895
851.2190178458332 7226.920841827072
852.161218004032 7244.756143797711
853.1031824524016 7241.988500028992
854.0449112612987 7118.411430939993
854.9864045010327 7219.274050693968
855.9276622418947 7119.324552412884
856.8686845541379 7217.185498265239
857.8094715079915 7163.4049336924145
858.7500231736467 7254.36808093792
859.690339621271 7179.827975674986
860.6304209209939 7183.8907548045
861.5702671429244 7044.106200580105
862.5098783571284 7169.771481230867
863.4492546336569 7219.574555197641
864.3883960425155 7132.524547778841
865.3273026536863 7052.08724491321
866.2659745371238 7069.252107847987
867.2044117627465 7241.469215063409
868.1426144004472 7013.113505033982
869.0805825200823 7184.102026272451
870.0183161914847 7161.71888804754
870.9558154844526 7191.183701654469
871.8930804687552 7022.857616747666
872.8301112141307 7027.9410770660015
873.7669077902865 7113.264715484262
874.7034702669062 7227.851375073723
875.6397987136315 7101.5302224792085
876.5758932000863 7162.174827340098
877.5117537958522 7121.9638237732
878.4473805704911 7099.796302497014
879.3827735935283 7063.633936286291
880.3179329344603 7175.217722660853
881.2528586627541 7199.32331158734
882.1875508478479 7222.992282951471
883.1220095591489 7069.562374992927
884.0562348660296 7060.5373670819
884.9902268378391 7158.148657844351
885.9239855438955 7082.169258120244
886.8575110534839 6963.476435502406
887.7908034358588 7080.44889343665
888.7238627602474 7086.879299247637
889.6566890958475 7020.803715002037
890.5892825118208 6932.3465685030005
891.5216430773125 7046.108523301222
892.4537708614189 7061.256942457605
893.3856659332196 6963.4870093291565
894.3173283617652 6958.126641100603
895.2487582160684 6993.118039829884
896.179955565116 6956.2375306238755
897.110920477864 6958.5676751791225
898.0416530232451 6898.459893883968
898.9721532701478 6864.267681556482
899.9024212874428 6926.605202890583
900.8324571439662 6804.915352763854
901.7622609085302 6868.876193065514
902.6918326499072 6832.823154272558
903.6211724368477 6812.605994603602
904.5502803380696 6970.422466546377
905.4791564222614 6895.344085480615
906.4078007580792 6827.810497521877
907.3362134141571 6837.1629433774015
908.2643944590909 6998.453887313114
909.1923439614493 6867.85325699002
910.1200619897754 6835.568505330995
911.0475486125779 7079.699026762946
911.9748038983344 6912.188749068802
912.9018279155007 6894.186987074933
913.8286207324982 6799.367543893093
914.7551824177117 6902.080780328247
915.6815130395116 6914.0844569871815
916.6076126662283 6780.992790774006
917.533481366163 6848.446807973381
918.4591192075914 6840.323729095573
919.3845262587565 6922.04245578917
920.3097025878706 6750.09714171824
921.2346482631237 6699.338412909508
922.1593633526682 6748.582643513869
923.0838479246304 6813.434372613158
924.0081020471061 6804.644342896009
924.9321257881656 6677.012770199413
925.8559192158464 6743.2595496434105
926.7794823981512 6607.735820026622
927.7028154030686 6591.763626121065
928.6259182985414 6555.706380740563
929.5487911524906 6729.160517302448
930.4714340328119 6669.880754726577
931.3938470073608 6517.866062319701
932.3160301439748 6563.718644361377
933.2379835104548 6617.15961168021
934.1597071745709 6754.550406592571
935.0812012040769 6657.759415298855
936.002465666681 6673.240724563751
936.9235006300696 6662.62288128651
937.8443061619055 6678.552788230227
938.7648823298077 6549.974827502224
939.6852292013809 6580.1848087662165
940.6053468441951 6648.8891100162755
941.5252353257874 6627.4121897075
942.4448947136698 6600.0918292374645
943.364325075323 6600.1517884442
944.2835264782043 6634.841072090695
945.2024989897309 6602.746216238406
946.1212426773054 6674.659983454143
947.0397576082851 6647.31364866505
947.9580438500125 6786.585850388574
948.8761014697939 6748.971989184128
949.7939305349064 6750.153168101089
950.7115311125999 6684.87966422906
951.6289032700952 6703.6390837440995
952.5460470745875 6816.65015534338
953.4629625932339 6688.430340763053
954.3796498931715 6788.268862806316
955.2961090415029 6826.413543838809
956.2123401053068 6763.982247484084
957.1283431516276 6776.094760970196
958.0441182474842 6687.318141126799
958.9596654598663 6919.430302083575
959.8749848557309 6696.111687522881
960.7900765020167 6679.405766144706
961.7049404656209 6691.660384882361
962.6195768134185 6638.858966869484
963.5339856122537 6651.16291640492
964.4481669289453 6696.117901904324
965.3621208302793 6626.591161758646
966.2758473830145 6557.233240417809
967.1893466538822 6682.5832651608025
968.1026187095813 6614.5938833733
969.0156636167867 6511.20529160011
969.9284814421426 6600.745070729992
970.8410722522622 6473.596872007607
971.753436113735 6437.522376885685
972.6655730931161 6475.018893149331
973.5774832569368 6539.453481144893
974.4891666716958 6370.017371832246
975.4006234038698 6302.128450328868
976.3118535198955 6385.310233856559
977.2228570861935 6606.232397347465
978.1336341691494 6419.075643765287
979.0441848351202 6301.091068340379
979.9545091504333 6429.204048742397
980.864607181391 6342.708327075947
981.7744789942699 6376.611056450731
982.6841246553086 6327.282569430452
983.5935442307236 6300.072707642758
984.5027377867027 6385.526139080777
985.4117053894024 6392.903850121247
986.3204471049557 6259.615365425145
987.2289629994648 6385.231623869412
988.1372531390007 6359.973323732707
989.0453175896091 6376.515088158173
989.9531564173067 6314.001313436916
990.860769688079 6210.12813485502
991.7681574678918 6342.317624398277
992.6753198226706 6324.832682021027
993.582256818323 6248.123155494633
994.4889685207218 6248.829089907506
995.3954549957143 6416.802573884606
996.301716309119 6336.11229708867
997.2077525267232 6234.546901342698
998.1135637142943 6229.071393133923
999.0191499375615 6369.624555449594
999.924511262232 6338.829919146513
1000.8296477539861 6265.792439264429
1001.7345594784656 6305.189477608212
1002.6392465012996 6222.906877218726
1003.5437088880753 6292.102068558299
1004.4479467043584 6289.7957732776895
1005.3519600156869 6121.495709848897
1006.2557488875718 6240.051361964752
1007.1593133854858 6266.078702350189
1008.0626535748888 6188.790324810219
1008.9657695212009 6176.584560470039
1009.8686612898182 6278.159841329738
1010.7713289461135 6341.399837071784
1011.6737725554212 6169.1252172950235
1012.5759921830577 6138.9033757705165
1013.4779878943027 6210.910861032256
1014.379759754418 6251.4728940313125
1015.2813078286254 6133.503793597408
1016.18263218213 6064.91546961735
1017.0837328801026 6133.004781787669
1017.9846099876886 6184.848960958187
1018.8852635700023 6140.04577331846
1019.7856936921362 5981.253102814322
1020.6859004191447 6177.409795806221
1021.5858838160675 6055.782518773051
1022.4856439479063 6038.14075256097
1023.3851808796389 5980.054269819519
1024.2844946762143 6098.499888068094
1025.183585402554 6101.876011448024
1026.082453123554 5842.454648888559
1026.9810979040776 6036.469334420775
1027.8795198089647 6017.036293208464
1028.777718903024 6083.123659215884
1029.6756952510368 6061.718740246932
1030.5734489177648 5915.149154682218
1031.4709799679313 6009.2452459171245
1032.3682884662358 6038.788707529548
1033.2653744773506 5929.369591400928
1034.1622380659192 5916.886271929873
1035.058879296559 6030.677430086881
1035.9552982338591 6060.660614402494
1036.8514949423825 6058.134776988734
1037.7474694866614 6063.268757578874
1038.6432219312028 6011.420657757297
1039.5387523404825 6170.6883035759565
1040.4340607789582 6092.667234240769
1041.3291473110476 6108.007052323472
1042.2240120011465 6162.718786809295
1043.1186549136273 6215.114630219165
1044.0130761128294 6192.651047397432
1044.9072756630649 6213.214690480156
1045.8012536286205 6297.285183707063
1046.6950100737577 6253.724405646752
1047.588545062701 6300.195796142424
1048.481858659663 6255.117494085635
1049.3749509288118 6428.707042106828
1050.2678219343034 6276.140761296964
1051.1604717402515 6342.325415868508
1052.0529004107575 6205.703893275003
1052.9451080098825 6307.010018531828
1053.8370946016694 6221.712001836781
1054.7288602501267 6286.047964971493
1055.6204050192446 6175.28624200102
1056.511728972977 6229.680585854993
1057.402832175254 6133.628726057887
1058.2937146899785 6176.309502170324
1059.1843765810263 6087.574650365628
1060.0748179122456 6125.070580160338
1060.9650387474576 6047.330183309928
1061.855039150456 6093.430672131015
1062.7448191850071 6039.754655655508
1063.6343789148505 6017.661849881422
1064.5237184037014 6083.627215159071
1065.412837715241 5965.525053127769
1066.3017369131267 5908.554209304806
1067.190416060992 5946.863807770291
1068.0788752224398 5961.201058278905
1068.9671144610438 5886.523584068088
1069.8551338403558 5957.87090857142
1070.7429334239023 6040.944232914864
1071.6305132751695 5898.145310232668
1072.517873457633 5970.515771709184
1073.4050140347335 5903.928650299446
1074.2919350698776 5941.2753566399715
1075.1786366264623 6050.381948166372
1076.0651187678395 5996.574216955715
1076.95138155735 5916.427347020742
1077.8374250582929 6030.850518870751
1078.7232493339507 6017.0978628013945
1079.608854447577 6033.118893274906
1080.4942404623907 5944.923072977692
1081.3794074415982 6086.563604083073
1082.2643554483657 6168.515221561362
1083.149084545841 6146.116671568679
1084.033594797138 6083.946997505939
1084.9178862653516 6168.813846652942
1085.8019590135427 6321.118944173939
1086.6858131047484 6186.847876188238
1087.5694486019802 6329.840401525993
1088.4528655682225 6367.783038177412
1089.3360640664287 6562.288385660829
1090.2190441595321 6498.056861780205
1091.1018059104317 6500.071110096759
1091.98434938201 6589.3652331858975
1092.866674637111 6697.292284034006
1093.748781738559 6484.392915499795
1094.6306707491512 6485.0498441984055
1095.5123417316554 6583.814918373098
1096.3937947488157 6473.071395348372
1097.2750298633455 6528.958065382286
1098.156047137938 6524.12239853971
1099.0368466352556 6570.026272072745
1099.9174284179317 6514.554693830059
1100.7977925485757 6417.977252516107
1101.6779390897755 6341.973930650067
1102.5578681040806 6405.436267331996
1103.4375796540226 6284.617800643502
1104.3170738021054 6226.811614795299
1105.1963506108077 6167.578355442083
1106.0754101425773 6086.55394556284
1106.9542524598382 6147.68908977921
1107.8328776249855 6006.292205441989
1108.7112857003904 5928.305479107798
1109.5894767483987 5847.750841083725
1110.4674508313292 5949.854443977943
1111.3452080114657 5785.605944008688
1112.2227483510815 5810.385017797453
1113.1000719124077 5866.445067938988
1113.9771787576592 5835.225692571131
1114.854068949022 5742.671080773538
1115.7307425486542 5745.095304486902
1116.6071996186893 5781.638176016109
1117.483440221229 5849.945718276909
1118.3594644183577 5744.162217112482
1119.235272272128 5718.64226378362
1120.1108638445658 5814.841820819813
1120.9862391976712 5875.429784515762
1121.8613983934229 5763.859513503255
1122.7363414937627 5776.263870862712
1123.6110685606182 5792.707301874858
1124.485579655884 5890.180069115417
1125.359874841426 5844.018410652485
1126.2339541790916 5798.681575853574
1127.1078177306936 5994.816538658537
1127.9814655580267 5766.895958395493
1128.854897722851 5880.336623470563
1129.7281142869106 5809.719290802799
1130.6011153119125 5814.314298008518
1131.473900859548 5948.924140117933
1132.3464709914697 5925.149711241377
1133.2188257693178 5872.234401138596
1134.0909652546961 5720.161839576776
1134.96288950919 5700.641995553948
1135.8345985943506 5837.823238408876
1136.7060925717087 5747.438605673435
1137.57737150277 5733.837548881118
1138.4484354490069 5791.419296629729
1139.3192844718778 5712.773830526587
1140.1899186327992 5588.313135462533
1141.060337993178 5662.275797943655
1141.930542614382 5638.547408362618
1142.8005325577597 5626.447425524041
1143.670307884635 5492.498993879244
1144.5398686563003 5583.617640243994
1145.409214934025 5632.24249857451
1146.2783467790541 5507.673195149108
1147.1472642526023 5546.954253360088
1148.0159674158622 5596.168515373389
1148.8844563300026 5540.85474674219
1149.7527310561618 5485.523348289258
1150.6207916554504 5465.704990019608
1151.4886381889592 5458.190832147342
1152.3562707177498 5515.558754964406
1153.2236893028585 5401.3464545397965
1154.090894005296 5342.27983309548
1154.9578848860474 5494.788719809923
1155.8246620060709 5460.408664105085
1156.6912254262988 5351.5524880904195
1157.5575752076438 5424.158824440402
1158.42371141098 5555.226711113842
1159.2896340971656 5515.025553214321
1160.1553433270346 5440.092160241156
1161.0208391613887 5458.260474145732
1161.8861216610057 5438.828356525067
1162.75119088664 5477.345037804
1163.6160468990201 5367.563461503196
1164.4806897588442 5346.832222394866
1165.3451195267917 5427.736028248844
1166.2093362635114 5381.648624575491
1167.0733400296285 5393.393157124677
1167.9371308857444 5317.471227563981
1168.8007088924278 5383.469799594094
1169.6640741102328 5357.701180728651
1170.5272265996773 5248.092238548847
1171.390166421259 5284.138729372016
1172.252893635452 5284.768855899655
1173.1154083026995 5496.467989856452
1173.977710483421 5417.619756858096
1174.8398002380145 5233.920767579357
1175.7016776268483 5321.508122564917
1176.563342710264 5348.936011511873
1177.4247955485826 5273.846700400772
1178.2860362020947 5429.942595205079
1179.147064731069 5274.30193651566
1180.0078811957483 5315.552217116505
1180.8684856563486 5291.340746718047
1181.7288781730604 5308.69892191035
1182.589058806052 5383.954084529628
1183.4490276154593 5547.8985654106455
1184.3087846614017 5285.852926967319
1185.1683300039676 5395.435325176016
1186.027663703222 5562.550170265345
1186.8867858192025 5324.337641491364
1187.7456964119228 5413.853714214352
1188.6043955413716 5379.10194513421
1189.4628832675116 5472.559819037912
1190.3211596502842 5549.978378033753
1191.179224749596 5468.938997426684
1192.0370786253388 5364.279052366463
1192.8947213373758 5589.458933971377
1193.7521529455407 5614.635625414885
1194.6093735096438 5376.593398918927
1195.466383089477 5415.33078438932
1196.3231817447977 5401.874459332041
1197.1797695353398 5545.319920837098
1198.0361465208189 5345.817110957547
1198.8923127609214 5321.974098222564
1199.7482683153048 5538.683114833646
1200.6040132436028 5622.234809866355
1201.459547605431 5478.794983077505
1202.3148714603722 5418.673885323895
1203.1699848679855 5384.402881999387
1204.0248878878065 5550.931558626495
1204.8795805793507 5330.823914785681
1205.7340630020935 5477.058621474186
1206.5883352155033 5501.426152663451
1207.4423972790064 5418.994758427629
1208.2962492520237 5289.7120953123285
1209.1498911939307 5342.844502326218
1210.0033231640937 5373.732185574864
1210.8565452218427 5368.824641326399
1211.7095574264913 5139.87790253842
1212.5623598373222 5240.919261998205
1213.4149525135963 5134.458750469003
1214.2673355145507 5258.3580677399195
1215.1195088993936 5126.368006571064
1215.9714727273113 5212.970890441275
1216.8232270574663 5300.511091107504
1217.6747719489904 5125.169475645874
1218.5261074609934 5186.5062461048565
1219.3772336525653 5237.9459935847235
1220.2281505827668 5216.395080442491
1221.0788583106296 5334.4690097404155
1221.9293568951707 5074.933245962429
1222.7796463953746 5041.9906330053345
1223.629726870202 5221.212258590169
1224.4795983785934 5164.487356351577
1225.3292609794553 5132.423147439404
1226.1787147316809 5084.346941053342
1227.0279596941327 5096.402417235234
1227.8769959256424 5200.060298039343
1228.7258234850306 5128.965735914952
1229.5744424310833 5004.161477583051
1230.422852822563 5185.868013101205
1231.2710547182105 5195.057501035716
1232.119048176739 5070.591855597462
1232.9668332568417 4990.291659801007
1233.8144100171812 5125.109066591641
1234.6617785163999 5142.609185316272
1235.508938813111 4892.871891922539
1236.3558909659114 5013.236240562097
1237.2026350333617 5156.108828080091
1238.049171074008 5187.740524483723
1238.8954991463652 4949.384276670308
1239.741619308932 5033.333977000256
1240.587531620169 5044.942482720939
1241.4332361385277 5055.2653530370635
1242.2787329224248 4921.352302445952
1243.1240220302534 4957.063102004084
1243.9691035203869 4950.593302181084
1244.813977451171 5064.811522466736
1245.6586438809263 5031.956751155916
1246.5031028679496 4906.25829269071
1247.3473544705157 5096.914462957486
1248.1913987468706 5081.090418429126
1249.0352357552383 4870.753944266757
1249.8788655538228 4947.906943517999
1250.7222882007918 5157.77011808115
1251.565503754302 5133.563546749326
1252.4085122724755 4968.963733204735
1253.2513138134182 5123.048851979695
1254.0939084352049 5136.4367882850365
1254.9362961958905 5143.468895695884
1255.7784771535007 5170.188366408655
1256.6204513660432 5155.0090613150605
1257.4622188915 5303.3169594939145
1258.3037797878242 5191.430774157157
1259.1451341129468 5040.6138113640245
1259.9862819247755 5261.737512406855
1260.8272232811978 5240.868415645086
1261.6679582400666 5412.324977242375
1262.5084868592203 5125.12265035846
1263.34880919647 5160.336793789472
1264.1889253095997 5229.896013042951
1265.0288352563712 5237.936045648088
1265.8685390945266 5132.792543005742
1266.7080368817751 5287.092162667225
1267.5473286758115 5437.319388276893
1268.386414534294 5307.760085387729
1269.2252945148703 5179.778639615336
1270.0639686751547 5173.514134310817
1270.9024370727402 5246.864168509869
1271.7406997651997 5262.580635223704
1272.5787568100714 5150.805758473516
1273.4166082648808 5219.483712693483
1274.2542541871244 5292.586440492986
1275.091694634275 5432.633715332627
1275.9289296637817 5096.5866037023
1276.7659593330663 5217.70548933183
1277.6027836995308 5308.295523015756
1278.4394028205552 5348.942498045278
1279.2758167534867 5293.551222046577
1280.112025555658 5167.622312608579
1280.9480292843746 5265.588333084451
1281.7838279969128 5119.358761211244
1282.6194217505326 5202.816465711431
1283.4548106024686 5138.978143788301
1284.289994609926 5196.821148520681
1285.1249738300921 5287.49730545752
1285.959748320127 5229.09850645896
1286.7943181371702 5309.404788258079
1287.6286833383328 5324.423790708448
1288.4628439807038 5259.726843194575
1289.2968001213521 5149.330311297395
1290.1305518173194 5312.314535148116
1290.9640991256183 5334.161330883062
1291.7974421032523 5277.841349645862
1292.630580807183 5190.841406838015
1293.463515294361 5334.492801193168
1294.29624562171 5439.936219432782
1295.12877184613 5321.1644208071875
1295.961094024493 5310.268003479317
1296.79321221365 5485.613381692927
1297.6251264704333 5410.5444405714225
1298.4568368516466 5675.395521003653
1299.2883434140658 5451.242461225333
1300.1196462144526 5399.2713321584
1300.9507453095375 5481.76708125241
1301.7816407560313 5616.628776817026
1302.6123326106172 5501.620222755157
1303.4428209299622 5575.574123718896
1304.2731057707024 5743.837407369898
1305.1031871894502 5592.184219118894
1305.933065242798 5697.283669269696
1306.7627399873181 5612.107458113246
1307.5922114795467 5856.766779037422
1308.4214797760123 5771.860442603238
1309.2505449332057 5614.003572174072
1310.0794070076026 5846.854525379535
1310.9080660556538 5826.999178799176
1311.736522133786 5829.041157338879
1312.5647752983987 5808.8190817924315
1313.3928256058734 5673.267313833583
1314.2206731125661 5876.703935138794
1315.048317874809 5884.9583857826765
1315.8757599489109 5819.147594406472
1316.7029993911547 5845.5672773876195
1317.5300362578055 5993.730642849545
1318.356870605101 5799.164933329038
1319.183502489257 5881.450050753696
1320.0099319664623 5993.828895651968
1320.836159092889 6040.22458527834
1321.66218392468 6075.722599634213
1322.4880065179532 5959.811596780923
1323.3136269288134 6028.15341860106
1324.1390452133292 6095.742873038466
1324.9642614275563 6117.758728186602
1325.7892756275214 5893.900373970988
1326.6140878692295 5919.761566595782
1327.4386982086617 6228.080936910123
1328.2631067017755 5934.819019560918
1329.0873134045069 5992.2998813529175
1329.911318372764 5763.208931665508
1330.735121662441 5778.5780557012495
1331.558723329399 5761.958003095233
1332.3821234294774 5566.285089552863
1333.2053220185007 5613.240564031441
1334.0283191522612 5600.686688106846
1334.851114886529 5585.055301623533
1335.6737092770582 5330.66134131043
1336.4961023795695 5403.93489339478
1337.3182942497697 5284.103350298354
1338.1402849433325 5362.379283548221
1338.962074515921 5226.692730901179
1339.7836630231632 5040.420480208146
1340.6050505206676 5445.017201581439
1341.426237064028 5274.770442242807
1342.2472227088037 5080.516707275188
1343.0680075105338 4966.092040578954
1343.888591524741 4988.578560629475
1344.7089748069138 5132.760408830181
1345.5291574125276 5069.371589861983
1346.3491393970307 4894.89885656411
1347.168920815846 5000.898091230769
1347.9885017243778 5120.521482721564
1348.8078821780036 4860.85062261289
1349.6270622320844 4929.963922807257
1350.4460419419447 4796.119034633378
1351.2648213629054 4889.138092570654
1352.0834005502438 4702.887771641829
1352.90177955923 4681.2496132498
1353.7199584451064 4819.911426846356
1354.5379372630887 4861.2020901795095
1355.355716068374 4781.930787623451
1356.1732949161305 4683.333567144472
1356.9906738615155 4707.797956955741
1357.8078529596478 4732.9925168893205
1358.6248322656375 4733.73211700101
1359.441611834567 4671.583788097647
1360.2581917214866 4809.174804907493
1361.0745719814367 4701.862427171311
1361.890752669433 4617.505610369884
1362.7067338404577 4556.106886006008
1363.5225155494845 4839.6270822213855
1364.3380978514506 4835.640336811257
1365.1534808012839 4505.813012702989
1365.9686644538815 4404.937599508974
1366.783648864117 4788.370280219064
1367.5984340868417 4763.109312402423
1368.413020176893 4687.79655958029
1369.2274071890715 4606.355081335557
1370.0415951781652 4713.725522386039
1370.8555841989346 4683.887358544848
1371.6693743061223 4432.5450256407
1372.48296555444 4369.68377729413
1373.2963579985844 4664.509184526743
1374.1095516932255 4581.8553907633095
1374.9225466930166 4441.525519155826
1375.7353430525782 4499.505957500622
1376.5479408265164 4561.8687242778715
1377.36034006941 4638.765865640103
1378.1725408358216 4600.905999365715
1378.9845431802805 4469.4504386401
1379.796347157304 4827.353231619013
1380.6079528213813 4653.048691815874
1381.4193602269788 4457.636898731838
1382.230569428546 4456.526779314661
1383.0415804805016 4631.306760503189
1383.852393437246 4710.225491859006
1384.6630083531563 4616.364465713899
1385.4734252825892 4505.702332480564
1386.2836442798798 4609.333486796372
1387.0936653993322 4580.6988944929
1387.9034886952395 4591.766778067577
1388.713114221864 4670.5747615195705
1389.5225420334482 4658.888305462327
1390.331772184214 4583.511248549438
1391.1408047283585 4422.809950497209
1391.9496397200564 4583.900296311562
1392.758277213461 4686.249018463341
1393.5667172627054 4781.046638030979
1394.3749599218918 4561.514691785229
1395.1830052451114 4514.071891144888
1395.9908532864265 4575.70361175322
1396.7985040998774 4725.998706508424
1397.6059577394808 4546.483851715168
1398.4132142592352 4597.354020557468
1399.2202737131156 4580.167657427285
1400.027136155073 4764.056730515304
1400.8338016390353 4475.491974928534
1401.6402702189134 4532.308052748185
1402.446541948586 4611.372860159145
1403.2526168819204 4458.16773335978
1404.058495072757 4438.803062507216
1404.8641765749107 4578.517313530113
1405.6696614421799 4647.897743114625
1406.4749497283356 4842.762269304042
1407.280041487129 4414.95814841519
1408.084936772295 4395.155533391835
1408.8896356375335 4644.636245408806
1409.6941381365323 4550.413990787211
1410.498444322955 4457.666354429826
1411.3025542504402 4456.339910610753
1412.106467972606 4572.509302074648
1412.9101855430508 4633.559147315016
1413.7137070153458 4316.646840142244
1414.5170324430437 4537.214246146939
1415.320161879672 4579.710877830645
1416.1230953787435 4738.47762734735
1416.925832993742 4462.550545717125
1417.7283747781275 4416.78454508047
1418.5307207853439 4595.780182823343
1419.3328710688093 4584.167228462798
1420.134825681922 4432.521993080933
1420.9365846780584 4479.741017546539
1421.7381481105713 4737.529376152598
1422.539516032788 4706.259910604257
1423.3406884980232 4483.9334198995075
1424.1416655595604 4592.3917448231
1424.942447270665 4670.506368229558
1425.7430336845828 4915.528978922075
1426.5434248545298 4593.7135323645025
1427.3436208337116 4832.841643160901
1428.143621675301 4813.324925923054
1428.9434274324558 4979.679378165619
1429.7430381583108 4745.470018655582
1430.5424539059713 4859.933074404337
1431.3416747285337 5278.128424899807
1432.1407006790632 5036.315410750559
1432.9395318106053 5025.420972913682
1433.7381681761835 4902.836589222301
1434.5366098288014 5049.603654146964
1435.3348568214424 5098.782234273645
1436.1329092070573 4923.981907401616
1436.9307670385879 5057.761664104778
1437.7284303689503 5140.774170667305
1438.5258992510335 5270.501052620193
1439.3231737377118 5078.804326310086
1440.1202538818306 5056.235693223557
1440.9171397362225 5032.695365711276
1441.7138313536925 5120.315914695793
1442.5103287870243 4952.256387932039
1443.3066320889775 4926.514279279517
1444.1027413122956 5103.484249545355
1444.8986565096966 4952.910580322545
1445.694377733882 4998.785706687638
1446.4899050375207 4861.647013989045
1447.2852384732687 4876.021867780276
1448.0803780937622 5042.926688021447
1448.8753239516063 4715.011502105253
1449.6700760993954 4636.009673460617
1450.464634589689 4802.5542594766575
1451.2589994750397 4945.623281857369
1452.0531708079689 4533.024885916382
1452.8471486409799 4694.997740461754
1453.6409330265524 4824.814070309216
1454.4345240171442 4650.844702126251
1455.2279216651987 4630.411876379615
1456.0211260231263 4666.678389794341
1456.8141371433194 5071.31425027457
1457.6069550781594 4853.687481605199
1458.3995798799897 4466.477250557604
1459.1920116011424 4533.115982059107
1459.98425029393 4488.344212354152
1460.7762960106338 4563.178188172188
1461.5681488035225 4358.867053231874
1462.3598087248392 4508.616103399964
1463.1512758268036 4687.610246358707
1463.942550161617 4356.806829714818
1464.7336317814625 4378.379125772398
1465.524520738496 4450.171440885522
1466.3152170848552 4324.6757176180445
1467.1057208726506 4355.0239117800575
1467.8960321539817 4199.968550289421
1468.6861509809169 4098.3990700617
1469.4760774055085 4178.0056031061595
1470.265811479785 4190.694633412469
1471.055353255755 4023.2883323034753
1471.844702785409 4073.7211504009915
1472.6338601207044 4030.934168386671
1473.4228253135934 4218.850787812352
1474.2115984159936 3906.3695594225487
1475.0001794798063 3886.959514179539
1475.7885685569145 4016.5203332185483
1476.576765699172 3988.794581918649
1477.3647709584238 3956.9853308597985
1478.1525843864802 4114.778880847949
1478.9402060351367 4027.9674452252975
1479.7276359561693 4015.1407726961506
1480.514874201328 3894.0592903923707
1481.3019208223468 3767.3375960581807
1482.0887758709323 3669.340681047606
1482.8754393987747 4023.4178244802047
1483.6619114575406 3807.756115133401
1484.4481920988783 3824.510017294457
1485.2342813744108 3852.6466871259713
1486.0201793357446 3939.578875319074
1486.8058860344572 3771.2595673215233
1487.591401522117 3806.2763716994364
1488.3767258502594 3855.0683699637
1489.1618590704056 3813.0994721343473
1489.9468012340494 3615.391533938803
1490.7315523926754 3770.0507272312534
1491.5161125977356 3936.171572491146
1492.3004819006637 3846.966113416689
1493.084660352877 3670.5717155828725
1493.8686480057622 3719.266480303294
1494.6524449106964 3973.780278709369
1495.4360511190262 3976.670656570144
1496.219466682087 3808.1599210578593
1497.0026916511779 3820.5114057750775
1497.7857260775945 3816.7308043838466
1498.5685700125996 3883.5313761001044
1499.3512235074395 3639.744083651086
1500.133686613337 3705.3631054703314
1500.9159593814966 3747.1580701115927
1501.698041863101 4076.371936547778
1502.4799341093094 3648.268130162204
1503.2616361712662 3576.4713435657004
1504.043148100087 3781.270592820793
1504.8244699468742 3862.111989447179
1505.6056017626997 4001.746682618871
1506.3865435986281 3569.9187248162243
1507.1672955056893 3741.8950601932193
1507.9478575348967 3618.3860742008656
1508.7282297372512 3813.2241677197985
1509.5084121637192 3743.2699470436737
1510.2884048652577 3672.3546429094977
1511.0682078927948 3674.318825716068
1511.8478212972423 3593.978430095598
1512.6272451294917 3707.393170212183
1513.4064794404076 3812.042044525486
1514.1855242808433 3876.362718929967
1514.9643797016215 3713.7507414828606
1515.743045753552 3791.207346654822
1516.5215224874191 3780.575285418837
1517.2998099539836 3610.011378918794
1518.077908203999 3818.3747663672693
1518.8558172881785 3689.643404873531
1519.633537257234 3864.0966087367897
1520.4110681618404 3796.1242290565415
1521.1884100526604 3742.255206277861
1521.9655629803365 3757.442865448132
1522.7425269954856 3913.3514624191753
1523.5193021487103 4068.232970795819
1524.2958884905856 3735.599547218552
1525.0722860716687 3862.2245041385963
1525.848494942502 3723.911702119003
1526.624515153595 3735.761862943512
1527.4003467554485 3780.1558029404623
1528.175989798534 3851.640249889277
1528.9514443333064 3798.2880637645635
1529.726710410203 4010.178202992902
1530.5017880796331 3707.2593685885067
1531.276677391992 3731.229576753416
1532.0513783976457 3937.140125430405
1532.825891146953 3824.698494835067
1533.6002156902414 3906.593007634009
1534.3743520778207 3779.0527468487917
1535.1483003599806 3838.734603836645
1535.9220605869923 3743.9127052242707
1536.6956328091019 3850.960808196207
1537.4690170765407 3706.231932610506
1538.242213439511 3779.1340141418596
1539.015221948208 3775.999710035231
1539.78804265279 3703.3998422549894
1540.560675603405 3605.8120555906326
1541.3331208501804 3824.5603434525374
1542.1053784432224 3827.424082461833
1542.8774484326168 3722.938297330983
1543.649330868422 3636.240288092552
1544.4210258006842 3690.3520968912476
1545.1925332794308 3728.3990452389794
1545.9638533546604 3629.9172742720975
1546.7349860763552 3607.1905209031966
1547.5059314944829 3945.7161771862898
1548.27668965898 3680.736084645222
1549.0472606197673 3617.210022844409
1549.817644426752 3507.7756879493127
1550.5878411298072 3731.597107075565
1551.3578507787988 3620.6751704336275
1552.1276734235635 3497.551723716958
1552.8973091139233 3656.981844129276
1553.6667578996767 3729.717894692543
1554.436019830604 3593.0848950537534
1555.20509495646 3513.595703136837
1555.9739833269869 3501.4447011936127
1556.7426849919011 3557.3765177814103
1557.511200000903 3725.1757458496772
1558.2795284036674 3605.362641709448
1559.0476702498509 3527.7206846057406
1559.8156255890954 3649.1305617900007
1560.5833944710157 3893.310911296555
1561.3509769452048 3554.3976942923364
1562.1183730612447 3559.797211517232
1562.8855828686865 3595.4253675930354
1563.6526064170703 3840.9159327001244
1564.4194437559127 3716.117749848106
1565.1860949347047 3652.438591912343
1565.9525600029283 3800.728970282179
1566.7188390100328 3958.8332611307173
1567.4849320054564 3585.7410722852205
1568.250839038612 3573.732723400363
1569.0165601588997 3551.2125445940974
1569.7820954156887 3733.1755284581304
1570.5474448583373 3716.0939186139244
1571.31260853618 3597.2923191510454
1572.0775864985299 3465.4183396576836
1572.8423787946813 3724.788211833768
1573.6069854739108 3644.5784993417487
1574.371406585471 3799.21643949753
1575.1356421785986 3897.7114304808265
1575.899692302506 3646.0133379621366
1576.6635570063845 3821.7050411211467
1577.4272363394157 3764.3615847548535
1578.190730350747 3685.6941736366816
1578.9540390895163 3789.344744941879
1579.7171626048384 3536.163408415329
1580.480100945806 3646.6278652759274
1581.2428541614918 3725.649975724994
1582.0054223009538 3735.177113783825
1582.767805413223 3647.600576040756
1583.5300035473156 3667.946544339149
1584.292016752228 3926.016978165312
1585.0538450769309 3785.104607105253
1585.8154885703807 3510.4039016681454
1586.5769472815136 3541.934568323594
1587.3382212592405 3646.318951517561
1588.099310552463 3746.3203730969444
1588.8602152100484 3798.608164159782
1589.6209352808564 3689.4458928338327
1590.3814708137234 3574.9159759619383
1591.14182185746 3616.0652164425796
1591.9019884608679 3468.4044289461613
1592.6619706727215 3323.812641272564
1593.4217685417734 3535.4272075832487
1594.1813821167616 3698.4827601382176
1594.9408114464022 3380.1692396125836
1595.7000565793933 3450.2168454463695
1596.459117564409 3564.607220591075
1597.2179944501113 3361.9658192879588
1597.9766872851324 3369.4608182904803
1598.735196118092 3557.7668551168244
1599.4935209975883 3518.0649959579628
1600.2516619721973 3528.8723923561693
1601.0096190904787 3422.44381147496
1601.7673924009723 3442.0540419979807
1602.524981952196 3365.9900935568903
1603.2823877926476 3311.6328278943192
1604.0396099708087 3322.2411724204276
1604.7966485351371 3221.4419394432184
1605.5535035340745 3354.2977304668957
1606.3101750160404 3506.5371542657713
1607.0666630294363 3245.0921312467954
1607.822967622642 3170.2262271206323
1608.5790888440224 3440.61959273656
1609.3350267419137 3511.934951232511
1610.0907813646445 3340.333717162389
1610.8463527605145 3345.689118436385
1611.601740977805 3353.5657219285204
1612.356946064785 3408.878492915651
1613.1119680696902 3188.9412919170327
1613.8668070407512 3293.832153525208
1614.6214630261748 3189.071780287823
1615.375936074137 3421.4849451966993
1616.1302262328118 3269.7193369512015
1616.8843335503425 3393.4908179564177
1617.638258074854 3137.396315999411
1618.391999854457 3169.718511488977
1619.1455589372363 3478.7055530310718
1619.8989353712623 3275.6096128584563
1620.65212920458 3053.876038150579
1621.4051404852235 3188.6181343299654
1622.1579692611976 3229.13764923472
1622.9106155804966 3100.502882983331
1623.663079491087 3234.1096520391393
1624.4153610409248 3380.309624545276
1625.1674602779385 3173.8694241793846
1625.9193772500403 3060.811117831444
1626.6711120051277 3378.887245657969
1627.4226645910676 3341.614126819078
1628.174035055721 3077.577467685023
1628.9252234469168 3268.4749296256123
1629.676229812474 3181.990808481599
1630.4270542001905 3358.707027339249
1631.1776966578382 3232.2247576760988
1631.9281572331747 3192.079458293394
1632.678435973945 3405.007166394771
1633.4285329278573 3406.1177755685467
1634.1784481426203 3100.925039761597
1634.9281816659113 3189.7944863727016
1635.677733545388 3383.100572453037
1636.4271038286934 3189.768527444109
1637.176292563452 3333.576244226932
1637.9252997972635 3224.1975929338737
1638.674125577716 3289.2724428455454
1639.4227699523672 3590.9284007312053
1640.171232968767 3082.516848905271
1640.9195146744423 3227.6909775556105
1641.6676151168977 3456.899971149848
1642.4155343436178 3449.1950339053683
1643.1632724020765 3273.285148970035
1643.9108293397167 3204.8373208149173
1644.658205203974 3115.2602159325434
1645.4054000422566 3714.6316613168347
1646.1524139019566 3214.2161504691035
1646.8992468304423 3140.2840030313687
1647.6458988750728 3110.417166102535
1648.3923700831765 3184.8593422332856
1649.1386605020743 3148.32368206257
1649.8847701790564 3310.375881251965
1650.6306991614038 3297.942213894815
1651.3764474963682 3330.0908872765895
1652.1220152311944 3035.605842435495
1652.867402413096 3407.0775251062223
1653.6126090892776 3240.867799893846
1654.3576353069184 3500.216701884543
1655.1024811131829 3217.1558604367874
1655.8471465552066 3207.8569854065536
1656.5916316801213 3364.5088114943005
1657.3359365350298 3386.404311938991
1658.0800611670165 3234.7229232719365
1658.824005623148 3323.4131410871173
1659.5677699504722 3082.055186689483
1660.3113541960192 3235.539018153503
1661.054758406799 3309.4228776562704
1661.7979826297997 3090.3072208360386
1662.5410269119966 3063.355425302493
1663.283891300338 3402.635503272498
1664.0265758417645 3108.9638116882543
1664.7690805831826 3224.1167642356572
1665.5114055714948 3228.3092057721033
1666.2535508535748 3455.9641217985045
1666.9955164762814 2945.5295657064444
1667.7373024864555 3147.316217321444
1668.478908930916 3266.853122953412
1669.220335856462 3146.2920333782063
1669.9615833098778 3092.2102575115478
1670.7026513379296 3020.9197876048584
1671.44353998736 3199.3125155688767
1672.1842493048916 3143.81298644859
1672.9247793372379 3090.585496300976
1673.6651301310812 3200.867333530072
1674.4053017330934 3073.216747975695
1675.1452941899242 3145.602733227328
1675.885107548207 2709.6836490002615
1676.6247418545518 2912.973090586136
1677.3641971555535 2996.1691664467444
1678.1034734977893 3150.354709363266
1678.8425709278108 3078.4034902386456
1679.5814894921605 3248.2716583719766
1680.320229237359 2962.267445267801
1681.0587902098978 3277.296483836969
1681.7971724562685 2989.9397708045617
1682.5353760229264 2911.0996501730237
1683.2734009563173 3168.8341291289116
1684.0112473028657 2936.3364395080657
1684.7489151089794 3070.312075142221
1685.4864044210462 3153.980670038094
1686.2237152854377 2779.618775091393
1686.960847748498 3164.43296420087
1687.6978018565642 2915.0751295513987
1688.434577655944 2897.320462707942
1689.1711751929379 2785.3501741823247
1689.9075945138156 3044.188503308049
1690.6438356648396 2975.780075860627
1691.3798986922448 2685.3495534422027
1692.1157836422499 3029.7475864025832
1692.851490561059 2963.6458736453974
1693.587019494853 2916.163976933255
1694.3223704897991 2705.7352159412103
1695.0575435920364 2630.627913542124
1695.792538847696 3157.7446265076287
1696.527356302886 2803.4820305657627
1697.2619960036936 2811.387445011818
1697.9964579961907 2735.9714696874366
1698.730742326432 2498.1128546428977
1699.4648490404488 2670.739129811583
1700.1987781842563 2774.0252358981197
1700.9325298038548 2873.8243065053493
1701.6661039452174 2959.863439266613
1702.3995006543082 2802.4929009413745
1703.1327199770658 2902.021966528547
1703.865761959416 2653.541823935903
1704.598626647261 2953.399577891934
1705.3313140864866 2583.4387498237115
1706.0638243229587 2626.912062091101
1706.7961574025303 2845.970870952521
1707.528313371029 2769.493873678891
1708.260292274268 2565.7567347366376
1708.9920941580403 2699.2807041976957
1709.7237190681226 2680.4502705593654
1710.4551670502697 2710.992469608117
1711.18643815022 2462.281695520992
1711.9175324136959 2839.2876775519844
1712.6484498863938 2554.0540916715954
1713.379190614005 2413.2575358800636
1714.109754642188 2619.100854317775
1714.8401420165883 2584.762480873821
1715.570352782839 3099.2679093473384
1716.3003869865497 2653.298653922415
1717.0302446733076 2560.385726874222
1717.7599258886876 2717.0313669641487
1718.4894306782444 2917.926506047809
1719.2187590875183 2511.171038100546
1719.9479111620203 2724.1018829683644
1720.6768869472544 2539.3817076546393
1721.4056864887025 2719.7654503500175
1722.1343098318284 2828.536289869949
1722.8627570220742 2597.726365184366
1723.591028104871 2482.099325687191
1724.3191231256242 2415.035935938009
1725.0470421297232 2600.371285054999
1725.7747851625427 2561.5637587003475
1726.5023522694337 2706.9601168870377
1727.2297434957363 2684.340774109437
1727.9569588867635 2303.5573525477585
1728.6839984878152 2668.9249510334084
1729.4108623441734 2259.1777029758714
1730.1375505011038 2597.341921110039
1730.8640630038426 2560.8140415253
1731.5903998976264 2456.5292335916743
1732.316561227657 2521.1763964537354
1733.0425470391274 2439.1756512154243
1733.7683573772065 2559.714391362295
1734.4939922870508 2476.1951906317713
1735.2194518137949 2608.4208334306186
1735.9447360025606 2462.1063283429057
1736.669844898439 2494.42675265199
1737.3947785465189 2297.7113821588387
1738.1195369918605 2261.5675452773676
1738.8441202795093 2475.873628074632
1739.5685284544943 2595.47029823683
1740.292761561821 2595.671226463566
1741.0168196464838 2631.743245367771
1741.7407027534518 2476.224175082814
1742.464410927687 2449.3512567787534
1743.187944214118 2463.947126160544
1743.9113026576688 2464.8729971659277
1744.634486303241 2454.4348550942764
1745.3574951957125 2485.6786048826907
1746.0803293799509 2698.017936662208
1746.8029889008048 2497.1758751104394
1747.5254738031017 2460.301856342247
1748.2477841316504 2401.781020817035
1748.969919931249 2345.4694299406056
1749.6918812466665 2404.286235797997
1750.4136681226646 2553.8225360936576
1751.1352806039777 2469.623559926855
1751.856718735331 2256.5265526619464
1752.5779825614281 2194.5191316624587
1753.2990721269507 2561.6915778423063
1754.0199874765676 2511.671743824853
1754.7407286549314 2261.1967825897505
1755.4612957066693 2340.8566036788225
1756.1816886763954 2350.1828729244476
1756.9019076087097 2486.6670638918213
1757.6219525481865 2521.3887468812345
1758.3418235393856 2446.2791596748234
1759.061520626854 2341.8825163752604
1759.7810438551096 2682.2670018314193
1760.5003932686614 2372.2726193043172
1761.2195689119999 2469.8089080415443
1761.938570829594 2463.171174556096
1762.657399065898 2486.5043185948703
1763.376053665348 2173.8252828377654
1764.0945346723602 2200.4968413289616
1764.812842131334 2501.9308256094782
1765.5309760866512 2246.5748405989175
1766.2489365826787 2228.1135781743246
1766.9667236637597 2347.768842490211
1767.684337374223 2178.765519338166
1768.401777758383 2191.302110035326
1769.1190448605284 2217.4006213815137
1769.836138724937 2284.025411092128
1770.5530593958665 2349.2651737610154
1771.2698069175603 2580.5902683402514
1771.9863813342326 2383.1763856623784
1772.702782690094 2285.4715322498987
1773.4190110293293 2436.71505546691
1774.1350663961111 2386.3413661621216
1774.8509488345844 2317.3162421892202
1775.5666583888924 2397.322338460894
1776.2821951031437 2518.0737372988087
1776.9975590214362 2349.4812262109544
1777.7127501878585 2486.345276803677
1778.4277686464684 2494.5744429986116
1779.1426144413108 2480.5243658672107
1779.8572876164162 2495.4823624828796
1780.571788215797 2074.7000416063847
1781.2861162834415 2280.8190019467247
1782.0002718633277 2211.499399112
1782.7142549994132 2466.5197930323284
1783.4280657356376 2401.1797440476944
1784.141704115922 2203.2764045257163
1784.855170184177 2237.3894849344338
1785.5684639842839 2464.509765341062
1786.2815855601148 2021.5891367545369
1786.9945349555237 2383.893859429564
1787.707312214343 2183.251412417483
1788.4199173803918 2613.7273075543903
1789.132350497468 2193.5036330413795
1789.8446116093583 2196.5003156818666
1790.556700759822 2213.479429480276
1791.2686179926077 2265.574412251452
1791.9803633514493 2268.949372412719
1792.6919368800554 2155.6850967826963
1793.4033386221236 2336.852913122896
1794.1145686213295 2416.1948447468667
1794.8256269213307 2491.5720787335335
1795.536513565774 2346.7619613846036
1796.247228598284 2073.7384683518985
1796.9577720624693 2212.9549837892837
1797.6681440019165 2261.233123247075
1798.3783444602013 2286.51303209371
1799.0883734808776 2436.8697237197885
1799.7982311074884 2381.3891680730917
1800.5079173835475 2401.531286133884
1801.2174323525633 2285.3883584966925
1801.9267760580187 2216.014304052174
1802.635948543386 2354.6920892561875
1803.3449498521113 2227.198768162709
1804.0537800276325 2408.13601666862
1804.7624391133668 2244.8572803292845
1805.47092715271 1995.2373790175484
1806.1792441890484 2076.1236636730787
1806.8873902657433 2358.7613893727994
1807.5953654261448 2248.350357626475
1808.3031697135812 2227.536981170895
1809.0108031713662 2215.0005347497527
1809.71826584279 2232.3468244319884
1810.425557771141 2224.6591202742347
1811.1326789996747 2208.51197732784
1811.839629571632 2192.225215982899
1812.5464095302468 2208.3245663206267
1813.2530189187182 2256.8782080021083
1813.959457780249 2248.6578596801983
1814.6657261580076 2323.8966980961295
1815.371824095153 2216.2832960614533
1816.0777516348262 2416.1467203658176
1816.78350882015 1873.0132654017193
1817.4890956942272 2103.1560507257354
1818.1945123001533 2172.08013383533
1818.8997586809928 2285.502496007319
1819.6048348798067 2108.320953442662
1820.3097409396287 2178.2074843629707
1821.0144769034796 2476.2266728274562
1821.7190428143622 2243.2382145444335
1822.423438715261 2288.6207472978012
1823.1276646491478 2207.9445630154196
1823.8317206589727 2348.0256083279637
1824.5356067876692 2310.8116223201673
1825.2393230781581 2157.5487365512004
1825.942869573335 1944.5067978988966
1826.646246316086 2050.8598643972755
1827.3494533492758 2227.073652310577
1828.052490715756 2241.9084736891186
1828.7553584583547 2193.702490595285
1829.458056619891 2246.5264971746064
1830.1605852431585 2140.3494151451073
1830.8629443709433 1997.1327133711536
1831.5651340460063 2189.239283261547
1832.2671543110919 2043.611707231167
1832.9690052089318 2245.4490525402957
1833.6706867822395 1970.8633837381435
1834.3721990737104 2321.0610480809755
1835.0735421260233 2279.0640032606557
1835.774715981841 2094.3905034190493
1836.4757206838058 2306.23499341139
1837.1765562745459 2172.2677075501433
1837.8772227966747 2029.9981236217488
1838.5777202927839 2092.1766855542633
1839.2780488054523 2075.73539027486
1839.9782083772352 2074.923825539327
1840.6781990506806 2351.31376036807
1841.378020868313 2075.746086869813
1842.0776738726418 2095.7851952802175
1842.777158106157 2054.7063829962462
1843.4764736113375 2027.3049949289718
1844.1756204306403 2225.672251561866
1844.8745986065078 2211.9930799618087
1845.5734081813607 1958.350567951439
1846.2720491976124 2120.5087636420913
1846.970521697649 2076.012515450979
1847.6688257238511 2183.3670336556597
1848.3669613185684 2106.3391925474034
1849.0649285241452 1786.022109734043
1849.7627273829057 2214.0406473979765
1850.460357937156 2144.423109757073
1851.1578202291857 1844.402837792629
1851.8551143012664 2158.9377835136897
1852.5522401956569 2095.825730655567
1853.2491979545957 2201.056832073845
1853.9459876203055 2023.3910032463386
1854.6426092349902 1946.7477118251586
1855.3390628408451 2034.9595098046143
1856.0353484800362 2340.890413463333
1856.7314661947203 2185.4987400738246
1857.4274160270397 1968.5907845672077
1858.123198019115 2049.7067606803494
1858.8188122130487 2014.1181055567492
1859.5142586509319 2075.462788637817
1860.209537374838 2079.6805220773176
1860.9046484268183 2133.3253894048585
1861.599591848917 2265.154386582878
1862.294367683151 1962.7792141252885
1862.988975971528 1974.6392997718722
1863.6834167560355 2009.1128218713898
1864.3776900786452 2249.956294328012
1865.0717959813119 2084.271169324097
1865.7657345059724 1938.4284258535808
1866.4595056945564 2110.0149220992807
1867.1531095889586 2152.702727182178
1867.846546231076 2009.3920520119998
1868.5398156627743 2202.6449042236877
1869.2329179259123 1889.3964887349605
1869.9258530623283 2200.3077511310057
1870.618621113843 1948.7356678450487
1871.3112221222636 1977.5225280370455
1872.0036561293764 1926.3685559117628
1872.695923176956 2023.6351590578768
1873.3880233067594 2291.6736401624285
1874.0799565605212 1943.049119306805
1874.7717229799673 2001.8060552238844
1875.4633226068036 2254.6555339573174
1876.1547554827175 2183.2428193980186
1876.8460216493859 2002.2232863017107
1877.5371211484617 2029.4854978364529
1878.2280540215852 2213.3352389607453
1878.9188203103804 1905.2642743278284
1879.6094200564548 2019.2671671818614
1880.299853301396 2031.4608852429628
1880.9901200867826 2370.1606399465227
1881.6802204541673 2102.8892588288304
1882.3701544450942 2123.9761892876686
1883.059922101087 1860.5124307878177
1883.7495234636517 2200.8426495260824
1884.4389585742792 2076.79518315825
1885.1282274744517 1874.1401534687134
1885.8173302056166 1989.9629407166049
1886.506266809225 2105.943400554905
1887.195037326701 1866.3091701713554
1887.8836417994517 1985.5487164357467
1888.5720802688702 2261.472247732839
1889.260352776333 2020.6756643457434
1889.9484593632042 2259.5292561679107
1890.63640007082 2038.1737032220449
1891.3241749405151 1953.7253101408987
1892.0117840135954 2099.8600671522463
1892.6992273313572 1919.2387734532454
1893.3865049350788 1949.5997570653788
1894.0736168660223 2164.4416130124655
1894.7605631654333 2149.00365735045
1895.4473438745408 1829.7336280650366
1896.133959034556 2273.758150896637
1896.820408686679 2143.43479470471
1897.506692872088 2285.5604896678974
1898.192811631945 2066.435253331897
1898.8787650073991 2027.870747611062
1899.5645530395832 2184.7029311802357
1900.2501757696118 2099.2801877890706
1900.9356332385796 1927.8327164560583
1901.620925487574 2315.6080836691804
1902.3060525576602 1981.063590412558
1902.9910144898859 2137.393384680285
1903.6758113252872 1931.3977924164833
1904.3604431048789 2103.676748466757
1905.0449098696663 2075.014177896641
1905.7292116606295 1942.3137775111832
1906.4133485187394 2075.048286808178
1907.0973204849488 1741.8041072177195
1907.7811276001976 1846.1647900239677
1908.4647699053967 1994.6550333219552
1909.1482474414588 1598.654759426086
1909.8315602492694 1823.2185850724115
1910.5147083696957 2228.159968392868
1911.1976918436012 2042.4538212321827
1911.880510711815 1837.0183081543116
1912.5631650151681 2140.443768791083
1913.2456547944657 1941.0859747945706
1913.927980090495 1866.8367957387807
1914.6101409440362 1982.593668043739
1915.2921373958416 1953.5415851837897
1915.9739694866603 1902.2986635461834
1916.655637257214 2233.917831388134
1917.3371407482136 2062.526311976932
1918.0184800003572 2165.0425278928633
1918.6996550543154 2199.059312259392
1919.3806659507554 2025.2465581224594
1920.0615127303208 1971.7633897741057
1920.7421954336423 2154.9418818272816
1921.4227141013343 2188.6374520351283
1922.103068773993 2088.452101592875
1922.783259492202 2188.185050395783
1923.4632862965227 2001.4315925715496
1924.1431492275078 1886.2646441247111
1924.8228483256917 1777.5695521009256
1925.5023836315922 1928.0865233715272
1926.1817551857057 1744.7599572403385
1926.8609630285227 2171.198183443605
1927.5400072005123 2173.9820023042535
1928.218887742125 1843.7526843089527
1928.8976046938005 1911.1061526558995
1929.5761580959588 2152.1879434799184
1930.2545479890086 2055.0669521690293
1930.9327744133352 1679.6572850538948
1931.6108374093164 2046.7053154590917
1932.2887370173066 2173.473800074704
1932.9664732776473 1673.3345857849588
1933.6440462306673 2001.8979485056157
1934.3214559166754 1929.4097018108528
1934.9987023759659 2236.12271259097
1935.675785648813 2042.387557029798
1936.3527057754836 2142.6464214804
1937.029462796223 2243.138411544667
1937.70605675126 1885.4391662466849
1938.3824876808085 1801.9104398980526
1939.058755625072 2013.4454272691669
1939.7348606242267 1896.576210019951
1940.4108027184448 1990.39290812683
1941.0865819478713 2029.955018190328
1941.7621983526478 1927.0512644141388
1942.4376519728921 1835.3854022831433
1943.1129428487038 1939.0847141893423
1943.7880710201734 2051.609913545163
1944.4630365273733 2049.970193994032
1945.1378394103576 1762.5635717866637
1945.8124797091714 1723.4188911299493
1946.4869574638324 1684.136221073965
1947.161272714353 1914.3774615604125
1947.8354255007234 2052.2994053859957
1948.5094158629272 1829.9248586128767
1949.1832438409183 2102.4369629001553
1949.8569094746435 1990.066770332745
1950.530412804037 2100.387500455795
1951.2037538690092 2048.9114626605456
1951.8769327094578 1900.2327441276418
1952.5499493652678 1931.005067679364
1953.222803876306 2024.957761240638
1953.895496282421 1980.7709842431645
1954.5680266234522 2032.8301249799279
1955.2403949392155 1972.7999430738687
1955.9126012695142 1758.552225221159
1956.5846456541403 1890.4244476058752
1957.2565281328643 1855.520294746589
1957.9282487454457 2109.84732798042
1958.5998075316202 2028.256427196824
1959.27120453112 1863.4523053171047
1959.9424397836501 1930.5491746327593
1960.613513328908 2031.1033159418869
1961.2844252065697 2098.4529194235934
1961.9551754563017 1831.1025273453456
1962.6257641177453 1898.2625359221668
1963.29619123054 1755.052410254104
1963.966456834296 1859.4491394328973
1964.6365609686181 1735.5547656260599
1965.306503673086 1957.1245314865969
1965.976284987275 1977.87694293464
1966.645904950734 1849.7342546758168
1967.315363603002 1671.1006903115715
1967.9846609836077 1905.6643677464629
1968.6537971320486 1809.6473802577748
1969.3227720878222 1943.5523933952786
1969.9915858904042 1933.299653353429
1970.660238579252 1884.543537505409
1971.3287301938108 1810.1681321372212
1971.997060773514 1809.0817391004493
1972.665230357772 1724.102346593274
1973.3332389859843 1846.1729862838406
1974.0010866975335 1692.0860896655358
1974.6687735317864 1975.268988330095
1975.3362995280932 1976.9866604196704
1976.003664725793 2008.429245296149
1976.6708691642052 1785.2210552612778
1977.3379128826364 1818.2728405382363
1978.004795920373 2000.597011389408
1978.6715183166925 2179.071243583427
1979.3380801108524 1794.5508806809426
1980.0044813420973 1878.4081231697007
1980.6707220496555 1862.6731065451609
1981.3368022727373 1847.0585879858027
1982.0027220505417 1817.5789017955358
1982.66848142225 1532.0642538042891
1983.3340804270283 1720.8055178473471
1983.999519104027 1845.826862172208
1984.6647974923835 1784.4786148296928
1985.329915631215 1926.8956431704355
1985.99487355963 1781.9755594711241
1986.6596713167146 1766.0222071642208
1987.3243089415428 1749.9640073700507
1987.9887864731754 2024.68156272156
1988.6531039506553 1804.4184779820614
1989.3172614130071 1811.0099913675917
1989.9812588992481 1817.6413890004892
1990.645096448372 1558.2526546575448
1991.3087740993633 1774.3293626937236
1991.9722918911848 1693.8702818712725
1992.635649862792 1887.1812871296108
1993.2988480531185 1978.338862388536
1993.9618865010852 1829.8659488377245
1994.6247652455968 1681.1737389565
1995.287484325545 1703.3729696469559
1995.9500437798033 1848.0727765659194
1996.6124436472292 1762.4506777511328
1997.2746839666706 2006.8221637150643
1997.936764776954 1824.0209076904168
1998.598686116895 1893.8401898448865
1999.2604480252903 2092.010612552619
1999.9220505409212 1994.7803011551375
2000.5834937025593 1592.895069969884
2001.2447775489582 1786.9780599529338
2001.9059021188514 1859.7422377684532
2002.5668674509616 1953.0950496765356
2003.2276735839987 1741.0141084511129
2003.8883205566508 1738.6362749257628
2004.5488084075987 1736.198255469988
2005.2091371755014 1861.4653198510018
2005.8693068990033 1589.6568972173807
2006.5293176167397 1623.0404689046595
2007.1891693673224 1656.6274394942805
2007.848862189354 1639.5892351349241
2008.5083961214223 1735.8684209129337
2009.1677712020955 1763.858954383361
2009.8269874699254 1602.5553824245376
2010.4860449634598 1562.909119456337
2011.1449437212177 1523.2510640482055
2011.8036837817108 1923.6254071988483
2012.4622651834325 1985.033368939114
2013.1206879648653 1886.3060745317755
2013.7789521644736 2065.563033548397
2014.4370578207036 1947.2668686434695
2015.0950049719922 1828.584816912336
2015.7527936567585 1933.625721635202
2016.4104239134067 1836.110760676226
2017.067895780323 2035.4822879200678
2017.725209295886 2090.770485986181
2018.3823644984514 2146.1617613857106
2019.0393614263648 1943.0273884799383
2019.6962001179545 1748.8881663996267
2020.3528806115355 1985.5582858468704
2021.0094029454067 1881.6065957378
2021.6657671578487 1563.8128300212552
2022.321973287133 1834.4571657187425
2022.9780213715148 1688.263928321606
2023.6339114492293 1834.5628092945196
2024.2896435585026 1820.273401659057
2024.9452177375442 1808.183756231955
2025.600634024544 1989.0786694836365
2026.2558924576842 1901.7737792795717
2026.9109930751292 1834.7449707081735
2027.565935915025 1614.7117486444665
2028.2207210155066 2100.4505518880005
2028.8753484146964 2070.301241334308
2029.529818150695 2004.576540443706
2030.1841302615903 1938.5094375574736
2030.8382847854573 1655.2418522299952
2031.4922817603601 1838.057656243811
2032.1461212243357 1792.2326792425301
2032.7998032154192 1543.20361722471
2033.4533277716218 1685.3130209809722
2034.1066949309443 1645.1261686758348
2034.7599047313688 1741.0774945885405
2035.4129572108704 1839.2797032092153
2036.0658524074006 1804.3229417221396
2036.7185903589016 1832.1557187209226
2037.3711711032956 1860.116269047794
2038.023594678496 1818.7119720816413
2038.675861122394 1675.7385632681494
2039.3279704728757 1643.826266104949
2039.9799227678031 1611.9924603192944
2040.6317180450278 1765.9525457161988
2041.2833563423865 1639.4075876437212
2041.9348376977014 1775.4858304214872
2042.5861621487784 1911.832547284917
2043.2373297334088 1924.0982700103264
2043.8883404893695 1884.8978818146375
2044.5391944544208 1842.0831035891945
2045.1898916663158 1863.837944111238
2045.8404321627804 1792.594184645782
2046.4908159815368 1721.0824951462432
2047.1410431602853 1631.4127507677022
2047.7911137367173 1764.578012122522
2048.441027748504 1866.3924350445923
2049.090785233302 1691.1163183047313
2049.7403862287592 1708.7088815823586
2050.389830772503 1621.3362134296192
2051.0391189021466 1533.9270831685349
2051.688250655294 1837.1292540904014
2052.337226069527 1498.5498182121698
2052.986045182417 1522.6431556815605
2053.634708031521 1546.8960016905482
2054.283214654375 1893.1454766462775
2054.931565088511 1470.5488847367697
2055.579759371436 1638.9689240704163
2056.2277975406523 1762.38561900938
2056.8756796336384 1961.6177111611455
2057.5234056878617 1524.8216750680879
2058.1709757407752 1656.8774825768542
2058.8183898298194 1956.4389329694484
2059.465647992416 1857.165302946331
2060.1127502659747 1839.2939379879826
2060.759696687888 1637.7808524412562
2061.4064872955405 1729.7632423171738
2062.053122126292 1905.7151522388624
2062.699601217497 1777.4444156877955
2063.345924606485 1649.2254172712376
2063.992092330587 1840.3600226479223
2064.638104427102 1670.8335696361319
2065.283960933324 2017.7761680693166
2065.92966188653 1694.9272733411642
2066.5752073239855 1820.6413416848877
2067.2205972829397 1596.35624103295
2067.86583180062 1818.8265458273668
2068.5109109142522 1708.1507326891672
2069.15583466104 1675.9336149589867
2069.8006030781708 1643.688221466647
2070.445216202821 1642.1679970526668
2071.089674072153 1854.9282684171842
2071.7339767233116 1903.6667187676037
2072.3781241934303 1747.1000325823857
2073.0221165196253 1932.862273813774
2073.6659537390024 1662.0539665170497
2074.3096358886505 1844.6683335904486
2074.953163005637 1800.0343216170172
2075.596535127028 1414.453606883209
2076.2397522898664 1605.4002403299933
2076.882814531182 1763.3766412519963
2077.5257218879924 1762.217030103921
2078.1684743973 1507.549776906541
2078.8110720960885 1505.0417171022702
2079.453515021336 1604.706829172544
2080.095803209997 1704.4437269839932
2080.7379366990135 1991.6351114369584
2081.37991552532 1859.221791871311
2082.0217397258275 1786.4956423206008
2082.6634093374414 1727.5362465255137
2083.3049243970418 1668.5846714139275
2083.9462849415067 1890.9610520922756
2084.587491007689 1811.534945813505
2085.2285426324324 1762.1482809139925
2085.869439852564 1722.0264630259903
2086.510182704902 1573.1797743689076
2087.1507712262483 1649.7908329088168
2087.791205453381 1630.3484541163418
2088.4314854230743 1732.5784437573716
2089.0716111720867 1795.4989945204786
2089.7115827371617 1414.900172900469
2090.351400155023 1511.434983350182
2090.991063462385 1608.218242501878
2091.6305726959527 1468.8711386542077
2092.2699278924047 1760.645259498188
2092.9091290884153 1753.1804957565334
2093.548176320641 1575.1745462398214
2094.187069625721 1506.1447743008341
2094.8258090402887 1436.9629475104546
2095.464394600951 1685.858083099714
2096.102826344313 1707.6654793449648
2096.741104306955 1980.919019701097
2097.379228525453 1689.1226079723697
2098.017199036358 1836.9896714636332
2098.6550158762147 1985.164668826892
2099.2926790815527 1859.9054647366302
2099.9301886888825 1744.973776717065
2100.5675447347076 1583.6563028795476
2101.2047472555114 1859.9519064952979
2101.841796287761 1697.221015722549
2102.47869186792 1796.3045376650432
2103.1154340324265 1420.6210328894038
2103.752022817709 1724.1224494242597
2104.388458260184 1640.3279541296156
2105.024740396251 1600.4488070955908
2105.660869262292 1643.9948441219938
2106.296844894685 1795.138893785646
2106.93266732978 1646.6010860491392
2107.5683366039284 1525.2829284662544
2108.2038527534532 1661.365452995736
2108.8392158146726 1802.615713870775
2109.4744258238843 1673.9374636156474
2110.1094828173755 1708.5557496064062
2110.744386831422 1722.2130704310391
2111.3791379022787 1735.9340751187842
2112.01373606619 1804.6578306681258
2112.648181359389 1834.8583986142125
2113.28247381809 1802.136932111435
2113.916613478492 1728.0422197489734
2114.550600376786 1730.1492572517786
2115.1844345491445 1558.3772609517769
2115.818116031729 1583.216623541811
2116.451644860679 1739.5486908753319
2117.085021072133 1470.635195652308
2117.718244702204 1629.4391038051785
2118.3513157869984 1594.2567442346356
2118.984234362604 1613.9463844680242
2119.617000465092 1485.5750897913663
2120.249614130529 1596.9367560288601
2120.8820753949585 1708.476941921274
2121.5143842944162 1468.2978828443106
2122.14654086492 1533.4327088151226
2122.7785451424734 1772.0774888453277
2123.4103971630702 1764.1978120520148
2124.042096962681 1756.4938975101893
2124.6736445772767 1735.365291387057
2125.305040042802 1509.2925192155203
2125.936283395191 1611.4999489081395
2126.567374670365 1638.3738539099097
2127.198313904233 1512.695891435238
2127.8291011326855 1544.7702221507616
2128.4597363916037 1576.7280862555046
2129.0902197168507 1530.8628872941058
2129.720551144279 1489.7560253189035
2130.3507307097225 1855.6334642031925
2130.980758449008 1875.513564173057
2131.6106343979427 1593.6249819828968
2132.2403585923203 1944.9815010419243
2132.8699310679276 1702.6043169914617
2133.499351860526 1762.110303996636
2134.1286210058715 1444.428549565036
2134.7577385397053 1306.4417206992089
2135.3867044977487 1926.1762130930485
2136.0155189157176 1972.4201418373596
2136.644181829308 1949.9856799688107
2137.2726932742025 1585.5452291182428
2137.901053286074 1956.776140332911
2138.5292619005777 1604.479424538205
2139.1573191533535 1497.8497629761737
2139.7852250800315 1763.251188538631
2140.4129797162295 1654.1238467063624
2141.0405830975433 1542.300831686142
2141.6680352595613 1548.8118748187421
2142.2953362378576 1555.353016219012
2142.9224860679915 1521.4934607255536
2143.549484785508 1445.8410395769722
2144.1763324259373 1683.959330300126
2144.803029024799 1416.939750436748
2145.429574617594 1537.4175279236774
2146.0559692398165 1783.6510366419545
2146.682212926942 1489.0344166982195
2147.308305714432 1687.0373636026598
2147.9342476377333 1765.6450480185024
2148.5600387322847 1779.4019379801598
2149.185679033506 1937.094962713311
2149.8111685768017 1609.6546995928372
2150.4365073975678 1488.4620946047369
2151.061695531187 1595.6776842215763
2151.686733013021 1833.5424484829978
2152.311619878423 1664.075398487653
2152.9363561627342 1518.6007840970933
2153.560941901278 1406.0855962207988
2154.1853771293663 1808.8227308435864
2154.809661882293 1785.8812974069938
2155.433796195348 1654.131382502468
2156.0577801037944 1522.0140013726837
2156.681613642895 1692.3981578244802
2157.3052968478896 1422.9390597893766
2157.928829754006 1786.302889222966
2158.552212396462 1735.5299606270705
2159.1754448104566 1570.222715403948
2159.7985270311783 1422.9366200579702
2160.4214590938027 1191.803108355131
2161.0442410334927 1267.5657943106144
2161.6668728853874 1368.0929923425251
2162.289354684628 1468.8582181961142
2162.911686466332 1436.5608393121101
2163.533868265602 1674.8332754328953
2164.1559001175337 1945.8654378364358
2164.7777820572046 1710.0761135950931
2165.399514119681 1497.2176618215403
2166.021096340013 1543.849327876533
2166.6425287532384 1884.4372746588633
2167.263811394385 1845.704902199185
2167.8849442984574 1807.05485311475
2168.505927500455 1604.221446043703
2169.126761035366 1761.413246542784
2169.7474449381552 1472.1455175361466
2170.367979243778 1245.0603175804272
2170.9883639871823 1676.634969509721
2171.608599203293 1331.1686001614548
2172.2286849270276 1966.4195171223364
2172.8486211932886 2030.8858471187516
2173.4684080369625 1606.6023718717913
2174.0880454929265 1191.7320614767384
2174.7075335960417 1401.9230962840124
2175.3268723811543 1431.4459422672094
2175.9460618831 1461.0638636749102
2176.565102136701 1421.8405259581123
2177.1839931767627 1546.518694727175
2177.802735038078 1671.5485778324637
2178.421327755432 1563.276823607417
2179.0397713635866 1336.054539520976
2179.658065897298 1520.6089680924165
2180.276211391305 1387.5085619547312
2180.8942078803357 1621.9346408517554
2181.5120553991 1674.6751227659236
2182.129753982299 1398.9744527350833
2182.7473036646206 1534.780532837652
2183.3647044807367 1615.8318063777292
2183.9819564653044 1450.901750130801
2184.599059652968 1592.7804387292028
2185.216014078367 1860.4690818932972
2185.832819776113 1870.1554185604284
2186.4494767808137 1879.7577424523183
2187.065985127063 1447.30438112003
2187.682344849436 1421.6228736626515
2188.298555982501 1509.6739475992777
2188.9146185608097 1597.7804949213992
2189.530532618901 1859.8462997525246
2190.1462981912937 1574.5305083906355
2190.761915312507 1658.8433185106496
2191.377384017036 1529.5888398623651
2191.9927043393654 1520.1097702237848
2192.6078763139667 1721.4538085315016
2193.2228999753006 1460.2913901322752
2193.837775357808 1672.3018485331909
2194.452502495922 1330.5352801803306
2195.0670814240602 1470.2411485669804
2195.6815121766285 1283.8716637272853
2196.2957947880186 1253.5946594661061
2196.9099292926057 1223.2608979302197
2197.523915724758 1590.3706163896952
2198.137754118825 1413.0697529285565
2198.7514445091456 1950.8092186710364
2199.3649869300443 1512.8434808589195
2199.9783814158327 2021.6813228546234
2200.5916280008096 1914.8747137544913
2201.2047267192593 1522.5389649037593
2201.8176776054515 1672.8401067874988
2202.430480693649 1409.767532099271
2203.0431360180955 1760.5511841916493
2203.6556436130195 1845.003800773265
2204.268003512645 1742.2490254499626
2204.8802157511727 1639.2905364699334
2205.492280362796 2012.1211192811988
2206.1041973816937 1583.871297378806
2206.715966842032 1755.8500481577016
2207.3275887779655 1644.6132819674906
2207.93906322363 1437.3048023094511
2208.550390213153 1553.018433760059
2209.1615697806465 1764.5341806776767
2209.7726019602105 1430.415917587767
2210.3834867859277 1437.052636369056
2210.9942242918787 1381.3734448291211
2211.6048145121167 1692.7915324838857
2212.2152574806914 2010.059082145274
2212.825553231638 1576.8711259952968
2213.435701798975 2212.774997020067
2214.045703216707 1679.0916949460684
2214.655557518832 1187.4141793947708
2215.2652647393297 1259.359568958187
2215.874824912169 1202.4818334713195
2216.4842380713 1530.661581371873
2217.09350425067 1353.3096096501595
2217.7026234842033 1595.748468544878
2218.311595805819 1738.946529972225
2218.9204212494133 1626.814765130088
2219.52909984888 1804.499938609089
2220.137631638092 1854.3630767236136
2220.7460166509154 1904.2118869784815
2221.354254921198 1468.7103754929944
2221.9623464827764 1494.4783376098117
2222.5702913694713 1701.2855131692625
2223.178089615096 1820.7724314744723
2223.7857412534486 1484.2581997510374
2224.39324631831 1080.8445672891628
2225.000604843457 1453.8103024027496
2225.607816862641 1661.4178605818543
2226.214882409611 1645.419423437972
2226.8218015180973 1684.205860309814
2227.4285742218217 1591.3081015194646
2228.0352005544864 1616.8569785009754
2228.6416805497847 1561.2777701557247
2229.248014241399 1505.6007175378093
2229.8542016629945 1351.3078707966301
2230.460242848223 1553.6246840571253
2231.0661378307304 1407.2406434995164
2231.671886644139 1260.7230806476841
2232.277489322065 1156.9086048600243
2232.8829458981127 1202.715555896864
2233.48825640587 1551.1655478728408
2234.0934208789095 1680.2757209914514
2234.6984393507955 1809.5848666332113
2235.3033118550793 1462.4689149158828
2235.9080384252975 1400.8136148198867
2236.5126190949723 1457.3637804226914
2237.1170538976166 1327.0387564341356
2237.721342866729 1380.7613203960325
2238.32548603579 1245.797328073696
2238.9294834382763 1535.3234402380272
2239.533335107646 1499.899954570552
2240.1370410773434 1605.2250912197956
2240.740601380803 1535.2804573512599
2241.3440160514474 1465.2409952170078
2241.9472851226783 1532.5961325113435
2242.550408627896 1399.9507963951676
2243.1533866004793 1379.7791476275631
2243.756219073799 1359.5963282865964
2244.3589060812064 1381.4447241001656
2244.961447656049 1254.2052266035505
2245.5638438316564 1284.9187366169383
2246.166094641343 1582.0311394956266
2246.7682001184166 1380.6829036465833
2247.3701602961664 1502.1211955649574
2247.971975207871 1818.1856959160802
2248.5736448867974 1708.5542980408968
2249.175169366197 1348.8814540492224
2249.7765486793123 1626.824219297559
2250.3777828593684 1638.5606973844974
2250.9788719395783 1395.3677562668156
2251.579815953146 1543.9611566645567
2252.1806149332606 1535.9948539853017
2252.781268913097 1527.977389437288
2253.381777925817 1473.6187293632568
2253.9821420045737 1487.967400926985
2254.5823611825035 1702.8121105827947
2255.1824354927303 1498.839949603676
2255.782364968365 1315.6130004787697
2256.38214964251 1132.1734483759124
2256.9817895482483 1284.5199326023426
2257.5812847186553 1380.0950755356553
2258.180635186791 1262.5222223155063
2258.779840985704 1397.4207458537073
2259.37890214843 1433.255779329876
2259.97781870799 1747.8541905535778
2260.5765906973957 1565.4825420319198
2261.175218149645 1601.5916242780174
2261.773701097718 1548.6247307787658
2262.3720395745895 1170.5137687534386
2262.970233613216 1342.4319042608856
2263.568283246548 1558.4818850602564
2264.1661885075137 1273.258833461316
2264.763949429038 1189.2494819575072
2265.3615660440246 1654.381964274712
2265.959038385374 1341.2270614815536
2266.5563664859637 1302.6912522673533
2267.153550378669 1264.160025614743
2267.7505900963424 1603.0947931048872
2268.3474856718312 1385.1933950193768
2268.9442371379664 1471.9389166378385
2269.5408445275643 1407.8207053916992
2270.1373078734377 1566.7025994160574
2270.7336272083758 1320.568786088695
2271.32980256516 1531.7509503302354
2271.925833976562 1683.5546911583606
2272.5217214753357 1760.4437559504702
2273.117465094223 1258.4064427290027
2273.7130648659586 1341.1259802132038
2274.308520823257 1382.448714146124
2274.903832998827 1536.3001502935804
2275.4990014253563 1439.103032778928
2276.094026135528 1354.0396590444682
2276.6889071620117 1599.3600078081965
2277.2836445374614 1509.53081843253
2277.878238294519 1512.3121557360512
2278.472688465812 1439.1460483491328
2279.066995083962 1365.8210063759147
2279.6611581815705 1433.5073526643655
2280.255177791232 1699.9834777870597
2280.8490539455233 1514.937248326303
2281.442786677013 1822.4896786782133
2282.0363760182554 1653.007115894928
2282.6298220017943 1262.1356271540255
2283.223124660155 1751.5101407170519
2283.816284025859 1346.0439588321208
2284.4093001314086 1736.727556034028
2285.002173009292 1234.966574356741
2285.5949026919952 1568.5076123112437
2286.1874892119777 1490.3386418170924
2286.7799326016993 1363.2577806501572
2287.3722328936 1262.533451883078
2287.964390120109 1467.5040318274964
2288.556404313642 1672.7563764485155
2289.1482755066027 1748.246179880681
2289.7400037313873 1517.8000654081338
2290.3315890203703 1263.2783130027806
2290.9230314059205 1505.9814607349906
2291.5143309203904 1464.5376463889068
2292.1054875961236 1348.7193352624088
2292.6965014654506 1845.7416011731134
2293.287372560684 1360.8383945755825
2293.878100914131 1404.3274130167406
2294.468686558086 1447.9545237727416
2295.059129524827 1419.329809655706
2295.649429846617 1385.8524215533182
2296.239587555716 1352.2630723050543
2296.8296026843636 1510.0141848126796
2297.419475264791 1423.6190297846292
2298.0092053292137 1336.9746192709597
2298.598792909839 1698.0921052942151
2299.1882380388597 1483.2372783391806
2299.777540748455 1408.1713121677444
2300.3667010707904 1332.9140434873295
2300.9557190380256 1582.3648886382182
2301.544594682302 1677.934489505933
2302.1333280357503 1687.6571254825067
2302.721919130485 1697.4204551357834
2303.3103679986198 1918.7369949025738
2303.898674672242 1773.665148602271
2304.486839183437 1605.2322158170732
2305.0748615642697 1436.6926135911576
2305.6627418468015 1567.2743891569392
2306.2504800630704 1273.4059674977054
2306.8380762451143 1653.2864766700532
2307.425530424949 1593.66370708437
2308.012842634582 1533.8916746297766
2308.6000129060103 1697.9105177372767
2309.187041271214 1831.4402257155543
2309.773927762164 1485.494558264252
2310.3606724108213 1604.5038113916073
2310.9472752491274 1576.2874180346712
2311.5337363090184 1548.035165696958
2312.120055622414 1430.647499865438
2312.706233221221 1504.4387694643447
2313.2922691373424 1613.6244471875475
2313.8781634026564 1243.2075043322313
2314.463916049037 1352.3014010057166
2315.049527108342 1337.4791544990537
2315.6349966124235 1793.4725597992656
2316.2203245931123 1782.371019765436
2316.8055110822315 1567.396560945019
2317.3905561115935 1351.9059641416172
2317.9754597129977 1262.4468705725435
2318.560221918229 1247.3068691019696
2319.1448427590603 1232.1596862569575
2319.729322267256 1245.2383430362895
2320.313660474563 1517.6347598716488
2320.8978574127195 1332.4206291630305
2321.481913113452 1636.6100635000041
2322.0658276084705 1448.6881081036734
2322.6496009294806 1251.9194531394514
2323.233233108165 1313.0977642966732
2323.8167241762058 1374.4249223971365
2324.4000741652617 1426.6373128114524
2324.983283106987 1547.7673141915889
2325.5663510330232 1687.5563753779425
2326.1492779749933 1281.9118277307668
2326.7320639645204 1586.5273027523003
2327.3147090332004 1763.2849356078077
2327.897213212629 1359.428143554231
2328.4795765343843 1493.7577666983545
2329.0617990300307 1293.5421243804442
2329.643880731124 1811.8855919192865
2330.22582166921 1251.2311685907684
2330.807621875816 1841.5776578662012
2331.3892813824623 1148.121465680288
2331.9708002206517 1043.977251047759
2332.5521784218818 1416.936680732756
2333.133416017634 1520.399030223469
2333.7145130393765 1316.0785687096318
2334.295469518571 1690.6097172600798
2334.876285486658 1753.8556497538598
2335.456960975076 1772.8730057587866
2336.037496015242 1791.9635782718713
2336.6178906385667 1467.15290943829
2337.198144876451 1486.0000704137703
2337.778258760278 1494.6079503365008
2338.3582323214214 1502.372403976851
2338.938065591243 1510.1171830386909
2339.517758601087 1704.589349155073
2340.0973113822965 1458.3015491177025
2340.676723966193 1477.0765784178443
2341.255996384094 1454.4150868847973
2341.835128667295 1687.507218969537
2342.4141208470883 1625.2044310635433
2342.992972954751 1483.1098922260376
2343.5716850215467 1482.8768866303776
2344.1502570787306 845.696439477847
2344.7286891575386 1256.4303032816922
2345.3069812892045 1806.9072656644366
2345.885133504944 1721.3480790550889
2346.4631458359618 1195.0091741348276
2347.04101831345 1225.421100291696
2347.6187509685915 1273.2581121085727
2348.196343832553 1324.6185663036504
2348.7737969364935 1468.5589233390722
2349.351110311558 1301.8029398339663
2349.9282839888765 1426.7542122827304
2350.5053179995757 1245.8600646810175
2351.0822123747585 1316.8158251063053
2351.658967145526 1662.983465151689
2352.2355823429643 1613.5844402194002
2352.812057998144 1564.1848770977354
2353.3883941421263 1265.3303066039202
2353.9645908059647 1632.3818720392885
2354.540648020693 1343.6687930675394
2355.116565817336 1276.4070607086392
2355.6923442269126 1676.5198643865867
2356.2679832804224 1577.6927035854837
2356.8434830088518 1360.1520165327915
2357.41884344318 1326.1603513201374
2357.994064614377 1284.953967137052
