#exp_cfg={"servo_angle": 0.0, "laser_lim": 100.0, "servo_angle_to": 18.0, "laser_wup": 0.0, "bt_dev": "EnSpectr-25AE3", "laser_wdn_max": 0.0, "frames": 10.0, "servo_used": 0, "servo_calib_use": 0, "laser_wdn_min": 0.0, "servo_pix_from": 90.0, "cooler_tout": 300.0, "servo_angle_from": 0.0, "servo_calib": "[-1.9174921013161362e-09, 3.9322238269163779e-05, -0.27385609119055809, 653.59552119713567]", "laser_autoctl": 0, "servo_pix_to": 3682.0, "laser_pw": 100.0, "cooler_on": 0, "laser_volt": 4.0, "cooler_autoctl": 0, "cooler_curr": 70.0, "cooler_startup": 10.0, "laser_fixed_pw": 0, "gain": 1.3, "offset": 2.53059635486, "servo_calib_degree": 3.0, "laser_curr": 55.0, "shutter": 8200.0, "servo_calib_step": 1.0, "laser_fixed_curr": 0, "exp": 2000.0, "ccd_volt": 4.7, "bt_addr": "00:06:66:62:5A:E3", "servo_delay": 500.0, "laser_autooff": 1}
#proc_cfg={"flat_auto_wnd": 200.0, "flat_auto_fr": 200.0, "flat_auto_shift": 5.0, "yconv": 1, "flatten": 1, "flatten_strength": 100.0, "xfrom": 300.0, "auto_max_frame": 2000.0, "auto_signal": 48000.0, "flat_auto_tol": 0.1, "autoclip": 1, "xrel_range": 0.0, "flat_auto_to": 4000.0, "intensity_adj": 1.0, "xrel": 7852.0, "rmhot": 1, "flat_auto_slit": 4.999999999999997, "auto_ini_exp": 300.0, "auto_off": 0, "xto": 2860.0, "flat_auto_ref": "", "flat_auto_rank": 1, "autobackg": 0, "xrel_adj": 0.0, "auto_black_lvl": 1, "base_wnd": 100.0, "sub_baseline": 0, "xconv": 2, "auto_max_exp": 1000.0, "auto_total_exp": 10000.0, "auto_exp": 0, "rmripple": 0, "black_lvl": 8256.85, "shutter_clip_adj": 0.0, "auto_bckg": 0, "flat_auto_thr": 0.9, "subbackg": 1}
316.8218498245369 9362.652305675963
317.89969571804795 9194.177898950198
318.977263876126 9223.635589368288
320.05455438786703 9157.136837633854
321.1315673423287 9186.178839901899
322.2083028285215 9252.254610471671
323.2847609354267 9150.330076372697
324.3609417519747 9117.403427055766
325.43684536705587 9059.19674029356
326.5124718695279 9097.116579483996
327.58782134820103 9066.2883408471
328.66289389184385 9132.626706198735
329.7376895891921 8911.256135650983
330.8122085289342 9019.519142711677
331.88645079971866 8964.134554169019
332.9604164901575 8978.26671436505
334.03410568881554 8864.262365589699
335.1075184842266 9065.21187811156
336.18065496487543 8868.066845818958
337.2535152192122 8968.588898314838
338.32609933564163 8882.969531952474
339.39840740253203 8844.639092785492
340.4704395082099 8854.009315015268
341.5421957409617 8781.71787192389
342.6136761890357 8816.290828470092
343.6848809406365 8745.367340662317
344.75581008392874 8735.436150454709
345.82646370703696 8694.61962072153
346.8968418980512 8689.39366943068
347.96694474501055 8775.168610273322
349.0367723359268 8677.22740983278
350.106324758759 8698.508252479935
351.1756021014353 8577.471938360608
352.2446044518383 8572.349553950991
353.31333189781435 8658.94769263579
354.38178452716966 8610.196533940876
355.449962427665 8615.737040401651
356.51786568702846 8535.6844614683
357.58549439294256 8550.981506682236
358.6528486330535 8592.566231138928
359.71992849496564 8510.575376539271
360.7867340662433 8456.110255471638
361.8532654344144 8518.89551659344
362.9195226869597 8508.554219660626
363.9855059113288 8392.320093068469
365.05121519492604 8360.258624583383
366.11665062511565 8424.633127967069
367.1818122892273 8350.104574721336
368.2467002745434 8354.742375320326
369.31131466831175 8345.596397483978
370.375655557742 8262.052742193877
371.4397230299983 8297.439320364081
372.5035171722102 8266.997636249034
373.5670380714637 8213.423627682236
374.6302858148101 8277.053531989233
375.6932604892554 8310.167706724114
376.7559621817709 8257.960223079095
377.81839097928605 8231.538990845651
378.8805469686886 8249.854795683945
379.94243023683157 8129.751056320449
381.0040408705263 8171.942189100393
382.0653789565458 8115.635336675734
383.1264445816196 8215.033117655943
384.1872378324406 8108.969086860043
385.2477587956637 8116.718671581829
386.3080075579037 8086.6589084989155
387.3679842057336 7970.74374318339
388.4276888256918 8109.70394589963
389.48712150426945 8025.735273429069
390.54628232792857 8027.136306845217
391.6051713830857 7965.974508054942
392.66378875611736 7965.195146861738
393.7221345333637 7994.418218509952
394.7802088011249 7939.696772026111
395.838011645661 8004.0665386391065
396.89554315319765 7903.130325022622
397.9528034099112 7851.49366645187
399.00979250194723 7833.350603531564
400.06651051541485 7847.313842872392
401.1229575363741 7862.792451555333
402.17913365085224 7767.080325330435
403.23503894483656 7875.021531452604
404.2906735042761 7770.39131966527
405.3460374150818 7707.533854734308
406.401130763119 7787.856095010039
407.455953634224 7812.029618920249
408.5105061141876 7774.6352472531025
409.56478828876243 7570.844082796057
410.6188002436629 7631.238171369808
411.6725420645689 7676.934826473298
412.72601383711117 7680.537408061944
413.77921564689314 7649.061692098512
414.8321475794728 7630.361002554366
415.88480972036814 7604.619380232264
416.93720215506437 7634.198904099629
417.9893249690049 7544.185363009094
419.04117824759123 7557.7457772182
420.09276207619223 7496.254534892554
421.144076540133 7497.9542317418845
422.1951217247042 7515.942472823936
423.24589771515275 7513.531478015827
424.2964045966928 7455.0941464649195
425.34664245449494 7429.380348083391
426.3966113736933 7438.358470359941
427.4463114393875 7402.775019612724
428.49574273662984 7382.210367691795
429.5449053504417 7288.355209531319
430.5937993658026 7420.765395990884
431.6424248676558 7343.688057814221
432.6907819409007 7344.932282414606
433.73887067040596 7404.363716565291
434.7866911409965 7384.968089631101
435.8342434374608 7302.436003268003
436.88152764455117 7310.266720944261
437.9285438469724 7310.3012574086415
438.9752921294057 7243.937222985306
440.02177257648145 7304.577161378051
441.06798527279716 7163.070532026407
442.1139303029122 7317.2468453475785
443.1596077513459 7243.378150532774
444.2050177025794 7217.8221073217155
445.25016024105753 7231.673958752076
446.2950354511886 7230.795341800654
447.33964341733736 7187.998589202264
448.383984223834 7165.6423824884305
449.4280579549686 7132.983558563217
450.471864694995 7145.836847178376
451.5154045281306 7161.249249046712
452.5586775385509 7120.1623010017165
453.60168381039693 7100.182309488728
454.64442342776783 7182.5057527242
455.6868964747264 7109.596808508739
456.7291030353008 7041.979405826858
457.77104319347563 7130.629348886861
458.8127170332027 7028.1060204650685
459.854124638392 7107.205844183911
460.895266092919 7135.866634349865
461.93614148061897 7146.789755389536
462.97675088529104 7082.43998412031
464.01709439069236 7076.142196608654
465.0571720805492 7040.708590622516
466.0969840385442 7093.235714811657
467.1365303483253 7132.193864847555
468.17581109350067 7019.404994936644
469.2148263576437 7007.215365654934
470.2535762242878 7033.51032358463
471.29206077693016 7104.646570697582
472.33028009902773 7055.71602385122
473.3682342740012 6978.673956958531
474.40592338523857 7022.552268975043
475.4433475160804 7030.781615808182
476.4805067498364 7015.610629782964
477.51740116978 6945.331429779119
478.5540308591426 7017.082882973753
479.59039590112116 7037.68338381161
480.6264963788726 7071.93579853954
481.6623323755193 7067.061316645743
482.6979039741436 7013.361964657552
483.7332112577915 7100.229735104591
484.76825430947247 7191.912856883027
485.80303321215797 7088.887799613396
486.837548048783 7079.406990655635
487.8717989022425 7156.194049911945
488.90578585539697 7129.776026272962
489.9395089910686 7203.819571329084
490.97296839203955 7058.836958225353
492.00616414106116 7058.7954395297475
493.0390963208429 7071.247336392609
494.0717650140559 7113.4970991165665
495.10417030333883 7066.221954365674
496.1363122712901 7077.027013611951
497.16819100046814 6960.240280763886
498.1998065734024 6915.321339843131
499.2311590725767 6945.217319004072
500.26224858044407 6902.522987017817
501.2930751794156 6868.49597710411
502.3236389518679 6880.351258548636
503.35393998014115 6850.580615706958
504.38397834653733 6872.696939760164
505.4137541333221 6795.639461309246
506.4432674227228 6827.907786529868
507.4725182969323 6736.782833626343
508.5015068381035 6720.344332394879
509.53023312835467 6786.217600876737
510.55869724976765 6693.948554017926
511.58689928438434 6716.033540328508
512.6148393142121 6715.717626553771
513.6425174212218 6739.372381367252
514.6699336873462 6710.463345267487
515.6970881944835 6719.887875629953
516.7239810244901 6664.648858166402
517.7506122591931 6687.586730234778
518.7769819803761 6641.286910035732
519.8030902697901 6678.071741435102
520.8289372091476 6665.57874622838
521.8545228801249 6700.19907630269
522.8798473643619 6658.2572967279075
523.9049107434621 6687.543225753876
524.9297130989908 6653.140797170656
525.9542545124805 6581.884376341812
526.9785350654201 6618.7492322222115
528.0025548392696 6667.907564690273
529.0263139154504 6563.261445092014
530.0498123753423 6621.548621106095
531.073050300296 6581.810442090148
532.0960277716204 6598.381288065849
533.1187448705896 6611.384035579644
534.1412016784416 6605.9980304915125
535.1633982763833 6562.644918925701
536.1853347455726 6543.129412474
537.2070111671401 6563.60375760662
538.2284276221817 6553.899758667304
539.2495841917516 6506.614840461503
540.2704809568677 6458.367894232937
541.2911179985167 6490.775020530028
542.3114953976419 6507.489415123642
543.3316132351592 6410.521630377019
544.3514715919409 6433.146913913912
545.3710705488247 6432.080178746453
546.3904101866156 6424.330501209499
547.4094905860784 6492.87563392275
548.4283118279418 6410.38745500506
549.4468739929034 6477.921371269583
550.4651771616191 6436.302191142504
551.4832214147063 6378.229490632474
552.501006832761 6493.219918175247
553.5185334963226 6393.098637710215
554.5358014859103 6463.160656089793
555.5528108820035 6391.364263620004
556.5695617650363 6456.868773241491
557.5860542154242 6410.469779287718
558.6022883135283 6446.908788873476
559.6182641396881 6369.219201188088
560.6339817741991 6458.517205051425
561.6494412973225 6397.799889512294
562.6646427892883 6495.0041488879015
563.6795863302796 6382.104130607548
564.694272000459 6295.096485086603
565.7086998799423 6384.103309795331
566.7228700488104 6352.254009606573
567.7367825871115 6331.9925441940195
568.7504375748576 6321.642305358366
569.7638350920224 6330.857767769723
570.7769752185486 6245.38424811973
571.7898580343353 6296.3532817803625
572.802483619258 6283.615982459109
573.8148520531431 6295.545480020888
574.8269634157932 6321.009603758202
575.8388177869692 6215.623533930763
576.8504152463938 6173.599340908696
577.8617558737587 6238.119676209747
578.8728397487175 6125.421918451208
579.883666950891 6160.3983359903705
580.8942375598654 6195.773797469946
581.9045516551851 6251.290623050908
582.9146093163617 6317.715355644677
583.924410622878 6135.810003235774
584.9339556541727 6208.478935420125
585.9432444896538 6182.663420422545
586.9522772086875 6231.919949354283
587.9610538906127 6224.0407787432005
588.9695746147318 6211.904243497129
589.9778394603054 6221.539747286524
590.985848506567 6189.479535164502
591.9936018327098 6171.626570445212
593.0010995178891 6031.158053348905
594.0083416412344 6134.899276648701
595.0153282818283 6050.442940876803
596.0220595187293 5999.620025334118
597.0285354309508 6062.8014754578535
598.0347560974806 5963.021707083486
599.0407215972609 5967.8250859865675
600.0464320092051 5964.78422484861
601.0518874121954 5989.652998510381
602.0570878850685 5941.2519884158155
603.062033506636 6037.194965346356
604.0667243556636 5917.732614142665
605.0711605108936 5876.4535196173965
606.0753420510264 6101.098162072622
607.0792690547278 5933.069467172607
608.082941600629 5871.359904481418
609.0863597673306 5974.200432047453
610.0895236333909 5930.778305242694
611.0924332773357 6053.4956761102185
612.0950887776617 5953.368284196585
613.0974902128219 6068.890339316193
614.0996376612384 6050.4390584707235
615.1015312013005 6126.492425198301
616.1031709113595 6174.947528238967
617.1045568697336 6059.8734123181175
618.1056891547069 6113.333804473865
619.1065678445229 6178.275134748408
620.1071930173985 6294.16655745589
621.1075647515099 6319.98986342777
622.1076831250048 6269.570867574786
623.1075482159849 6270.607079798784
624.1071601025305 6199.217374084255
625.1065188626781 6244.8507201599905
626.105624574433 6372.681033714575
627.1044773157682 6322.59380537518
628.1030771646128 6221.183836206879
629.1014241988742 6304.465578849287
630.0995184964158 6353.234125543118
631.0973601350688 6309.477315637111
632.0949491926294 6407.20353626282
633.0922857468631 6238.90835915552
634.089369875499 6229.948583196025
635.0862016562278 6315.31692346535
636.0827811667077 6139.2597712919805
637.0791084845641 6217.369873486614
638.0751836873878 6171.4443321846875
639.0710068527369 6249.391902157609
640.0665780581294 6171.829189372699
641.0618973810506 6122.958180012012
642.0569648989604 6153.039947434072
643.0517806892676 6002.961458990189
644.0463448293649 6152.691799335467
645.040657396592 6020.7680901132635
646.0347184682723 6025.592933036325
647.0285281216875 5972.295637535585
648.0220864340772 5929.176181095886
649.0153934826558 5891.810507232044
650.0084493446047 5842.574753554687
651.0012540970674 5951.223718138265
651.9938078171526 5829.178930403332
652.9861105819346 5758.514713240236
653.9781624684565 5945.581703149299
654.9699635537254 5781.153539337859
655.9615139147136 5872.929490884975
656.9528136283589 5716.989664546408
657.9438627715699 5904.671401419433
658.9346614212154 5788.834107042499
659.925209654135 5675.824226914185
660.9155075471263 5661.335998800952
661.9055551769616 5696.580979516321
662.895352620375 5821.629390092074
663.8848999540678 5643.296013046793
664.8741972547068 5613.471590460626
665.863244598926 5576.97959686772
666.8520420633213 5612.479908269934
667.8405897244611 5543.031340312842
668.8288876588758 5500.4910268675685
669.8169359430613 5552.196541891164
670.8047346534822 5578.348644754146
671.7922838665672 5412.07347485029
672.7795836587156 5530.604039125426
673.766634106285 5584.5436193043615
674.7534352856092 5427.376572736095
675.7399872729766 5399.808952739163
676.7262901446538 5476.396239327962
677.712343976862 5474.316263152565
678.6981488457986 5489.254284483677
679.6837048276229 5381.469974899661
680.6690119984596 5446.324080605942
681.6540704344043 5436.197126154325
682.6388802115107 5413.8575170859785
683.6234414058108 5416.899883600531
684.6077540932874 5390.328493817062
685.591818349907 5378.345583802682
686.575634251587 5460.74128275554
687.5592018742263 5409.953406475097
688.5425212936734 5348.07474730988
689.5255925857564 5424.217116393126
690.5084158262707 5372.205576426086
691.4909910909646 5303.044629977885
692.4733184555644 5342.61709443973
693.4553979957618 5395.218725537184
694.4372297872123 5409.200852092808
695.4188139055404 5393.881673908502
696.4001504263324 5359.723642362777
697.3812394251509 5456.439116164181
698.3620809775111 5450.46178140725
699.3426751589104 5415.619251086048
700.3230220448004 5422.564574094595
701.3031217106054 5466.691132573652
702.2829742317172 5633.025695177731
703.2625796834873 5378.339034931277
704.2419381412474 5445.495412038175
705.22104968028 5484.192588130872
706.1999143758458 5449.039235271627
707.178532303169 5482.660731741772
708.1569035374378 5524.429634818731
709.1350281538107 5637.0374533384875
710.1129062274158 5612.56479907378
711.0905378333373 5751.534181475929
712.0679230466376 5880.584399186858
713.0450619423427 6026.820109789267
714.0219545954424 6145.301228405935
714.9986010808989 6170.3022536904355
715.9750014736292 6320.811244175629
716.9511558485392 6544.46434031041
717.9270642804786 6756.507608230064
718.9027268442787 6815.607558154597
719.8781436147328 6865.948459440726
720.8533146666014 6877.974680045746
721.828240074612 6917.896064975847
722.8029199134635 6919.0559951896375
723.7773542578125 6780.296984991599
724.751543182294 6653.689009043492
725.7254867615029 6674.515210404483
726.6991850700015 6364.1935438826895
727.6726381823228 6414.088935029593
728.6458461729599 6281.5582737508175
729.6188091163858 6283.6353724920455
730.5915270870246 6201.373665592974
731.5640001592856 6184.022929569477
732.536228407529 6227.990171818962
733.5082119060917 6298.520617223612
734.4799507292755 6315.401400751536
735.4514449513481 6265.191852998499
736.4226946465496 6338.900880346365
737.3936998890786 6325.160137587602
738.3644607531078 6164.208709130662
739.3349773127793 6157.559195636044
740.3052496421951 6126.838128735389
741.27527781543 5962.4035917824
742.2450619065221 5825.260476701511
743.2146019894826 5795.004302167601
744.183898138288 5672.122510752318
745.1529504268801 5554.586276237767
746.1217589291682 5345.79312489452
747.0903237190341 5335.137014768911
748.058644870318 5298.675271650913
749.0267224568397 5265.797062357948
749.994556552374 5055.105741183926
750.9621472306771 5123.54509311452
751.9294945654583 5049.075499045321
752.8965986304011 5028.087189854781
753.8634594991636 4989.491452969209
754.8300772453586 5042.22064782922
755.7964519425768 4941.716300700116
756.762583664371 5052.0607446593185
757.7284724842611 4943.145897452071
758.6941184757416 4904.718065507927
759.6595217122667 4923.650975395967
760.6246822672638 4981.024166060143
761.5896002141235 4827.817980644187
762.5542756262093 4853.049747623393
763.5187085768503 4923.0016170648905
764.4828991393406 4783.78714770688
765.4468473869474 4798.878258977179
766.4105533929032 4919.366488305603
767.3740172304078 4799.189450076043
768.3372389726283 4934.9337819101875
769.3002186926988 4815.5691501840865
770.2629564637282 4896.952230648296
771.2254523587872 4802.965900780645
772.1877064509154 4842.531982272294
773.1497188131179 4674.572107258664
774.1114895183728 4830.026841404786
775.0730186396268 4748.619514265083
776.0343062497905 4739.342247865096
776.9953524217381 4654.006807850531
777.9561572283274 4765.417256267988
778.9167207423689 4732.496439196888
779.8770430366476 4690.100585592568
780.8371241839159 4694.009536184414
781.7969642568951 4711.950196371755
782.7565633282757 4782.780584658324
783.7159214707099 4642.023090824385
784.6750387568281 4709.012397769437
785.6339152592227 4736.353880363733
786.5925510504512 4664.331200787471
787.5509462030477 4722.398249590486
788.5091007895098 4683.482195939827
789.4670148823006 4659.910689177688
790.4246885538596 4672.503286937956
791.3821218765861 4639.860178437177
792.3393149228505 4524.795137712766
793.2962677649975 4718.361141623786
794.2529804753303 4643.398867604103
795.20945312613 4678.051814314853
796.1656857896378 4574.395919323704
797.1216785380675 4527.161373334104
798.0774314435985 4594.00566725054
799.0329445783846 4683.012725800214
799.9882180145414 4619.872224910635
800.9432518241574 4589.733421032738
801.89804607929 4623.7269604642215
802.852600851962 4678.555933084848
803.8069162141637 4556.902469409456
804.760992237856 4606.250142357645
805.714828994971 4676.118369860248
806.6684265574077 4694.259090538517
807.6217849970271 4668.741148383772
808.574904385674 4529.881782936614
809.527784795142 4697.25363942032
810.4804262972102 4750.6052209509435
811.4328289636178 4572.574650577206
812.3849928660748 4472.706434175542
813.3369180762638 4501.120631732928
814.2886046658241 4614.358181709812
815.2400527063783 4473.4942872027395
816.1912622695108 4470.9611177087
817.1422334267718 4574.379548807372
818.0929662496856 4551.6629945766945
819.0434608097457 4395.867107054948
819.9937171784059 4491.301314526105
820.9437354271013 4437.263299612302
821.8935156272255 4558.898190113372
822.8430578501484 4422.58106025032
823.7923621672016 4276.13357122856
824.7414286496896 4385.171111574094
825.6902573688876 4441.4069313951495
826.6388483960363 4408.972008963187
827.5872018023492 4382.785016626308
828.5353176590033 4469.828696712546
829.4831960371503 4390.480200405285
830.4308370079016 4297.11466002529
831.3782406423525 4391.057290446695
832.3254070115545 4369.34973997992
833.2723361865319 4308.615123547034
834.2190282382799 4229.249059913969
835.1654832377644 4318.9279058652555
836.1117012559116 4317.153862339526
837.0576823636256 4343.132475888999
838.003426631778 4259.26764270622
838.9489341312074 4225.680089003393
839.8942049327197 4321.436894284906
840.8392391070975 4359.573081003915
841.7840367250865 4200.384658739868
842.7285978573982 4251.008514496314
843.672922574724 4320.521035094721
844.6170109477152 4272.7864135940645
845.560863046996 4263.923189646927
846.5044789431595 4218.556443855094
847.4478587067697 4240.061654766842
848.3910024083561 4380.741798594847
849.333910118421 4265.57177474577
850.2765819074339 4216.6491946486285
851.2190178458332 4301.9918706037
852.161218004032 4331.408287998666
853.1031824524016 4292.253180155012
854.0449112612987 4222.109621023797
854.9864045010327 4302.135467936443
855.9276622418947 4202.849199086033
856.8686845541379 4210.20263444623
857.8094715079915 4260.619132472799
858.7500231736467 4352.059894779804
859.690339621271 4297.092787581423
860.6304209209939 4207.793663696466
861.5702671429244 4204.296684178951
862.5098783571284 4264.471904489086
863.4492546336569 4262.237153264895
864.3883960425155 4166.059761394243
865.3273026536863 4214.803349939071
866.2659745371238 4173.324925252413
867.2044117627465 4365.117567160416
868.1426144004472 4210.665848084571
869.0805825200823 4260.88307915968
870.0183161914847 4192.85820054271
870.9558154844526 4305.284944020339
871.8930804687552 4194.009803813853
872.8301112141307 4152.5976424219425
873.7669077902865 4251.8553744888395
874.7034702669062 4340.553757090744
875.6397987136315 4226.5309381604775
876.5758932000863 4218.207496320613
877.5117537958522 4262.3395948538855
878.4473805704911 4218.464493662281
879.3827735935283 4189.213288063501
880.3179329344603 4326.102680209145
881.2528586627541 4316.05761983101
882.1875508478479 4274.66084353975
883.1220095591489 4201.512152802428
884.0562348660296 4170.389904271472
884.9902268378391 4263.063902228873
885.9239855438955 4202.595727831575
886.8575110534839 4137.362737249938
887.7908034358588 4276.928541322724
888.7238627602474 4203.2037313589735
889.6566890958475 4226.019380256641
890.5892825118208 4127.215691101848
891.5216430773125 4209.328288382669
892.4537708614189 4220.744027558967
893.3856659332196 4135.807441791597
894.3173283617652 4088.776626805382
895.2487582160684 4132.974731485666
896.179955565116 4099.0646328197745
897.110920477864 4110.757738091665
898.0416530232451 4099.556800323143
898.9721532701478 4073.55588160153
899.9024212874428 4207.120358125549
900.8324571439662 4100.34057519142
901.7622609085302 3996.087550070635
902.6918326499072 3976.4625139863906
903.6211724368477 4045.8111971016997
904.5502803380696 4156.9275579098185
905.4791564222614 4153.736644393761
906.4078007580792 4060.2219111879995
907.3362134141571 4054.764140683462
908.2643944590909 4199.011000724501
909.1923439614493 4034.713711874345
910.1200619897754 4080.3915681375197
911.0475486125779 4189.323650812306
911.9748038983344 4142.7296052115
912.9018279155007 4060.782339139678
913.8286207324982 4031.7332383902453
914.7551824177117 4110.203679366628
915.6815130395116 4034.3602855805284
916.6076126662283 3964.283453069841
917.533481366163 4005.529681546245
918.4591192075914 4045.0759852197416
919.3845262587565 4085.16006458231
920.3097025878706 3998.091178987664
921.2346482631237 4015.5144249494647
922.1593633526682 4037.2609576235423
923.0838479246304 4059.3645171872327
924.0081020471061 4104.6992396491805
924.9321257881656 3957.717507149953
925.8559192158464 3983.296068905222
926.7794823981512 3967.234265790566
927.7028154030686 3893.8032783106805
928.6259182985414 3882.5474914551305
929.5487911524906 4043.159896856996
930.4714340328119 4045.9245495907103
931.3938470073608 3847.931754187864
932.3160301439748 3922.803352841336
933.2379835104548 3899.270356810267
934.1597071745709 3999.6336508198156
935.0812012040769 3936.064701385628
936.002465666681 3961.996108720571
936.9235006300696 4008.196558559587
937.8443061619055 3964.6764279658064
938.7648823298077 3885.3217186470674
939.6852292013809 3886.3277844172467
940.6053468441951 3950.4377443517164
941.5252353257874 3840.2068560039274
942.4448947136698 3921.6082071378296
943.364325075323 3886.6259134867823
944.2835264782043 3914.6802839270626
945.2024989897309 3944.191683739413
946.1212426773054 3894.198210120218
947.0397576082851 3966.327027429662
947.9580438500125 4056.341346390662
948.8761014697939 4077.9230226501213
949.7939305349064 3965.2079830894195
950.7115311125999 3963.374320603657
951.6289032700952 3948.815398701578
952.5460470745875 4051.448350234806
953.4629625932339 3941.376142493472
954.3796498931715 4032.339756570621
955.2961090415029 4032.1310624642138
956.2123401053068 3978.972629779358
957.1283431516276 3975.4111959457455
958.0441182474842 3867.6931022565755
958.9596654598663 4095.5178883014714
959.8749848557309 3965.4937820830673
960.7900765020167 3916.4281333383346
961.7049404656209 3956.86730686195
962.6195768134185 3923.2759269196795
963.5339856122537 3981.13820156758
964.4481669289453 3966.631440059997
965.3621208302793 3912.8728093442382
966.2758473830145 3887.4655136103565
967.1893466538822 4036.7275915969353
968.1026187095813 3867.5770986131474
969.0156636167867 3886.6869575072465
969.9284814421426 3932.87911599752
970.8410722522622 3867.9299902416337
971.753436113735 3836.026369903962
972.6655730931161 3838.275517918219
973.5774832569368 3909.993916343007
974.4891666716958 3828.86077266182
975.4006234038698 3768.6284667249033
976.3118535198955 3762.5640309140153
977.2228570861935 3849.6339159343343
978.1336341691494 3854.8825543704634
979.0441848351202 3694.7062734129154
979.9545091504333 3766.5295373419926
980.864607181391 3814.967576961671
981.7744789942699 3801.659516432753
982.6841246553086 3748.27673573117
983.5935442307236 3746.9032871494273
984.5027377867027 3851.179876994314
985.4117053894024 3739.965813462328
986.3204471049557 3729.817259386037
987.2289629994648 3790.9782870635477
988.1372531390007 3851.593751676425
989.0453175896091 3759.6641940179375
989.9531564173067 3816.6399253610157
990.860769688079 3722.9649666502482
991.7681574678918 3713.591977495545
992.6753198226706 3761.767284186494
993.582256818323 3648.1658022384427
994.4889685207218 3694.347019054853
995.3954549957143 3839.5539932442
996.301716309119 3856.8046550713034
997.2077525267232 3757.4879989222545
998.1135637142943 3728.2408822288917
999.0191499375615 3809.9924023078056
999.924511262232 3758.8992168020973
1000.8296477539861 3741.7303360682417
1001.7345594784656 3700.588345603479
1002.6392465012996 3687.4227603402346
1003.5437088880753 3823.649084199244
1004.4479467043584 3783.1520972185326
1005.3519600156869 3602.4006219263333
1006.2557488875718 3778.60561673828
1007.1593133854858 3774.721772902902
1008.0626535748888 3674.5836803247557
1008.9657695212009 3605.4114034046543
1009.8686612898182 3823.134704827565
1010.7713289461135 3828.831242133271
1011.6737725554212 3680.436162320766
1012.5759921830577 3746.4165742892883
1013.4779878943027 3739.138551364352
1014.379759754418 3750.4511321721193
1015.2813078286254 3686.308443639634
1016.18263218213 3654.515860850828
1017.0837328801026 3636.202279615691
1017.9846099876886 3701.023069528598
1018.8852635700023 3619.3201028874814
1019.7856936921362 3576.7067433292154
1020.6859004191447 3714.985598538007
1021.5858838160675 3636.642501188001
1022.4856439479063 3628.4969079893317
1023.3851808796389 3571.855212891454
1024.2844946762143 3731.7642680544222
1025.183585402554 3706.770263180237
1026.082453123554 3470.905618517108
1026.9810979040776 3626.9375850740553
1027.8795198089647 3593.267925629113
1028.777718903024 3598.1941407525774
1029.6756952510368 3594.905196554742
1030.5734489177648 3539.3135437084065
1031.4709799679313 3588.956353948847
1032.3682884662358 3701.5680692955566
1033.2653744773506 3495.950821735267
1034.1622380659192 3536.330283177826
1035.058879296559 3660.2576957914935
1035.9552982338591 3725.167170005689
1036.8514949423825 3642.3427538792325
1037.7474694866614 3672.1341264309876
1038.6432219312028 3603.8359805398904
1039.5387523404825 3838.171764469884
1040.4340607789582 3743.523155425543
1041.3291473110476 3757.9133293053105
1042.2240120011465 3910.5451615913275
1043.1186549136273 3938.1776133228004
1044.0130761128294 3828.3113330175865
1044.9072756630649 3826.517888657526
1045.8012536286205 3962.92105197484
1046.6950100737577 4022.8984953532586
1047.588545062701 4133.7692412389115
1048.481858659663 4022.1616690916126
1049.3749509288118 4197.91011529054
1050.2678219343034 4043.3052997253653
1051.1604717402515 4007.4987109663075
1052.0529004107575 4026.766936018773
1052.9451080098825 4103.1623199036185
1053.8370946016694 4092.809000047041
1054.7288602501267 4028.5440748956107
1055.6204050192446 3956.3684441438795
1056.511728972977 4000.977630903553
1057.402832175254 3951.4725838824997
1058.2937146899785 3799.931045779981
1059.1843765810263 3861.700972261357
1060.0748179122456 3852.747529621115
1060.9650387474576 3785.346927382918
1061.855039150456 3838.3602288762195
1062.7448191850071 3761.8688453030527
1063.6343789148505 3763.767276251593
1064.5237184037014 3824.7806215055048
1065.412837715241 3651.095191693204
1066.3017369131267 3678.828447843235
1067.190416060992 3549.0625577155924
1068.0788752224398 3571.300326447791
1068.9671144610438 3549.980913771256
1069.8551338403558 3616.5960124810567
1070.7429334239023 3625.8897510392003
1071.6305132751695 3509.6481980162775
1072.517873457633 3528.5423532529494
1073.4050140347335 3543.3711066107767
1074.2919350698776 3607.323359691025
1075.1786366264623 3591.468230542131
1076.0651187678395 3554.3458882169093
1076.95138155735 3547.606104581333
1077.8374250582929 3499.705690216301
1078.7232493339507 3594.6937133643064
1079.608854447577 3485.428778529623
1080.4942404623907 3458.7722175402537
1081.3794074415982 3597.9695935011505
1082.2643554483657 3645.7756481675433
1083.149084545841 3551.218729028479
1084.033594797138 3528.1181427191646
1084.9178862653516 3564.4719223303864
1085.8019590135427 3810.29112500697
1086.6858131047484 3578.5308084658964
1087.5694486019802 3641.5675399429406
1088.4528655682225 3686.5815509222157
1089.3360640664287 3789.6850439849068
1090.2190441595321 3735.7228104770065
1091.1018059104317 3747.6718728131214
1091.98434938201 3846.543952543674
1092.866674637111 3850.685345515205
1093.748781738559 3800.9063518876474
1094.6306707491512 3680.6127410977397
1095.5123417316554 3793.049021052086
1096.3937947488157 3754.270368336539
1097.2750298633455 3716.480402178593
1098.156047137938 3737.831247358764
1099.0368466352556 3767.4093089473345
1099.9174284179317 3799.6552420317494
1100.7977925485757 3582.537506507428
1101.6779390897755 3691.1687213834703
1102.5578681040806 3621.085456320503
1103.4375796540226 3623.6782148278885
1104.3170738021054 3515.393191554682
1105.1963506108077 3439.134663771565
1106.0754101425773 3407.4093896360296
1106.9542524598382 3521.579429555887
1107.8328776249855 3474.5990835660064
1108.7112857003904 3393.831053145964
1109.5894767483987 3357.037040120124
1110.4674508313292 3427.85379915643
1111.3452080114657 3324.7205059800954
1112.2227483510815 3414.3175266253747
1113.1000719124077 3308.295951138933
1113.9771787576592 3414.8410501745702
1114.854068949022 3314.4211258232085
1115.7307425486542 3392.2711736826036
1116.6071996186893 3357.725578204661
1117.483440221229 3388.829847800789
1118.3594644183577 3254.27627722429
1119.235272272128 3358.9514291203877
1120.1108638445658 3398.738732849151
1120.9862391976712 3446.392733477719
1121.8613983934229 3382.6960763256893
1122.7363414937627 3366.2439652844596
1123.6110685606182 3384.0879941903595
1124.485579655884 3431.388757017091
1125.359874841426 3388.791419301849
1126.2339541790916 3410.841119140504
1127.1078177306936 3568.9228711318356
1127.9814655580267 3471.8376803739848
1128.854897722851 3451.8654172449774
1129.7281142869106 3383.4261977198985
1130.6011153119125 3462.1618720429315
1131.473900859548 3549.6006073937106
1132.3464709914697 3457.9513076441444
1133.2188257693178 3438.9557878691435
1134.0909652546961 3386.7630915487107
1134.96288950919 3309.6404147489875
1135.8345985943506 3424.73036522265
1136.7060925717087 3319.559090376259
1137.57737150277 3367.923987484252
1138.4484354490069 3434.5434808332807
1139.3192844718778 3333.5220093009384
1140.1899186327992 3222.410136670221
1141.060337993178 3429.22183777539
1141.930542614382 3362.0398377321567
1142.8005325577597 3265.744394606401
1143.670307884635 3232.482971575025
1144.5398686563003 3313.711565072646
1145.409214934025 3249.4727864790448
1146.2783467790541 3213.1536729097907
1147.1472642526023 3305.5841826729024
1148.0159674158622 3345.3007527820073
1148.8844563300026 3230.7507507410737
1149.7527310561618 3159.7544571750323
1150.6207916554504 3130.3172015204445
1151.4886381889592 3164.564447377398
1152.3562707177498 3333.4109470325834
1153.2236893028585 3127.4203331535596
1154.090894005296 3127.6383846506415
1154.9578848860474 3208.8247864764044
1155.8246620060709 3208.4537107671613
1156.6912254262988 3112.4173012373526
1157.5575752076438 3144.701825748038
1158.42371141098 3253.235814720001
1159.2896340971656 3217.233497002687
1160.1553433270346 3142.1407873878393
1161.0208391613887 3161.740853852082
1161.8861216610057 3239.5835100481972
1162.75119088664 3243.889148170238
1163.6160468990201 3153.114038237014
1164.4806897588442 3106.8249244610365
1165.3451195267917 3294.3208125982737
1166.2093362635114 3156.572490820169
1167.0733400296285 3163.9767107475946
1167.9371308857444 3088.0400562114496
1168.8007088924278 3159.2606760222684
1169.6640741102328 3154.748663228155
1170.5272265996773 3070.8517060222143
1171.390166421259 3123.697784767562
1172.252893635452 3085.5778141115393
1173.1154083026995 3256.287183929639
1173.977710483421 3207.9940254949747
1174.8398002380145 3011.544836468779
1175.7016776268483 3109.1459273639475
1176.563342710264 3121.3608428909038
1177.4247955485826 3017.0796079177485
1178.2860362020947 3192.5233847630743
1179.147064731069 3020.2638575124706
1180.0078811957483 3129.7595726680047
1180.8684856563486 3051.7140765540726
1181.7288781730604 3110.639165178562
1182.589058806052 3078.460663952514
1183.4490276154593 3245.213939823581
1184.3087846614017 3039.6909854832334
1185.1683300039676 3113.193588654238
1186.027663703222 3221.841573172759
1186.8867858192025 3151.9513877605227
1187.7456964119228 3110.772220343325
1188.6043955413716 3142.18930833775
1189.4628832675116 3199.3435076449678
1190.3211596502842 3206.291769438849
1191.179224749596 3300.5329943028655
1192.0370786253388 3111.5275840881113
1192.8947213373758 3255.3770971640197
1193.7521529455407 3309.612746413146
1194.6093735096438 3136.70638967191
1195.466383089477 3211.4686730963735
1196.3231817447977 3088.408163514293
1197.1797695353398 3268.5715520474373
1198.0361465208189 3054.547517277796
1198.8923127609214 3030.7539530369154
1199.7482683153048 3218.7980337137915
1200.6040132436028 3330.399235316875
1201.459547605431 3140.7242567286276
1202.3148714603722 3208.65244850562
1203.1699848679855 3162.51785664597
1204.0248878878065 3230.7141148576898
1204.8795805793507 3038.748064636265
1205.7340630020935 3204.679976707118
1206.5883352155033 3158.450935195058
1207.4423972790064 3184.8675471102906
1208.2962492520237 3046.9008706761565
1209.1498911939307 3104.069471863398
1210.0033231640937 3171.8195874186235
1210.8565452218427 3114.4799469310874
1211.7095574264913 2928.5074946430614
1212.5623598373222 3093.1462736121366
1213.4149525135963 2934.9832457784455
1214.2673355145507 3110.141950854034
1215.1195088993936 2988.7679501377233
1215.9714727273113 3040.7431134702665
1216.8232270574663 3050.531098104306
1217.6747719489904 2954.655862750054
1218.5261074609934 2948.536602387605
1219.3772336525653 3033.740438923961
1220.2281505827668 3077.5810200754777
1221.0788583106296 3113.307041146751
1221.9293568951707 2950.0303794441884
1222.7796463953746 2891.6357135595267
1223.629726870202 3070.739844498259
1224.4795983785934 2978.700040262792
1225.3292609794553 2934.412864093084
1226.1787147316809 2883.6603036830993
1227.0279596941327 2970.969249556076
1227.8769959256424 3071.0929018550296
1228.7258234850306 3018.6093043454166
1229.5744424310833 2855.095922183865
1230.422852822563 3000.517336680288
1231.2710547182105 3040.748672585917
1232.119048176739 2973.352798995685
1232.9668332568417 2881.8601710019666
1233.8144100171812 2975.2566741090945
1234.6617785163999 2992.7954845432014
1235.508938813111 2827.5414806207746
1236.3558909659114 2864.4274950799545
1237.2026350333617 3022.9543612765406
1238.049171074008 3019.370224948926
1238.8954991463652 2815.9229080066707
1239.741619308932 2935.0242369950856
1240.587531620169 2997.0792750432097
1241.4332361385277 3058.4939610177607
1242.2787329224248 2885.405931164915
1243.1240220302534 2837.1038208992422
1243.9691035203869 2816.4098300322353
1244.813977451171 3082.981832011891
1245.6586438809263 2945.847754220909
1246.5031028679496 2715.8423169972043
1247.3473544705157 2933.9952707520147
1248.1913987468706 2900.601733641846
1249.0352357552383 2774.815984515272
1249.8788655538228 2847.538467467903
1250.7222882007918 2954.942404255433
1251.565503754302 2998.7707506906318
1252.4085122724755 2696.5979363088836
1253.2513138134182 3035.4309000598096
1254.0939084352049 2930.547483256901
1254.9362961958905 2914.76792396451
1255.7784771535007 2923.1144345505663
1256.6204513660432 3008.5668850620586
1257.4622188915 3096.608008497097
1258.3037797878242 2991.101126386928
1259.1451341129468 2919.676329431842
1259.9862819247755 3002.1793060729588
1260.8272232811978 2934.3696485443074
1261.6679582400666 3083.764840265833
1262.5084868592203 2900.179566803567
1263.34880919647 2860.194587838828
1264.1889253095997 2974.2709184185337
1265.0288352563712 3088.6473951486882
1265.8685390945266 2939.9336126353555
1266.7080368817751 3087.262767990574
1267.5473286758115 3229.1389351008047
1268.386414534294 3114.1546525330023
1269.2252945148703 2892.8552515337933
1270.0639686751547 2974.242394367783
1270.9024370727402 2974.0478898455817
1271.7406997651997 2987.3810313483173
1272.5787568100714 2859.2355225166293
1273.4166082648808 2933.1116483589512
1274.2542541871244 2969.1153381795366
1275.091694634275 3205.5264196099192
1275.9289296637817 2871.6595038565865
1276.7659593330663 3097.9833945069336
1277.6027836995308 2998.7632072645233
1278.4394028205552 3139.686761531239
1279.2758167534867 2958.64625615899
1280.112025555658 2902.762964173509
1280.9480292843746 3052.9826862990612
1281.7838279969128 2910.550161329572
1282.6194217505326 2935.584379950181
1283.4548106024686 2855.065583485902
1284.289994609926 2900.5683299126026
1285.1249738300921 3017.8575601931293
1285.959748320127 2940.7026253244317
1286.7943181371702 2959.679704862262
1287.6286833383328 3001.717294012745
1288.4628439807038 3058.0511516187253
1289.2968001213521 2985.6409043067297
1290.1305518173194 2978.2824463340135
1290.9640991256183 2997.372759744575
1291.7974421032523 2943.2408455092163
1292.630580807183 2947.4882945886075
1293.463515294361 3053.6087664324214
1294.29624562171 3093.3834151523342
1295.12877184613 3009.9291739104106
1295.961094024493 2889.2902966576867
1296.79321221365 3031.2818249969187
1297.6251264704333 3111.2214642529466
1298.4568368516466 3219.5173457860624
1299.2883434140658 3124.3918004044103
1300.1196462144526 2997.360086023559
1300.9507453095375 3151.566995760697
1301.7816407560313 3135.665632960187
1302.6123326106172 3202.8054020841673
1303.4428209299622 3046.567998630363
1304.2731057707024 3343.463535273466
1305.1031871894502 3112.722884910764
1305.933065242798 3234.9620794968264
1306.7627399873181 3154.005578209208
1307.5922114795467 3436.444974356246
1308.4214797760123 3336.8758834934597
1309.2505449332057 3216.0003507073425
1310.0794070076026 3258.8069625442367
1310.9080660556538 3384.396248212391
1311.736522133786 3339.3288915102194
1312.5647752983987 3209.163881070506
1313.3928256058734 3088.296499182747
1314.2206731125661 3342.207253923318
1315.048317874809 3290.7134114848186
1315.8757599489109 3263.856611104551
1316.7029993911547 3303.5543440523825
1317.5300362578055 3340.812380233258
1318.356870605101 3273.592278977697
1319.183502489257 3301.3699951257768
1320.0099319664623 3304.968558477472
1320.836159092889 3428.679510779051
1321.66218392468 3382.408710980694
1322.4880065179532 3170.2980476415755
1323.3136269288134 3290.4433624528515
1324.1390452133292 3453.57143177132
1324.9642614275563 3512.77492597425
1325.7892756275214 3214.675395230806
1326.6140878692295 3194.7302778733747
1327.4386982086617 3468.457533006533
1328.2631067017755 3331.5774454798134
1329.0873134045069 3330.726643456991
1329.911318372764 3175.7872629806398
1330.735121662441 3145.8173043959678
1331.558723329399 3155.59948886836
1332.3821234294774 3128.3835729881457
1333.2053220185007 3124.1311266992884
1334.0283191522612 3134.714851862038
1334.851114886529 3148.91372483424
1335.6737092770582 2932.5715223318066
1336.4961023795695 3003.295956919882
1337.3182942497697 2906.039892464195
1338.1402849433325 2978.0382223559563
1338.962074515921 2841.65952020028
1339.7836630231632 2771.6273219858167
1340.6050505206676 3132.197655909501
1341.426237064028 3020.0350422362235
1342.2472227088037 2870.0004016772164
1343.0680075105338 2731.106681193082
1343.888591524741 2838.772396370054
1344.7089748069138 2976.6275995399837
1345.5291574125276 2823.481902797027
1346.3491393970307 2719.3558433225085
1347.168920815846 2869.870237656381
1347.9885017243778 2906.851642930741
1348.8078821780036 2779.6151090688786
1349.6270622320844 2825.8715876493657
1350.4460419419447 2734.7465595467665
1351.2648213629054 2798.68574281776
1352.0834005502438 2631.795380510218
1352.90177955923 2675.4282588619712
1353.7199584451064 2823.5696460844297
1354.5379372630887 2791.7669578447044
1355.355716068374 2660.1391377594105
1356.1732949161305 2687.4593709274404
1356.9906738615155 2762.0495366007776
1357.8078529596478 2713.6841547942895
1358.6248322656375 2827.9685624539657
1359.441611834567 2671.558388764052
1360.2581917214866 2776.6936601172483
1361.0745719814367 2698.411558245387
1361.890752669433 2563.609249119311
1362.7067338404577 2664.7068025689805
1363.5225155494845 2821.8761365698
1364.3380978514506 2829.2337238827154
1365.1534808012839 2490.742401530545
1365.9686644538815 2479.6687523803384
1366.783648864117 2796.8708580570437
1367.5984340868417 2809.744538156807
1368.413020176893 2779.5841747364616
1369.2274071890715 2714.7691045989227
1370.0415951781652 2768.744752613642
1370.8555841989346 2789.1823119750684
1371.6693743061223 2517.5145665493083
1372.48296555444 2506.21896636432
1373.2963579985844 2779.221934831651
1374.1095516932255 2665.1480178907414
1374.9225466930166 2451.7836610495224
1375.7353430525782 2668.1321882761436
1376.5479408265164 2584.8043150028425
1377.36034006941 2619.425282128027
1378.1725408358216 2697.9246561373343
1378.9845431802805 2611.314739378179
1379.796347157304 2843.4549314406495
1380.6079528213813 2691.5195262998445
1381.4193602269788 2483.692158810371
1382.230569428546 2586.9929438913896
1383.0415804805016 2698.9953091220996
1383.852393437246 2651.2184608687994
1384.6630083531563 2679.090656906498
1385.4734252825892 2523.7869172030596
1386.2836442798798 2663.9095380562303
1387.0936653993322 2683.6736920853346
1387.9034886952395 2612.470562576735
1388.713114221864 2669.2651898838267
1389.5225420334482 2685.1334372217098
1390.331772184214 2600.1915595989026
1391.1408047283585 2466.068763511598
1391.9496397200564 2625.208562540901
1392.758277213461 2713.7607397076213
1393.5667172627054 2712.7271486982495
1394.3749599218918 2628.471537717638
1395.1830052451114 2568.4135417439857
1395.9908532864265 2536.9194384886705
1396.7985040998774 2754.616473173842
1397.6059577394808 2506.801008492107
1398.4132142592352 2517.9826694233566
1399.2202737131156 2506.496471448644
1400.027136155073 2752.8533929591385
1400.8338016390353 2542.3906719833694
1401.6402702189134 2570.4343410357997
1402.446541948586 2595.5308825386087
1403.2526168819204 2525.402716419973
1404.058495072757 2485.8302349151795
1404.8641765749107 2546.4269783223167
1405.6696614421799 2670.388184803735
1406.4749497283356 2865.9904515253047
1407.280041487129 2489.1481740286827
1408.084936772295 2401.980192891092
1408.8896356375335 2700.4358440060787
1409.6941381365323 2608.2662689185368
1410.498444322955 2523.596069745151
1411.3025542504402 2536.3606559588707
1412.106467972606 2650.6942538296794
1412.9101855430508 2612.6638973046856
1413.7137070153458 2434.991031087855
1414.5170324430437 2548.02848835846
1415.320161879672 2632.6151898717553
1416.1230953787435 2835.816488937984
1416.925832993742 2605.582964288354
1417.7283747781275 2468.1554124544487
1418.5307207853439 2622.823831494999
1419.3328710688093 2642.1864590719124
1420.134825681922 2463.400441546419
1420.9365846780584 2597.5175584564663
1421.7381481105713 2784.722159556344
1422.539516032788 2639.8506975421424
1423.3406884980232 2549.8395452790896
1424.1416655595604 2574.914195662911
1424.942447270665 2608.9903391313424
1425.7430336845828 2715.631676327327
1426.5434248545298 2606.374167637062
1427.3436208337116 2748.348774049301
1428.143621675301 2742.857666107202
1428.9434274324558 2870.636641074068
1429.7430381583108 2667.300879973958
1430.5424539059713 2720.072263338083
1431.3416747285337 2796.0282426781223
1432.1407006790632 2846.856098657182
1432.9395318106053 2795.8697244764157
1433.7381681761835 2628.6197047126443
1434.5366098288014 2854.833789759744
1435.3348568214424 2870.7195008569297
1436.1329092070573 2761.0175512008886
1436.9307670385879 2818.007463993419
1437.7284303689503 2946.467455428789
1438.5258992510335 2900.5494364593715
1439.3231737377118 2838.740732021681
1440.1202538818306 2836.574752861511
1440.9171397362225 2825.9915739218686
1441.7138313536925 2780.740032276662
1442.5103287870243 2669.310413169893
1443.3066320889775 2655.803615207721
1444.1027413122956 2891.3589467057054
1444.8986565096966 2702.322142039075
1445.694377733882 2700.0149905312946
1446.4899050375207 2578.9109782167225
1447.2852384732687 2682.3445515651247
1448.0803780937622 2722.658535146048
1448.8753239516063 2560.0220923409656
1449.6700760993954 2504.003921993851
1450.464634589689 2622.8263693281274
1451.2589994750397 2855.843680919931
1452.0531708079689 2505.114510432736
1452.8471486409799 2540.4056992100404
1453.6409330265524 2798.587750133659
1454.4345240171442 2569.4500481072687
1455.2279216651987 2570.680302795847
1456.0211260231263 2578.8691490023944
1456.8141371433194 2865.613007598079
1457.6069550781594 2746.611789234062
1458.3995798799897 2371.1613203865777
1459.1920116011424 2513.396477006648
1459.98425029393 2357.3308090149694
1460.7762960106338 2500.901058734438
1461.5681488035225 2451.542370213725
1462.3598087248392 2494.5970897988236
1463.1512758268036 2664.0527771311963
1463.942550161617 2467.685480307685
1464.7336317814625 2362.0217567043082
1465.524520738496 2497.829927231184
1466.3152170848552 2416.5770343254885
1467.1057208726506 2425.200128669757
1467.8960321539817 2392.2756548443167
1468.6861509809169 2251.5613947260945
1469.4760774055085 2421.4510189186753
1470.265811479785 2390.477743173266
1471.055353255755 2340.609200123094
1471.844702785409 2231.4170092991894
1472.6338601207044 2181.9547796172565
1473.4228253135934 2424.1640079566478
1474.2115984159936 2193.5234026663625
1475.0001794798063 2107.882712141572
1475.7885685569145 2257.4257368291082
1476.576765699172 2284.9209614117394
1477.3647709584238 2272.4673755488716
1478.1525843864802 2447.9010997751357
1478.9402060351367 2302.179953508389
1479.7276359561693 2308.3344826673824
1480.514874201328 2187.4640211743986
1481.3019208223468 2164.9761831152323
1482.0887758709323 2029.5573273323243
1482.8754393987747 2290.038938417287
1483.6619114575406 2105.4603624590927
1484.4481920988783 2142.6398263465103
1485.2342813744108 2200.0534151940774
1486.0201793357446 2386.1470735074827
1486.8058860344572 2125.0080923952823
1487.591401522117 2212.953965201258
1488.3767258502594 2210.2515636845524
1489.1618590704056 2155.3059892918836
1489.9468012340494 1879.217618742173
1490.7315523926754 2192.1000077807175
1491.5161125977356 2231.026614673756
1492.3004819006637 2251.4977216393945
1493.084660352877 2043.7373890446713
1493.8686480057622 2204.1422544448164
1494.6524449106964 2250.768597265246
1495.4360511190262 2370.2519473891452
1496.219466682087 2211.5629037437
1497.0026916511779 2151.883170452884
1497.7857260775945 2199.7595495016376
1498.5685700125996 2226.74594418996
1499.3512235074395 2051.441101863148
1500.133686613337 2000.531459131899
1500.9159593814966 2005.336569884085
1501.698041863101 2002.1100560206341
1502.4799341093094 1998.9729334641543
1503.2616361712662 1981.8196666869808
1504.043148100087 2131.8551244649434
1504.8244699468742 2120.448928740043
1505.6056017626997 2000.1771628493075
1506.3865435986281 2025.0369899245586
1507.1672955056893 2165.2668050881775
1507.9478575348967 1983.9389539019776
1508.7282297372512 2220.592743428333
1509.5084121637192 2110.8918224080567
1510.2884048652577 2105.0436420277747
1511.0682078927948 2109.289775843441
1511.8478212972423 2036.864607401842
1512.6272451294917 2053.3511348555453
1513.4064794404076 2163.188163227768
1514.1855242808433 2174.4976917219747
1514.9643797016215 2135.8446141760573
1515.743045753552 2197.488437081226
1516.5215224874191 2158.2208423253483
1517.2998099539836 2007.6205980164086
1518.077908203999 2123.176095553747
1518.8558172881785 2036.695043258395
1519.633537257234 2180.7651489478712
1520.4110681618404 2233.6200437432917
1521.1884100526604 2105.8654918034727
1521.9655629803365 2139.316982676326
1522.7425269954856 2243.781769946917
1523.5193021487103 2412.6639850129427
1524.2958884905856 1977.6771058431866
1525.0722860716687 2100.5436944394855
1525.848494942502 2114.95513490271
1526.624515153595 2173.5565020402933
1527.4003467554485 2167.7035541959144
1528.175989798534 2236.8403921575095
1528.9514443333064 2099.935352637414
1529.726710410203 2373.4830737105945
1530.5017880796331 2022.6525557840093
1531.276677391992 2056.632381102165
1532.0513783976457 2288.0190722753505
1532.825891146953 2079.528627566692
1533.6002156902414 2157.938594918943
1534.3743520778207 2068.9488225580876
1535.1483003599806 2119.6069337605054
1535.9220605869923 2162.955361744093
1536.6956328091019 2138.9712481998126
1537.4690170765407 2038.259127768495
1538.242213439511 2136.5427634322027
1539.015221948208 2082.4329115190444
1539.78804265279 2005.3079711387522
1540.560675603405 1926.8083510983004
1541.3331208501804 2199.5702681749135
1542.1053784432224 2235.4556441495847
1542.8774484326168 2076.9121901342173
1543.649330868422 2098.222032459178
1544.4210258006842 2070.8792785504384
1545.1925332794308 2110.339476120325
1545.9638533546604 2066.2744161998
1546.7349860763552 1901.0177306803787
1547.5059314944829 2299.3638439515353
1548.27668965898 2040.3608220209721
1549.0472606197673 2129.4622167521184
1549.817644426752 1957.0913738210354
1550.5878411298072 2186.3333278177242
1551.3578507787988 2085.9087287760085
1552.1276734235635 1948.7781027697558
1552.8973091139233 1988.9988118552442
1553.6667578996767 2178.075503307632
1554.436019830604 2000.8863584876049
1555.20509495646 1962.2737082711342
1555.9739833269869 1972.809606323035
1556.7426849919011 1938.3240128451405
1557.511200000903 2041.0144098600063
1558.2795284036674 2035.3881758930752
1559.0476702498509 1999.8802870334978
1559.8156255890954 2116.545674286462
1560.5833944710157 2193.445884838911
1561.3509769452048 1960.6527838251423
1562.1183730612447 2048.6761073993707
1562.8855828686865 2024.4223832394753
1563.6526064170703 2279.848546906904
1564.4194437559127 2197.4217171795854
1565.1860949347047 1955.348733031687
1565.9525600029283 2285.172871100544
1566.7188390100328 2300.9956401309823
1567.4849320054564 2019.7075387348716
1568.250839038612 1987.0045250762846
1569.0165601588997 2028.508464810525
1569.7820954156887 2106.537790808108
1570.5474448583373 2065.0988081186224
1571.31260853618 2018.3822619151956
1572.0775864985299 1866.7274307340808
1572.8423787946813 2098.540231032818
1573.6069854739108 1969.3938548538245
1574.371406585471 2119.375786098986
1575.1356421785986 2150.439224061036
1575.899692302506 2066.7997152631324
1576.6635570063845 2148.786839999483
1577.4272363394157 1991.5329523526434
1578.190730350747 1939.6982434710947
1578.9540390895163 2122.1791680342844
1579.7171626048384 1945.4933709636334
1580.480100945806 1991.5037127243056
1581.2428541614918 2088.8830294352533
1582.0054223009538 2156.1723244024747
1582.767805413223 2176.9459407292165
1583.5300035473156 2112.5620884011832
1584.292016752228 2293.108751822253
1585.0538450769309 2123.7313549896658
1585.8154885703807 1963.2763478634952
1586.5769472815136 1953.9449250083624
1587.3382212592405 2092.1079111130384
1588.099310552463 2302.628021478757
1588.8602152100484 2012.7336316893827
1589.6209352808564 2136.187242946785
1590.3814708137234 2046.9161036468838
1591.14182185746 2129.7999042712186
1591.9019884608679 1915.372175840889
1592.6619706727215 1827.7204297817618
1593.4217685417734 2046.2909878531245
1594.1813821167616 2228.195261719766
1594.9408114464022 1860.167047912766
1595.7000565793933 1995.29022299401
1596.459117564409 2133.2248822926545
1597.2179944501113 1930.3516656663273
1597.9766872851324 1915.7466770855608
1598.735196118092 2052.7439178009818
1599.4935209975883 2000.649312853678
1600.2516619721973 2097.0505111063485
1601.0096190904787 1923.0594404711694
1601.7673924009723 1930.0632629858114
1602.524981952196 1942.3853994135193
1603.2823877926476 1988.5841982008587
1604.0396099708087 1803.788798489247
1604.7966485351371 1733.8444048788613
1605.5535035340745 1950.997569621641
1606.3101750160404 2130.34314979847
1607.0666630294363 1844.6849417362914
1607.822967622642 1768.9859843106083
1608.5790888440224 1862.8598331426826
1609.3350267419137 2050.3452812735036
1610.0907813646445 1885.424820469439
1610.8463527605145 1863.4323744456633
1611.601740977805 1947.088666643062
1612.356946064785 1912.8988555033725
1613.1119680696902 1699.1835880534018
1613.8668070407512 1810.2865671832521
1614.6214630261748 1817.611320849687
1615.375936074137 1984.5140656744475
1616.1302262328118 1853.0575276961567
1616.8843335503425 2005.9135424491246
1617.638258074854 1774.2719571156886
1618.391999854457 1979.432722925684
1619.1455589372363 2000.0846971649676
1619.8989353712623 1908.6910095967262
1620.65212920458 1679.012437393094
1621.4051404852235 1778.0601563364755
1622.1579692611976 2010.680020011734
1622.9106155804966 1795.5439916219675
1623.663079491087 1767.5593363213297
1624.4153610409248 1986.5078947453064
1625.1674602779385 1790.7536388109788
1625.9193772500403 1745.2449022104342
1626.6711120051277 2014.0804826137276
1627.4226645910676 1774.6334454794512
1628.174035055721 1798.856458401692
1628.9252234469168 1923.2653712755316
1629.676229812474 1846.9374980872394
1630.4270542001905 2075.222788943601
1631.1776966578382 1837.3584075145325
1631.9281572331747 1818.1005691709786
1632.678435973945 1993.3822044589808
1633.4285329278573 1888.6921152002167
1634.1784481426203 1639.5509741033197
1634.9281816659113 1821.3525933323679
1635.677733545388 2027.277661284767
1636.4271038286934 1820.6532899160854
1637.176292563452 1884.193412698348
1637.9252997972635 1874.7907834000005
1638.674125577716 1953.049604060475
1639.4227699523672 2133.6129181238603
1640.171232968767 1717.6451988507827
1640.9195146744423 1902.5919474443308
1641.6676151168977 2102.9943425250935
1642.4155343436178 2111.1856096512597
1643.1632724020765 1824.7176772744133
1643.9108293397167 1910.7921020046238
1644.658205203974 1810.736118653759
1645.4054000422566 1827.909173787078
1646.1524139019566 1844.9467074375057
1646.8992468304423 1683.5347973571447
1647.6458988750728 1808.4171870434286
1648.3923700831765 1837.4537088895802
1649.1386605020743 1827.933560127281
1649.8847701790564 2007.9378689607242
1650.6306991614038 1920.6764506281627
1651.3764474963682 1925.5271505235778
1652.1220152311944 1719.9616199819925
1652.867402413096 1887.1541081970547
1653.6126090892776 1897.8972890378682
1654.3576353069184 2010.815434041003
1655.1024811131829 1924.4620763540454
1655.8471465552066 1835.919505892145
1656.5916316801213 2060.0970750160914
1657.3359365350298 1848.278854685116
1658.0800611670165 1776.4637245012739
1658.824005623148 1865.407809905288
1659.5677699504722 1694.9400132260573
1660.3113541960192 1891.4178121152468
1661.054758406799 1833.6104270640055
1661.7979826297997 1779.1200184099775
1662.5410269119966 1718.7906310929393
1663.283891300338 2029.6097755530106
1664.0265758417645 1728.647557030107
1664.7690805831826 1854.9410503515778
1665.5114055714948 1813.1036601765318
1666.2535508535748 1752.2924195270577
1666.9955164762814 1691.2317929771411
1667.7373024864555 1838.7598781100937
1668.478908930916 1899.0887446862082
1669.220335856462 1805.9720710177394
1669.9615833098778 1821.3665164251238
1670.7026513379296 1791.2281511721744
1671.44353998736 1833.642201831166
1672.1842493048916 1814.239759806584
1672.9247793372379 1759.305005200135
1673.6651301310812 1866.3294527393532
1674.4053017330934 1782.407715977716
1675.1452941899242 1585.5513358107678
1675.885107548207 1745.985260511016
1676.6247418545518 1543.7285074103106
1677.3641971555535 1627.7013206549886
1678.1034734977893 1860.2342150277277
1678.8425709278108 1698.8504238738453
1679.5814894921605 1874.8130260225341
1680.320229237359 1771.9041672948733
1681.0587902098978 1960.9179032962143
1681.7971724562685 1823.9276161049906
1682.5353760229264 1693.927209233637
1683.2734009563173 1883.8623145484755
1684.0112473028657 1569.051947714099
1684.7489151089794 1938.9260097469928
1685.4864044210462 1800.8041821113281
1686.2237152854377 1570.0497630552798
1686.960847748498 1902.5752494473793
1687.6978018565642 1643.4940268748826
1688.434577655944 1768.836040071927
1689.1711751929379 1696.459352568953
1689.9075945138156 1856.2866475986898
1690.6438356648396 1770.7991868440681
1691.3798986922448 1432.7440107740447
1692.1157836422499 1701.102478351358
1692.851490561059 1638.3302830912075
1693.587019494853 1718.2153878307465
1694.3223704897991 1553.7154149063413
1695.0575435920364 1548.7537311308017
1695.792538847696 1931.4595180419262
1696.527356302886 1713.2212614106131
1697.2619960036936 1516.6809634941317
1697.9964579961907 1575.9224916861197
1698.730742326432 1313.3281075132993
1699.4648490404488 1459.7033079935713
1700.1987781842563 1637.7630384258484
1700.9325298038548 1725.9160655571566
1701.6661039452174 1891.2033718570096
1702.3995006543082 1688.4023407527147
1703.1327199770658 1746.0684691316503
1703.865761959416 1512.924349660691
1704.598626647261 1861.173484793448
1705.3313140864866 1613.9535093708607
1706.0638243229587 1529.898558514773
1706.7961574025303 1660.261028449142
1707.528313371029 1632.1903514769174
1708.260292274268 1558.2210035206404
1708.9920941580403 1558.6790574883557
1709.7237190681226 1618.1897096301414
1710.4551670502697 1592.562958960413
1711.18643815022 1383.190965430531
1711.9175324136959 1486.5778103972618
1712.6484498863938 1590.1158535359482
1713.379190614005 1371.5599666008839
1714.109754642188 1454.1848471779417
1714.8401420165883 1524.4197268147313
1715.570352782839 1577.4001756539076
1716.3003869865497 1630.5379544553277
1717.0302446733076 1445.8123012856308
1717.7599258886876 1568.6453881473033
1718.4894306782444 1487.2027559314718
1719.2187590875183 1781.2570740732167
1719.9479111620203 1704.2864170314347
1720.6768869472544 1536.6558110140506
1721.4056864887025 1785.0669053487115
1722.1343098318284 1774.6209235223737
1722.8627570220742 1597.6488283522492
1723.591028104871 1440.6226289843203
1724.3191231256242 1335.1280742497322
1725.0470421297232 1476.017228796693
1725.7747851625427 1618.5128847496953
1726.5023522694337 1581.1188166432762
1727.2297434957363 1505.1480516150789
1727.9569588867635 1338.5796963251692
1728.6839984878152 1341.131370969056
1729.4108623441734 1343.7460148197717
1730.1375505011038 1603.5619556181953
1730.8640630038426 1416.666751106585
1731.5903998976264 1455.7770456703206
1732.316561227657 1529.9757897293418
1733.0425470391274 1390.7559691547367
1733.7683573772065 1482.7211889565299
1734.4939922870508 1463.9983531334979
1735.2194518137949 1513.6437576123294
1735.9447360025606 1606.725100899938
1736.669844898439 1483.4018635630832
1737.3947785465189 1429.14872461211
1738.1195369918605 1333.427976295742
1738.8441202795093 1418.5792367073313
1739.5685284544943 1592.4761308983714
1740.292761561821 1535.3691174982882
1741.0168196464838 1536.3203871032533
1741.7407027534518 1547.203066708095
1742.464410927687 1733.7011302359308
1743.187944214118 1486.2040313339091
1743.9113026576688 1472.6374483992602
1744.634486303241 1463.7573496502287
1745.3574951957125 1679.5164678736342
1746.0803293799509 1612.5088925188056
1746.8029889008048 1540.8424057294317
1747.5254738031017 1484.519486244318
1748.2477841316504 1401.8631474028198
1748.969919931249 1466.6367888075015
1749.6918812466665 1366.7782047831615
1750.4136681226646 1608.1827927058234
1751.1352806039777 1415.2825940413682
1751.856718735331 1243.7494471165323
1752.5779825614281 1322.0029862500182
1753.2990721269507 1564.5520741030853
1754.0199874765676 1521.959902885287
1754.7407286549314 1293.75469174692
1755.4612957066693 1327.9076561062743
1756.1816886763954 1352.6400916837795
1756.9019076087097 1465.5903011091066
1757.6219525481865 1451.8286744495208
1758.3418235393856 1405.0022490923093
1759.061520626854 1432.393143676573
1759.7810438551096 1644.6288315320758
1760.5003932686614 1340.4386291932453
1761.2195689119999 1516.7152920367055
1761.938570829594 1503.334239725889
1762.657399065898 1591.29995975825
1763.376053665348 1378.6167523112329
1764.0945346723602 1279.745958224939
1764.812842131334 1248.0890650932688
1765.5309760866512 1216.4661700130384
1766.2489365826787 1388.575236993845
1766.9667236637597 1357.5557599968593
1767.684337374223 1274.421635176081
1768.401777758383 1274.163356900402
1769.1190448605284 1239.1370959104136
1769.836138724937 1265.8609175818506
1770.5530593958665 1471.109782417177
1771.2698069175603 1633.1580984831141
1771.9863813342326 1424.3518923084175
1772.702782690094 1347.1038767888517
1773.4190110293293 1519.7049421498668
1774.1350663961111 1487.620483747861
1774.8509488345844 1361.1970162215016
1775.5666583888924 1477.210092604502
1776.2821951031437 1617.2884295964898
1776.9975590214362 1268.1691361182902
1777.7127501878585 1512.301248477245
1778.4277686464684 1450.1512500818092
1779.1426144413108 1584.3300704919052
1779.8572876164162 1633.8113167281094
1780.571788215797 1266.826928111393
1781.2861162834415 1372.519359769231
1782.0002718633277 1372.276878268684
1782.7142549994132 1510.5188033309198
1783.4280657356376 1403.9665574293008
1784.141704115922 1354.4041859723768
1784.855170184177 1349.0639649355458
1785.5684639842839 1468.858929499863
1786.2815855601148 1492.1505819294582
1786.9945349555237 1515.4649069681418
1787.707312214343 1359.5156798215912
1788.4199173803918 1329.4276595036845
1789.132350497468 1299.403386306978
1789.8446116093583 1318.5598753073264
1790.556700759822 1273.6409302992558
1791.2686179926077 1319.809359284152
1791.9803633514493 1298.4917489961626
1792.6919368800554 1235.5190396995379
1793.4033386221236 1445.0657139035397
1794.1145686213295 1464.6019870316093
1794.8256269213307 1536.5163226636269
1795.536513565774 1438.2075268199765
1796.247228598284 1205.2269335945207
1796.9577720624693 1358.3145492858357
1797.6681440019165 1428.7201766974729
1798.3783444602013 1254.1512416114763
1799.0883734808776 1368.948160218223
1799.7982311074884 1534.140903778431
1800.5079173835475 1460.3899505094691
1801.2174323525633 1440.0695788491653
1801.9267760580187 1375.0406694139688
1802.635948543386 1475.136679224302
1803.3449498521113 1352.8683302491604
1804.0537800276325 1508.4400587177129
1804.7624391133668 1328.8751978713267
1805.47092715271 1162.3566471384506
1806.1792441890484 1257.622440407122
1806.8873902657433 1487.4408532813152
1807.5953654261448 1345.6999255855876
1808.3031697135812 1282.6990881994777
1809.0108031713662 1316.0415103366659
1809.71826584279 1308.636826620648
1810.425557771141 1302.838467892201
1811.1326789996747 1296.96259822237
1811.839629571632 1291.0089046672251
1812.5464095302468 1376.7045463839163
1813.2530189187182 1416.5384580108878
1813.959457780249 1303.636299360401
1814.6657261580076 1452.7941992454193
1815.371824095153 1318.9216590511048
1816.0777516348262 1197.91489977109
1816.78350882015 1076.8323998716317
1817.4890956942272 1174.4089468667605
1818.1945123001533 1236.9741361815263
1818.8997586809928 1346.5251830194488
1819.6048348798067 1245.8998068678825
1820.3097409396287 1302.7433885262285
1821.0144769034796 1368.8259390069338
1821.7190428143622 1434.9004640763028
1822.423438715261 1516.0584377689017
1823.1276646491478 1239.459430938985
1823.8317206589727 1360.7786197397613
1824.5356067876692 1370.365642451246
1825.2393230781581 1243.7800735577678
1825.942869573335 1207.9026368381765
1826.646246316086 1182.9397952115469
1827.3494533492758 1371.574210716655
1828.052490715756 1321.4353709614184
1828.7553584583547 1304.116349851693
1829.458056619891 1478.7129852858304
1830.1605852431585 1332.713080777719
1830.8629443709433 1155.506110116327
1831.5651340460063 1313.554101981479
1832.2671543110919 1207.126541959847
1832.9690052089318 1370.5583812486252
1833.6706867822395 1108.0930808395804
1834.3721990737104 1340.285678322428
1835.0735421260233 1401.4281050160791
1835.774715981841 1220.0928593582707
1836.4757206838058 1418.1462925254418
1837.1765562745459 1214.9639378832876
1837.8772227966747 1170.4110815595313
1838.5777202927839 1281.0396621250807
1839.2780488054523 1249.8914110639398
1839.9782083772352 1237.6044143359682
1840.6781990506806 1513.5928742759356
1841.378020868313 1325.4498619082203
1842.0776738726418 1292.134189959146
1842.777158106157 1214.1814807818316
1843.4764736113375 1260.8432888560894
1844.1756204306403 1495.7192681554282
1844.8745986065078 1365.6563506226323
1845.5734081813607 1225.4237544131056
1846.2720491976124 1227.6430332366676
1846.970521697649 1268.4610060803398
1847.6688257238511 1453.380515708517
1848.3669613185684 1203.3447292824578
1849.0649285241452 1109.0825629324934
1849.7627273829057 1183.207641543452
1850.460357937156 1257.3635012224424
1851.1578202291857 1104.2407112694436
1851.8551143012664 1295.029010705522
1852.5522401956569 1201.8887139572964
1853.2491979545957 1379.3669768396078
1853.9459876203055 1120.5115093132508
1854.6426092349902 1118.4280748896206
1855.3390628408451 1179.4305243109598
1856.0353484800362 1437.329253018188
1856.7314661947203 1388.3240311256354
1857.4274160270397 1219.183758603936
1858.123198019115 1274.6284573206424
1858.8188122130487 1129.3816914366066
1859.5142586509319 1253.2566829906038
1860.209537374838 1272.4357524955597
1860.9046484268183 1297.7020132860985
1861.599591848917 1442.7887002805314
1862.294367683151 1156.3071217464424
1862.988975971528 1198.0090608780781
1863.6834167560355 1256.2868450165522
1864.3776900786452 1417.3707116171145
1865.0717959813119 1225.8304612123225
1865.7657345059724 1200.558150237711
1866.4595056945564 1296.557899047179
1867.1531095889586 1326.38577972964
1867.846546231076 1375.5342476792032
1868.5398156627743 1424.806710438195
1869.2329179259123 1189.6747242073664
1869.9258530623283 1434.27143718731
1870.618621113843 1186.4395122622723
1871.3112221222636 1111.050296172812
1872.0036561293764 1154.9538203169718
1872.695923176956 1308.767924353092
1873.3880233067594 1285.1184601760087
1874.0799565605212 1151.4039122477225
1874.7717229799673 1183.1231541285263
1875.4633226068036 1372.729639561666
1876.1547554827175 1312.9567567816318
1876.8460216493859 1125.9297913431346
1877.5371211484617 1266.4882146483274
1878.2280540215852 1174.1948816226547
1878.9188203103804 1353.0546532207036
1879.6094200564548 1218.1271128355852
1880.299853301396 1200.446485854274
1880.9901200867826 1516.3349603120591
1881.6802204541673 1351.4253089224837
1882.3701544450942 1419.0571208962874
1883.059922101087 1396.5097338721
1883.7495234636517 1373.9068762512911
1884.4389585742792 1202.100274840373
1885.1282274744517 1128.9504410043016
1885.8173302056166 1166.7048678720444
1886.506266809225 1204.5115173304898
1887.195037326701 1079.4404122527942
1887.8836417994517 1228.5083601424874
1888.5720802688702 1464.5448285992302
1889.260352776333 1347.5272135741575
1889.9484593632042 1276.928132879079
1890.63640007082 1238.5088055633807
1891.3241749405151 1267.3176430053493
1892.0117840135954 1296.1919097888135
1892.6992273313572 1267.6262996834635
1893.3865049350788 1201.2407231150241
1894.0736168660223 1453.2719573922855
1894.7605631654333 1274.284141390068
1895.4473438745408 1065.2277166066176
1896.133959034556 1132.6799980272876
1896.820408686679 1200.1655685124647
1897.506692872088 1487.1013067264619
1898.192811631945 1186.2084816240813
1898.8787650073991 1146.2246601714326
1899.5645530395832 1250.0491969014715
1900.2501757696118 1378.5135577904034
1900.9356332385796 1477.36535895919
1901.620925487574 1205.2561882064842
1902.3060525576602 1337.4575248701733
1902.9910144898859 1364.18978091086
1903.6758113252872 1144.6667195397818
1904.3604431048789 1228.7233381163828
1905.0449098696663 1414.132669142064
1905.7292116606295 1191.3055474147666
1906.4133485187394 1333.2543383623247
1907.0973204849488 1059.5379814415414
1907.7811276001976 1050.6042960361942
1908.4647699053967 1191.8574841010943
1909.1482474414588 1143.984117812522
1909.8315602492694 1095.9619851239215
1910.5147083696957 1392.7650610317592
1911.1976918436012 1219.231317950029
1911.880510711815 1074.8003551168647
1912.5631650151681 1124.8711451572487
1913.2456547944657 1174.9845371297363
1913.927980090495 1128.7823584472594
1914.6101409440362 1186.799153802926
1915.2921373958416 1421.3032351474556
1915.9739694866603 1235.65946043725
1916.655637257214 1404.9201442374747
1917.3371407482136 1272.7001616551902
1918.0184800003572 1468.1786910009628
1918.6996550543154 1433.0935307861087
1919.3806659507554 1190.1142571533462
1920.0615127303208 1313.3873648676265
1920.7421954336423 1334.5838046322656
1921.4227141013343 1310.2205364976116
1922.103068773993 1258.8471753403644
1922.783259492202 1286.504205838879
1923.4632862965227 1244.4303045572037
1924.1431492275078 1133.4468492638905
1924.8228483256917 1137.010769636926
1925.5023836315922 1150.8945889121574
1926.1817551857057 1299.7175381094232
1926.8609630285227 1188.6739362422168
1927.5400072005123 1379.0075327074421
1928.218887742125 1234.276182384017
1928.8976046938005 1034.0872746366613
1929.5761580959588 1205.8112763796544
1930.2545479890086 1232.488695970966
1930.9327744133352 1251.2997447560297
1931.6108374093164 1270.1863184575889
1932.2887370173066 1466.684164679173
1932.9664732776473 1383.0400056662183
1933.6440462306673 1299.1535809668278
1934.3214559166754 1294.8979107710693
1934.9987023759659 1534.7064934588857
1935.675785648813 1309.9316501537744
1936.3527057754836 976.5968699282848
1937.029462796223 1041.217713469759
1937.70605675126 1106.000788439896
1938.3824876808085 988.3189532107701
1939.058755625072 1156.0839510265246
1939.7348606242267 1143.105910114133
1940.4108027184448 1184.5119611498978
1941.0865819478713 1133.7981719181262
1941.7621983526478 1082.9610754621267
1942.4376519728921 1093.7726124561364
1943.1129428487038 1226.363061815703
1943.7880710201734 1279.5489731874504
1944.4630365273733 1265.5486458219975
1945.1378394103576 1088.909213500701
1945.8124797091714 1029.8265902509233
1946.4869574638324 970.5906497100448
1947.161272714353 1113.3284654713993
1947.8354255007234 1236.0268143598055
1948.5094158629272 1204.284223461074
1949.1832438409183 1279.8546467279352
1949.8569094746435 1249.0490539658767
1950.530412804037 1362.5837647505136
1951.2037538690092 1307.5397942616994
1951.8769327094578 1167.9177398527588
1952.5499493652678 1145.5948547568487
1953.222803876306 1332.265033658336
1953.895496282421 1377.081378267012
1954.5680266234522 1228.0857742190924
1955.2403949392155 1300.0537832279063
1955.9126012695142 1252.129654280092
1956.5846456541403 1204.133957916263
1957.2565281328643 1195.1491350869003
1957.9282487454457 1285.853290629417
1958.5998075316202 1285.8029837663435
1959.27120453112 1091.075818926028
1959.9424397836501 1181.0620105169055
1960.613513328908 1312.3731773302466
1961.2844252065697 1186.3992782928328
1961.9551754563017 1336.039156826009
1962.6257641177453 1177.8719956377024
1963.29619123054 1043.016618815812
1963.966456834296 1038.758560418523
1964.6365609686181 1105.3219448044888
1965.306503673086 1290.1006440846327
1965.976284987275 1155.7989371671488
1966.645904950734 1262.8544446832398
1967.315363603002 957.6974556302548
1967.9846609836077 1117.9535826836632
1968.6537971320486 1125.2844310470055
1969.3227720878222 1211.5651283503034
1969.9915858904042 1200.0940467219293
1970.660238579252 1388.2275034610739
1971.3287301938108 1251.3827406768219
1971.997060773514 1133.3261391966191
1972.665230357772 934.1335811939882
1973.3332389859843 1122.9663301865298
1974.0010866975335 1098.1184682648395
1974.6687735317864 1287.5423354458244
1975.3362995280932 1331.3526187490804
1976.003664725793 1197.3196824250874
1976.6708691642052 1033.1597849491204
1977.3379128826364 1111.4742349112207
1978.004795920373 1341.1573233837607
1978.6715183166925 1165.5917272875317
1979.3380801108524 1361.1299302592338
1980.0044813420973 1163.960988810429
1980.6707220496555 1186.681396433982
1981.3368022727373 1209.524052884954
1982.0027220505417 1154.5340152332692
1982.66848142225 1072.5262675503516
1983.3340804270283 990.4348930424625
1983.999519104027 1200.9371472155353
1984.6647974923835 1187.1019302532748
1985.329915631215 1181.2617998206404
1985.99487355963 1235.7007935056665
1986.6596713167146 1301.2596581477153
1987.3243089415428 1320.0433610294356
1987.9887864731754 1338.8240701057389
1988.6531039506553 1028.1773622136627
1989.3172614130071 1428.9640750204676
1989.9812588992481 1164.3820971764158
1990.645096448372 889.2377900224674
1991.3087740993633 1166.474259484635
1991.9722918911848 1103.6982832102408
1992.635649862792 1208.2018010261
1993.2988480531185 1189.0468330193312
1993.9618865010852 1146.5169465239803
1994.6247652455968 1103.951889710816
1995.287484325545 1042.0005518997414
1995.9500437798033 1120.6853020359044
1996.6124436472292 1105.6712408700491
1997.2746839666706 1197.9731071207743
1997.936764776954 1064.3373392702083
1998.598686116895 1012.3364461186882
1999.2604480252903 1464.9011148243048
1999.9220505409212 1343.333080496017
2000.5834937025593 1252.2626618085885
2001.2447775489582 1160.9150147953837
2001.9059021188514 1198.0641703443093
2002.5668674509616 958.8588979902619
2003.2276735839987 1195.887158836813
2003.8883205566508 1371.2387650652392
2004.5488084075987 1106.6205432670156
2005.2091371755014 1168.3837175110611
2005.8693068990033 989.194577105775
2006.5293176167397 992.580796391987
2007.1891693673224 996.0623903986258
2007.848862189354 881.8830768374517
2008.5083961214223 1065.6301558545574
2009.1677712020955 1108.4476742184372
2009.8269874699254 965.0859325234782
2010.4860449634598 980.3933648580166
2011.1449437212177 995.7987169314238
2011.8036837817108 1272.0948863635922
2012.4622651834325 1300.1082069660881
2013.1206879648653 1196.165330391889
2013.7789521644736 1060.440913115675
2014.4370578207036 924.309333443645
2015.0950049719922 1011.0169823898881
2015.7527936567585 1314.1772879187054
2016.4104239134067 969.6471021756879
2017.067895780323 930.8386311317208
2017.725209295886 891.8925932429571
2018.3823644984514 1323.7746903700577
2019.0393614263648 1125.8923949782961
2019.6962001179545 1007.2276976429033
2020.3528806115355 1171.5386312281646
2021.0094029454067 1295.7749910072207
2021.6657671578487 1027.3680942288258
2022.321973287133 1131.4880998829249
2022.9780213715148 988.5524639567614
2023.6339114492293 914.9685079938463
2024.2896435585026 1115.1684184128376
2024.9452177375442 1105.154379111158
2025.600634024544 1167.3752814500408
2026.2558924576842 1229.8330560871123
2026.9109930751292 1301.1742823105606
2027.565935915025 1300.1663063104952
2028.2207210155066 1299.138671718359
2028.8753484146964 1420.92420357685
2029.529818150695 1326.3568268144822
2030.1841302615903 1231.3969293539474
2030.8382847854573 999.494358286126
2031.4922817603601 1193.4214040316892
2032.1461212243357 1153.3377708979085
2032.7998032154192 902.4694777996616
2033.4533277716218 1025.2520979254896
2034.1066949309443 1051.4743872256286
2034.7599047313688 986.3791971868604
2035.4129572108704 1194.0426927830663
2036.0658524074006 1189.4365556387506
2036.7185903589016 1256.4770579189242
2037.3711711032956 1225.507831384811
2038.023594678496 1226.5972612863093
2038.675861122394 1169.2387947324196
2039.3279704728757 1309.916492873939
2039.9799227678031 1261.0717052684674
2040.6317180450278 1212.1905294769747
2041.2833563423865 1156.0040971929138
2041.9348376977014 1378.7482435931856
2042.5861621487784 1325.9046118958177
2043.2373297334088 1374.2663433895846
2043.8883404893695 1275.3343617087605
2044.5391944544208 1100.1261780501613
2045.1898916663158 1304.5538138638165
2045.8404321627804 1160.7077062495605
2046.4908159815368 1016.54211853009
2047.1410431602853 914.1120498700966
2047.7911137367173 1070.4177230232299
2048.441027748504 956.5708045172029
2049.090785233302 1180.2823680269205
2049.7403862287592 1068.5656560439497
2050.389830772503 1058.946400079048
2051.0391189021466 1049.3479666225949
2051.688250655294 1088.127954696246
2052.337226069527 1001.0484313618848
2052.986045182417 1283.1143986893817
2053.634708031521 814.3855162042626
2054.283214654375 1224.2843351894644
2054.931565088511 857.5204737159698
2055.579759371436 1001.6901498818892
2056.2277975406523 1236.4743226237601
2056.8756796336384 1099.9593349550407
2057.5234056878617 963.1197257376762
2058.1709757407752 1005.463429396145
2058.8183898298194 1282.1587709933297
2059.465647992416 1306.2253806379927
2060.1127502659747 1275.8140987483732
2060.759696687888 984.7223771824098
2061.4064872955405 1131.02901000453
2062.053122126292 879.0050038652765
2062.699601217497 1209.1015152201132
2063.345924606485 978.6627943478985
2063.992092330587 1253.5179412264615
2064.638104427102 1067.8808941903299
2065.283960933324 1228.3905131207937
2065.92966188653 1052.8609673826757
2066.5752073239855 1012.9745328155884
2067.2205972829397 973.060442262107
2067.86583180062 1123.6081924435896
2068.5109109142522 1152.562635836394
2069.15583466104 1077.9702905233505
2069.8006030781708 1003.3096249856604
2070.445216202821 854.516975180261
2071.089674072153 1232.2018408627573
2071.7339767233116 1398.117726434734
2072.3781241934303 1032.5296302923532
2073.0221165196253 1223.6538486123297
2073.6659537390024 1247.1293494947777
2074.3096358886505 1270.6778811119773
2074.953163005637 1304.5943298836899
2075.596535127028 1183.5618068414574
2076.2397522898664 1062.396165637997
2076.882814531182 1224.6048995888646
2077.5257218879924 1205.9046652319062
2078.1684743973 940.5608004666803
2078.8110720960885 1021.4858229605991
2079.453515021336 1124.3068288302873
2080.095803209997 1227.2167196183575
2080.7379366990135 1055.4221783304847
2081.37991552532 1286.019852789684
2082.0217397258275 1192.291813307013
2082.6634093374414 951.0984809031949
2083.3049243970418 1093.3323113429024
2083.9462849415067 1212.7512451444918
2084.587491007689 1202.0660941931442
2085.2285426324324 1155.667944274129
2085.869439852564 1086.1513107112978
2086.510182704902 1048.9310767581708
2087.1507712262483 1007.0198813457895
2087.791205453381 933.7377831986653
2088.4314854230743 1248.7260756546498
2089.0716111720867 1212.6163585403078
2089.7115827371617 903.5385703721868
2090.351400155023 916.5231314561834
2090.991063462385 929.5773392478188
2091.6305726959527 767.4435006179062
2092.2699278924047 897.0438417108086
2092.9091290884153 1026.9493439385942
2093.548176320641 998.8591198517015
2094.187069625721 1237.3704799497461
2094.8258090402887 1212.384891498356
2095.464394600951 1187.3457528736003
2096.102826344313 1142.8927992317772
2096.741104306955 1076.0293967139573
2097.379228525453 1009.0194143964445
2098.017199036358 832.3663995031693
2098.6550158762147 1049.5612527902913
2099.2926790815527 1267.2223744512214
2099.9301886888825 1110.310344029473
2100.5675447347076 1036.9996379675117
2101.2047472555114 1157.6519403698508
2101.841796287761 1151.7729736229471
2102.47869186792 1155.3761985625504
2103.1154340324265 1002.2499570627715
2103.752022817709 1047.3273021798907
2104.388458260184 980.6413525255002
2105.024740396251 1084.1918127442332
2105.660869262292 920.8100627848759
2106.296844894685 1010.824478336706
2106.93266732978 1101.0715434959438
2107.5683366039284 1018.6008315266329
2108.2038527534532 1118.1129562382373
2108.8392158146726 1036.1084454315692
2109.4744258238843 953.9183392891573
2110.1094828173755 1079.0403572431746
2110.744386831422 1116.574037707443
2111.3791379022787 1154.2239158547407
2112.01373606619 1235.4610971757866
2112.648181359389 1095.60931524948
2113.28247381809 1250.8175876175956
2113.916613478492 1196.634191373637
2114.550600376786 1148.3244533112443
2115.1844345491445 1129.0012968166502
2115.818116031729 1051.16884894299
2116.451644860679 1099.7680604632565
2117.085021072133 1085.0134804460322
2117.718244702204 1070.175029468489
2118.3513157869984 1062.583379446786
2118.984234362604 882.5708228816386
2119.617000465092 1025.1989708128383
2120.249614130529 1265.979284668238
2120.8820753949585 1145.6728249200887
2121.5143842944162 1009.2679710442075
2122.14654086492 1004.0305814684237
2122.7785451424734 1125.4308478795824
2123.4103971630702 1162.9606736991973
2124.042096962681 1200.705700940316
2124.6736445772767 1209.6768492077651
2125.305040042802 1125.5060643370225
2125.936283395191 1041.1033094370332
2126.567374670365 1204.6570706876435
2127.198313904233 1023.9072420593141
2127.8291011326855 966.7126599832852
2128.4597363916037 909.283536669677
2129.0902197168507 1205.9789863867074
2129.720551144279 1291.531454220199
2130.3507307097225 1377.114270603468
2130.980758449008 1329.4069988608026
2131.6106343979427 1263.4930185222047
2132.2403585923203 1197.4394106378595
2132.8699310679276 1195.543495847044
2133.499351860526 1282.272552821962
2134.1286210058715 1127.9986856989158
2134.7577385397053 1244.8104789873
2135.3867044977487 1361.8054103036427
2136.0155189157176 1327.616047255502
2136.644181829308 1288.4602574550104
2137.2726932742025 1155.345182511846
2137.901053286074 1069.7408677453864
2138.5292619005777 984.0409671640953
2139.1573191533535 1005.0048207839294
2139.7852250800315 1193.261400667227
2140.4129797162295 1137.7263454639224
2141.0405830975433 833.9399871978976
2141.6680352595613 886.4313828912234
2142.2953362378576 939.0334384070151
2142.9224860679915 1014.4868951892631
2143.549484785508 1078.7098074753467
2144.1763324259373 1093.683522765748
2144.803029024799 1026.297388121626
2145.429574617594 998.0492607936765
2146.0559692398165 1149.9135168851133
2146.682212926942 1101.2360947079865
2147.308305714432 1218.9057450260966
2147.9342476377333 1378.6227755293253
2148.5600387322847 1315.8014420034758
2149.185679033506 1185.4470467350347
2149.8111685768017 1054.9995280367043
2150.4365073975678 946.1381371284166
2151.061695531187 1139.0291092568912
2151.686733013021 1037.9295375693
2152.311619878423 1191.8107844122703
2152.9363561627342 1118.8089860815421
2153.560941901278 1112.246782497833
2154.1853771293663 1105.574256760237
2154.809661882293 1010.1889985602113
2155.433796195348 977.4668145280297
2156.0577801037944 944.5820178448869
2156.681613642895 1216.28310701445
2157.3052968478896 1230.2502328126445
2157.928829754006 1244.2118715192785
2158.552212396462 1325.8023339885099
2159.1754448104566 1076.5953683552827
2159.7985270311783 903.2575205484293
2160.4214590938027 687.2470693118235
2161.0442410334927 687.7776352917808
2161.6668728853874 829.1374840605592
2162.289354684628 970.7827044631488
2162.911686466332 979.4328671966383
2163.533868265602 1089.090830436623
2164.1559001175337 1412.7593870308247
2164.7777820572046 1323.113932293743
2165.399514119681 1063.2168341467222
2166.021096340013 926.3258366599424
2166.6425287532384 1283.3254319467321
2167.263811394385 903.1290368844909
2167.8849442984574 1315.5834764307951
2168.505927500455 930.9944526087509
2169.126761035366 1223.1741809333187
2169.7474449381552 1053.4814158007962
2170.367979243778 1115.081942661874
2170.9883639871823 1176.896342855815
2171.608599203293 1051.220455953491
2172.2286849270276 1375.9433503543453
2172.8486211932886 1471.2058491580704
2173.4684080369625 1180.596217292224
2174.0880454929265 870.7320673351109
2174.7075335960417 681.6016184512577
2175.3268723811543 749.903423702034
2175.9460618831 818.3877802083222
2176.565102136701 1144.3011005670928
2177.1839931767627 1086.7204392416743
2177.802735038078 1029.0032106117826
2178.421327755432 910.5594527414751
2179.0397713635866 893.0912679219844
2179.658065897298 900.903881474469
2180.276211391305 983.5250000348472
2180.8942078803357 1066.294300156807
2181.5120553991 1225.5558009144274
2182.129753982299 1110.2625980850885
2182.7473036646206 994.7169954257475
2183.3647044807367 1166.536992617035
2183.9819564653044 1030.6759316990144
2184.599059652968 1106.0297004359468
2185.216014078367 1216.6518550855983
2185.832819776113 1177.6146770661685
2186.4494767808137 1138.4174558920042
2187.065985127063 988.0481133603337
2187.682344849436 987.6591338615265
2188.298555982501 1246.1823233312625
2188.9146185608097 1077.5709193333046
2189.530532618901 1299.829592487592
2190.1462981912937 1236.9915395331386
2190.761915312507 1178.170742799916
2191.377384017036 1150.6170987002267
2191.9927043393654 1094.4449609322044
2192.6078763139667 1231.9364320007496
2193.2228999753006 1369.7326687031825
2193.837775357808 1157.8723063057173
2194.452502495922 1070.1071816941762
2195.0670814240602 982.1584147417691
2195.6815121766285 856.9999757875212
2196.2957947880186 1387.6785883476173
2196.9099292926057 706.2195594649439
2197.523915724758 1226.840140376938
2198.137754118825 1021.616473221352
2198.7514445091456 1467.9527085959137
2199.3649869300443 1439.2755263995011
2199.9783814158327 1410.5918118204897
2200.5916280008096 1370.8182518981089
2201.2047267192593 1418.2317585413152
2201.8176776054515 1038.6672110119366
2202.430480693649 917.8024881183067
2203.0431360180955 1245.706617470583
2203.6556436130195 1194.4452806892423
2204.268003512645 793.1907349950723
2204.8802157511727 1069.3035720355263
2205.492280362796 1091.8175129852734
2206.1041973816937 1114.423780090408
2206.715966842032 1100.6376505894461
2207.3275887779655 1151.3433786571409
2207.93906322363 1117.7182298328676
2208.550390213153 1078.2186554219275
2209.1615697806465 1012.3813415716211
2209.7726019602105 946.2656535351695
2210.3834867859277 862.2492219446322
2210.9942242918787 964.3933434544582
2211.6048145121167 929.5211627804908
2212.2152574806914 1036.6064678146035
2212.825553231638 1143.7948924002872
2213.435701798975 1632.3735484829008
2214.045703216707 1188.9253664230105
2214.655557518832 720.9648159987336
2215.2652647393297 854.8723789002033
2215.874824912169 994.1297034407722
2216.4842380713 1133.810237915883
2217.09350425067 906.1777505784394
2217.7026234842033 1316.125264098604
2218.311595805819 1332.04249033292
2218.9204212494133 863.874426817667
2219.52909984888 1369.4793810466958
2220.137631638092 811.401236291739
2220.7460166509154 1253.418892176348
2221.354254921198 909.060836475742
2221.9623464827764 1135.2330496842792
2222.5702913694713 1098.935810923625
2223.178089615096 1041.7251875846248
2223.7857412534486 984.4083230152931
2224.39324631831 750.5139785857943
2225.000604843457 1095.787099560989
2225.607816862641 1187.641842904395
2226.214882409611 1090.3871103807508
2226.8218015180973 1058.6694922408699
2227.4285742218217 1026.825335601313
2228.0352005544864 1070.8500657521704
2228.6416805497847 800.6831107829278
2229.248014241399 908.3039508292322
2229.8542016629945 889.9409078706237
2230.460242848223 991.9414586267534
2231.0661378307304 934.4723587432505
2231.671886644139 876.961624658405
2232.277489322065 919.6429126459718
2232.8829458981127 867.8959726468872
2233.48825640587 965.9212695973895
2234.0934208789095 1036.4232505027135
2234.6984393507955 1107.035869510482
2235.3033118550793 1183.6040704284028
2235.9080384252975 1022.552912711998
2236.5126190949723 881.7356522885426
2237.1170538976166 795.5110194766523
2237.721342866729 709.160622560938
2238.32548603579 828.2755012873791
2238.9294834382763 1200.9445856986179
2239.533335107646 1187.241398108737
2240.1370410773434 1170.5702190127563
2240.740601380803 1074.5953933244461
2241.3440160514474 1137.1526279856757
2241.9472851226783 1127.7819594758773
2242.550408627896 1203.7682164916862
2243.1533866004793 1103.896960327556
2243.756219073799 1003.873523955462
2244.3589060812064 1068.1967614963164
2244.961447656049 953.9675636304582
2245.5638438316564 1008.0547310348717
2246.166094641343 909.1431505944823
2246.7682001184166 1122.539535793106
2247.3701602961664 1049.5299391451204
2247.971975207871 1289.469722826686
2248.5736448867974 1222.3984241566168
2249.175169366197 1060.001352055764
2249.7765486793123 1050.5119980097884
2250.3777828593684 1106.458936126493
2250.9788719395783 1171.3600495835706
2251.579815953146 1040.9271474572756
2252.1806149332606 943.1040113849882
2252.781268913097 1004.9020050974602
2253.381777925817 990.5676117537183
2253.9821420045737 1134.6860983897836
2254.5823611825035 1150.3541540993087
2255.1824354927303 1181.0346123086451
2255.782364968365 961.64354521582
2256.38214964251 1178.9218596907306
2256.9817895482483 912.0363407310115
2257.5812847186553 897.7326591015806
2258.180635186791 966.0712996044573
2258.779840985704 968.3921827477707
2259.37890214843 1011.3779706868038
2259.97781870799 1011.5241272990918
2260.5765906973957 1011.678840140534
2261.175218149645 1217.8170339012875
2261.773701097718 1255.1365084080749
2262.3720395745895 1201.7866767732455
2262.970233613216 1148.3054902686622
2263.568283246548 1068.9544825818602
2264.1661885075137 783.3690643653407
2264.763949429038 984.0757527011517
2265.3615660440246 1301.8833823767984
2265.959038385374 1274.7018955508545
2266.5563664859637 1247.514200611209
2267.153550378669 915.4491667334189
2267.7505900963424 1249.5254970762358
2268.3474856718312 1026.7321171138196
2268.9442371379664 1103.9780129707167
2269.5408445275643 984.5300318250551
2270.1373078734377 1060.448988961652
2270.7336272083758 982.0373974301799
2271.32980256516 1117.8288722185036
2271.925833976562 1253.8760483628646
2272.5217214753357 1308.8487433247271
2273.117465094223 918.4859900855212
2273.7130648659586 976.2728350624166
2274.308520823257 957.2204552412319
2274.903832998827 955.0728514703463
2275.4990014253563 952.9130642280883
2276.094026135528 1174.523536975525
2276.6889071620117 963.9607798344119
2277.2836445374614 1133.3318890325017
2277.878238294519 1254.956995128925
2278.472688465812 1026.7308683090728
2279.066995083962 1307.2207859052087
2279.6611581815705 946.0431240789916
2280.255177791232 991.7621156573408
2280.8490539455233 1181.272440732743
2281.442786677013 1371.166729514685
2282.0363760182554 1288.4060876258166
2282.6298220017943 1274.1096095790115
2283.223124660155 1259.86330046125
2283.816284025859 917.8503707104871
2284.4093001314086 1201.771320479314
2285.002173009292 919.9909360636802
2285.5949026919952 1188.936798196601
2286.1874892119777 1053.8718235328759
2286.7799326016993 945.1449610035495
2287.3722328936 836.1226750508644
2287.964390120109 711.0880507990925
2288.556404313642 1132.1638733108034
2289.1482755066027 1189.8593640745185
2289.7400037313873 1085.1427628767121
2290.3315890203703 1011.806511374972
2290.9230314059205 981.0156555341813
2291.5143309203904 1062.4592654998667
2292.1054875961236 1114.026148888742
2292.6965014654506 1479.3651106425855
2293.287372560684 917.9936566917786
2293.878100914131 1629.9998623077686
2294.468686558086 999.397457461688
2295.059129524827 895.5188712879875
2295.649429846617 891.7226353405911
2296.239587555716 887.892765076449
2296.8296026843636 968.5792063206356
2297.419475264791 957.531290491141
2298.0092053292137 946.4033774556858
2298.598792909839 1241.5942276269343
2299.1882380388597 1005.5710257575122
2299.777540748455 1047.1402631410238
2300.3667010707904 1088.6984563902224
2300.9557190380256 1349.2365465760006
2301.544594682302 1071.4702749132057
2302.1333280357503 793.3885636004123
2302.721919130485 997.9036531701761
2303.3103679986198 1144.8306628570745
2303.898674672242 1292.0592974565957
2304.486839183437 1030.6337632432646
2305.0748615642697 910.7146221768504
2305.6627418468015 958.4567141462936
2306.2504800630704 1006.3672943801733
2306.8380762451143 1201.5815635295953
2307.425530424949 1196.487375234338
2308.012842634582 1191.3721744697293
2308.6000129060103 1423.1575404629034
2309.187041271214 1486.515767836986
2309.773927762164 962.8826699431326
2310.3606724108213 1250.6275188315935
2310.9472752491274 1358.12002764019
2311.5337363090184 1465.9045186010608
2312.120055622414 1117.9583176385117
2312.706233221221 1057.1676606964081
2313.2922691373424 761.9068278908011
2313.8781634026564 880.1396467783813
2314.463916049037 998.6478424795878
2315.049527108342 1236.651747247569
2315.6349966124235 1555.8726894351307
2316.2203245931123 1331.8589991056908
2316.8055110822315 924.1214177842581
2317.3905561115935 913.5922989937393
2317.9754597129977 950.9957593766807
2318.560221918229 892.4561884290539
2319.1448427590603 833.803174556125
2319.729322267256 906.1559487517723
2320.313660474563 872.3829455226066
2320.8978574127195 1078.1656975854446
2321.481913113452 1284.5467801320895
2322.0658276084705 827.523848406446
2322.6496009294806 1015.8205388389845
2323.233233108165 1073.3165129203674
2323.8167241762058 1130.955364715358
2324.4000741652617 1166.0571053629806
2324.983283106987 1197.8108351060068
2325.5663510330232 1083.198211667247
2326.1492779749933 968.195453174867
2326.7320639645204 1168.011070507769
2327.3147090332004 1461.6551478186336
2327.897213212629 928.4414174060715
2328.4795765343843 1179.0435181629248
2329.0617990300307 878.9114311837726
2329.643880731124 1378.390299202351
2330.22582166921 1001.9157687794201
2330.807621875816 862.9384989897841
2331.3892813824623 723.8134034813813
2331.9708002206517 753.317866068388
2332.5521784218818 858.5050471021448
2333.133416017634 963.9429731069474
2333.7145130393765 874.7619937822689
2334.295469518571 1347.6322089590963
2334.876285486658 1379.8035331194285
2335.456960975076 1250.7115889660492
2336.037496015242 1121.3527524915974
2336.6178906385667 912.1440556746911
2337.198144876451 1195.910411932045
2337.778258760278 1169.8703073001864
2338.3582323214214 1178.1124173787182
2338.938065591243 1186.3441045148472
2339.517758601087 1160.1320000813068
2340.0973113822965 1099.3532393023784
2340.676723966193 1112.5779351340889
2341.255996384094 1293.2930475051876
2341.835128667295 1349.91935268186
2342.4141208470883 1392.816093692091
2342.992972954751 1139.6380516280362
2343.5716850215467 1152.927298045102
2344.1502570787306 593.5168547932254
2344.7286891575386 885.8957292645475
2345.3069812892045 1043.136072546671
2345.885133504944 1200.5611720745583
2346.4631458359618 1051.6864273598921
2347.04101831345 921.706584276985
2347.6187509685915 965.8673432375174
2348.196343832553 870.504126542789
2348.7737969364935 837.8673598725261
2349.351110311558 805.2074200599861
2349.9282839888765 938.5707213791608
2350.5053179995757 764.3286454549157
2351.0822123747585 918.9376863747581
2351.658967145526 875.8883218917315
2352.2355823429643 832.8177755971097
2352.812057998144 1137.1901553712446
2353.3883941421263 860.7539786355517
2353.9645908059647 827.3460400398413
2354.540648020693 793.9010898858072
2355.116565817336 826.4870639017712
2355.6923442269126 957.0662560260159
2356.2679832804224 1087.926907334956
2356.8434830088518 1009.5335789295299
2357.41884344318 1068.9810355457341
2357.994064614377 1110.7848512123142
