#exp_cfg={"servo_angle": 0.0, "laser_lim": 100.0, "servo_angle_to": 18.0, "laser_wup": 0.0, "bt_dev": "EnSpectr-25AE3", "laser_wdn_max": 0.0, "frames": 10.0, "servo_used": 0, "servo_calib_use": 0, "laser_wdn_min": 0.0, "servo_pix_from": 90.0, "cooler_tout": 300.0, "servo_angle_from": 0.0, "servo_calib": "[-1.9174921013161362e-09, 3.9322238269163779e-05, -0.27385609119055809, 653.59552119713567]", "laser_autoctl": 0, "servo_pix_to": 3682.0, "laser_pw": 100.0, "cooler_on": 0, "laser_volt": 4.0, "cooler_autoctl": 0, "cooler_curr": 70.0, "cooler_startup": 10.0, "laser_fixed_pw": 0, "gain": 1.3, "offset": 2.53059635486, "servo_calib_degree": 3.0, "laser_curr": 55.0, "shutter": 8200.0, "servo_calib_step": 1.0, "laser_fixed_curr": 0, "exp": 2000.0, "ccd_volt": 4.7, "bt_addr": "00:06:66:62:5A:E3", "servo_delay": 500.0, "laser_autooff": 1}
#proc_cfg={"flat_auto_wnd": 200.0, "flat_auto_fr": 200.0, "flat_auto_shift": 5.0, "yconv": 1, "flatten": 1, "flatten_strength": 100.0, "xfrom": 300.0, "auto_max_frame": 2000.0, "auto_signal": 48000.0, "flat_auto_tol": 0.1, "autoclip": 1, "xrel_range": 0.0, "flat_auto_to": 4000.0, "intensity_adj": 1.0, "xrel": 7852.0, "rmhot": 1, "flat_auto_slit": 4.999999999999997, "auto_ini_exp": 300.0, "auto_off": 0, "xto": 2860.0, "flat_auto_ref": "", "flat_auto_rank": 1, "autobackg": 0, "xrel_adj": 0.0, "auto_black_lvl": 1, "base_wnd": 100.0, "sub_baseline": 0, "xconv": 2, "auto_max_exp": 1000.0, "auto_total_exp": 10000.0, "auto_exp": 0, "rmripple": 0, "black_lvl": 8254.6375, "shutter_clip_adj": 0.0, "auto_bckg": 0, "flat_auto_thr": 0.9, "subbackg": 1}
316.8218498245369 16279.868807405775
317.89969571804795 16108.914771300386
318.977263876126 16119.336798928565
320.05455438786703 15985.53078121286
321.1315673423287 15873.844483682984
322.2083028285215 15999.85554049717
323.2847609354267 15869.04835257136
324.3609417519747 15828.904469559822
325.43684536705587 15776.210493255687
326.5124718695279 15760.29266834466
327.58782134820103 15581.365583359191
328.66289389184385 15625.792240210478
329.7376895891921 15518.602004634566
330.8122085289342 15502.68773123023
331.88645079971866 15495.746065897149
332.9604164901575 15288.672041146569
334.03410568881554 15255.717055101723
335.1075184842266 15369.876876484483
336.18065496487543 15094.607251854972
337.2535152192122 15170.149623346839
338.32609933564163 15117.675213689678
339.39840740253203 14960.064340691471
340.4704395082099 14986.464463694612
341.5421957409617 14960.721414630796
342.6136761890357 15007.32218460822
343.6848809406365 14818.861107265708
344.75581008392874 14704.753525483768
345.82646370703696 14709.601472299202
346.8968418980512 14730.49347680579
347.96694474501055 14707.477844243442
349.0367723359268 14714.212010863353
350.106324758759 14651.28396686569
351.1756021014353 14540.271754710466
352.2446044518383 14551.505127163036
353.31333189781435 14678.210499774079
354.38178452716966 14591.716521951024
355.449962427665 14613.266800056477
356.51786568702846 14487.7251928182
357.58549439294256 14558.840234906462
358.6528486330535 14550.891437401213
359.71992849496564 14452.128619558402
360.7867340662433 14511.107304326142
361.8532654344144 14441.43742113375
362.9195226869597 14474.085655786103
363.9855059113288 14342.135296383
365.05121519492604 14336.343600648626
366.11665062511565 14371.831262653946
367.1818122892273 14248.975890240792
368.2467002745434 14375.163861469002
369.31131466831175 14345.344045171354
370.375655557742 14327.25070075831
371.4397230299983 14271.783664168988
372.5035171722102 14212.600703328537
373.5670380714637 14287.847527803659
374.6302858148101 14254.02526557184
375.6932604892554 14245.542650072195
376.7559621817709 14191.447377724427
377.81839097928605 14091.203398320646
378.8805469686886 14168.931660751367
379.94243023683157 14174.39306433605
381.0040408705263 14139.729571440039
382.0653789565458 14032.55809338384
383.1264445816196 14094.662696928504
384.1872378324406 14038.860848160213
385.2477587956637 14051.042651955806
386.3080075579037 14041.794576410826
387.3679842057336 13857.877901559206
388.4276888256918 13987.833775813633
389.48712150426945 13927.15527892058
390.54628232792857 13965.013954770073
391.6051713830857 13865.51737762957
392.66378875611736 13862.27727330298
393.7221345333637 13837.616490857466
394.7802088011249 13776.771857596224
395.838011645661 13874.963124931688
396.89554315319765 13760.303497430952
397.9528034099112 13862.192790640785
399.00979250194723 13707.577921418499
400.06651051541485 13657.891216644406
401.1229575363741 13628.591184016992
402.17913365085224 13658.771502430242
403.23503894483656 13739.939493956777
404.2906735042761 13632.228744951432
405.3460374150818 13515.912451936476
406.401130763119 13586.939628252663
407.455953634224 13551.390311424631
408.5105061141876 13510.786203327923
409.56478828876243 13386.8933841765
410.6188002436629 13404.403001766346
411.6725420645689 13414.045168983523
412.72601383711117 13404.60617658136
413.77921564689314 13526.392620327004
414.8321475794728 13345.04806512816
415.88480972036814 13383.536819292834
416.93720215506437 13301.33239861076
417.9893249690049 13318.532198520776
419.04117824759123 13258.032653013957
420.09276207619223 13188.286475979392
421.144076540133 13249.236934820694
422.1951217247042 13164.072066807645
423.24589771515275 13232.43476016772
424.2964045966928 13138.4010412536
425.34664245449494 13136.981778146714
426.3966113736933 13039.630781800817
427.4463114393875 13045.261749844478
428.49574273662984 12973.38974139168
429.5449053504417 12970.220966863086
430.5937993658026 13011.904061167146
431.6424248676558 12912.913375778793
432.6907819409007 12983.146655194181
433.73887067040596 12921.210062938617
434.7866911409965 12938.557581499315
435.8342434374608 12876.291920842214
436.88152764455117 12864.42636474402
437.9285438469724 12866.542219884184
438.9752921294057 12793.22813583395
440.02177257648145 12846.41329143715
441.06798527279716 12715.437139374502
442.1139303029122 12851.207835950077
443.1596077513459 12801.011984505483
444.2050177025794 12752.4427212076
445.25016024105753 12751.964182226831
446.2950354511886 12700.746681980632
447.33964341733736 12728.004433416554
448.383984223834 12642.035015013265
449.4280579549686 12552.758041334242
450.471864694995 12616.726438715483
451.5154045281306 12601.261163131687
452.5586775385509 12629.072087999766
453.60168381039693 12589.166123321831
454.64442342776783 12675.286455603878
455.6868964747264 12612.877703881084
456.7291030353008 12554.499665848403
457.77104319347563 12679.388955212515
458.8127170332027 12545.915335393373
459.854124638392 12524.041396532073
460.895266092919 12684.373448989032
461.93614148061897 12662.49855365282
462.97675088529104 12691.044928731384
464.01709439069236 12638.621696952403
465.0571720805492 12640.563639077205
466.0969840385442 12647.75838143341
467.1365303483253 12745.107024876608
468.17581109350067 12605.242333997852
469.2148263576437 12602.787712236972
470.2535762242878 12630.58763734572
471.29206077693016 12708.045220850141
472.33028009902773 12787.147306443081
473.3682342740012 12794.28236835516
474.40592338523857 12830.231265143797
475.4433475160804 12857.564820374399
476.4805067498364 12830.380313459864
477.51740116978 12836.13755129708
478.5540308591426 12923.338919443231
479.59039590112116 13055.36780596711
480.6264963788726 13031.307622604454
481.6623323755193 13170.79712899407
482.6979039741436 13203.008633750145
483.7332112577915 13271.475585703385
484.76825430947247 13534.26636056357
485.80303321215797 13490.73507503609
486.837548048783 13573.593601514614
487.8717989022425 13706.85781796496
488.90578585539697 13646.905706570498
489.9395089910686 13929.046420247934
490.97296839203955 13771.783654273802
492.00616414106116 13725.99972694277
493.0390963208429 13696.572053986369
494.0717650140559 13645.28058859381
495.10417030333883 13593.55174208075
496.1363122712901 13516.38760141195
497.16819100046814 13412.28634420571
498.1998065734024 13282.003273338536
499.2311590725767 13219.861268686713
500.26224858044407 13158.084452025014
501.2930751794156 13019.584896800885
502.3236389518679 13001.11493685491
503.35393998014115 12829.539470522572
504.38397834653733 12807.769258463708
505.4137541333221 12760.007296878584
506.4432674227228 12651.233253290346
507.4725182969323 12603.6382675409
508.5015068381035 12548.914434390152
509.53023312835467 12542.369389779587
510.55869724976765 12515.492804198071
511.58689928438434 12415.698916311268
512.6148393142121 12376.84976979263
513.6425174212218 12417.408951213041
514.6699336873462 12419.678773594376
515.6970881944835 12405.165598784246
516.7239810244901 12261.265860302788
517.7506122591931 12300.32100550656
518.7769819803761 12302.864783071196
519.8030902697901 12358.677324865841
520.8289372091476 12272.182213089996
521.8545228801249 12311.033862733257
522.8798473643619 12252.219002499445
523.9049107434621 12208.167970668303
524.9297130989908 12204.69977473349
525.9542545124805 12208.161069844151
526.9785350654201 12156.687042595451
528.0025548392696 12311.30124238221
529.0263139154504 12116.929148078354
530.0498123753423 12151.304483204249
531.073050300296 12145.784904904845
532.0960277716204 12091.911197557833
533.1187448705896 12170.887073137455
534.1412016784416 12120.009958596911
535.1633982763833 12099.540950756247
536.1853347455726 12067.897384499443
537.2070111671401 12085.072986138848
538.2284276221817 12114.21924082926
539.2495841917516 12103.195699467993
540.2704809568677 11969.066871045126
541.2911179985167 12134.295238895354
542.3114953976419 12028.867397888065
543.3316132351592 12071.15405204064
544.3514715919409 12082.392522958191
545.3710705488247 12001.909227961885
546.3904101866156 12139.089726233298
547.4094905860784 12209.387745361852
548.4283118279418 12207.404978615656
549.4468739929034 12261.442724997518
550.4651771616191 12167.164238038931
551.4832214147063 12185.486344725847
552.501006832761 12296.593567458161
553.5185334963226 12207.180097309572
554.5358014859103 12271.65198569988
555.5528108820035 12264.072536223757
556.5695617650363 12321.45275964558
557.5860542154242 12287.12461162209
558.6022883135283 12251.422325958301
559.6182641396881 12174.459736377707
560.6339817741991 12181.974308500206
561.6494412973225 12179.467856458974
562.6646427892883 12257.7502065201
563.6795863302796 12074.457926174862
564.694272000459 12083.598685040157
565.7086998799423 12175.502286206067
566.7228700488104 11983.718020402146
567.7367825871115 11988.471175072282
568.7504375748576 12024.67578912192
569.7638350920224 11902.027893001547
570.7769752185486 11956.201157021165
571.7898580343353 11878.042472407436
572.802483619258 11814.615901965006
573.8148520531431 11925.053194626236
574.8269634157932 11910.630699758329
575.8388177869692 11892.371916770184
576.8504152463938 11932.058836493223
577.8617558737587 12080.037575245251
578.8728397487175 11956.596948342301
579.883666950891 11941.86179359618
580.8942375598654 12063.9608029289
581.9045516551851 12155.466609689976
582.9146093163617 12237.96415255666
583.924410622878 12088.467599524762
584.9339556541727 12106.005204541341
585.9432444896538 12111.286445563057
586.9522772086875 12087.336980993252
587.9610538906127 12140.707460538939
588.9695746147318 11982.733029135114
589.9778394603054 12097.113557009026
590.985848506567 11951.89182917205
591.9936018327098 11992.125184640809
593.0010995178891 11820.679945377353
594.0083416412344 11904.864797541184
595.0153282818283 11749.040072198193
596.0220595187293 11793.683571760073
597.0285354309508 11727.851985563151
598.0347560974806 11731.735931268384
599.0407215972609 11684.18584394957
600.0464320092051 11618.284857255527
601.0518874121954 11683.77699143576
602.0570878850685 11586.304912515552
603.062033506636 11604.169947422193
604.0667243556636 11544.97481302776
605.0711605108936 11517.153606096932
606.0753420510264 11734.955992359468
607.0792690547278 11616.057434234526
608.082941600629 11572.089135268163
609.0863597673306 11683.495451005982
610.0895236333909 11809.160138482752
611.0924332773357 11933.600972395441
612.0950887776617 11854.837931731377
613.0974902128219 11878.367154473042
614.0996376612384 12050.785653513522
615.1015312013005 12105.356404808928
616.1031709113595 12227.916929641087
617.1045568697336 12276.8469114016
618.1056891547069 12377.791051051643
619.1065678445229 12462.840696116129
620.1071930173985 12644.503475708118
621.1075647515099 12651.504852855136
622.1076831250048 12766.783229380144
623.1075482159849 12836.846366727917
624.1071601025305 12900.062419805303
625.1065188626781 12872.856788485476
626.105624574433 13057.871518579392
627.1044773157682 13035.961505679128
628.1030771646128 13071.178116855075
629.1014241988742 13138.11737034642
630.0995184964158 13205.143710604145
631.0973601350688 13308.47924314722
632.0949491926294 13431.71474651513
633.0922857468631 13199.783335383738
634.089369875499 13309.77198538595
635.0862016562278 13356.479768100497
636.0827811667077 13198.056339832587
637.0791084845641 13297.302957107293
638.0751836873878 13185.342922771448
639.0710068527369 13133.668612234693
640.0665780581294 13025.620428700695
641.0618973810506 12907.57531251219
642.0569648989604 13005.30603331423
643.0517806892676 12767.602551321592
644.0463448293649 12755.282320565873
645.040657396592 12615.554406488207
646.0347184682723 12495.308287024429
647.0285281216875 12326.909065536394
648.0220864340772 12234.783071882626
649.0153934826558 12159.79895028213
650.0084493446047 12124.96202876669
651.0012540970674 12047.987282121887
651.9938078171526 12000.279913621585
652.9861105819346 11932.196641966366
653.9781624684565 11932.874426800596
654.9699635537254 11847.781528306941
655.9615139147136 11764.441266113166
656.9528136283589 11563.86065182622
657.9438627715699 11714.95764289421
658.9346614212154 11612.802555976905
659.925209654135 11401.16079381231
660.9155075471263 11413.137229891414
661.9055551769616 11365.736418256205
662.895352620375 11520.297244790065
663.8848999540678 11351.72519203668
664.8741972547068 11294.026401543868
665.863244598926 11263.518783864756
666.8520420633213 11345.494191418704
667.8405897244611 11143.228000429286
668.8288876588758 11106.449763927796
669.8169359430613 11224.95380390996
670.8047346534822 11184.511039887007
671.7922838665672 11078.781474881234
672.7795836587156 11171.907484720068
673.766634106285 11256.046506942252
674.7534352856092 11008.539136144798
675.7399872729766 10989.339419480064
676.7262901446538 11027.262749708147
677.712343976862 11011.62110891516
678.6981488457986 11080.996042799412
679.6837048276229 10973.794235152358
680.6690119984596 11012.230621028537
681.6540704344043 10995.325423593491
682.6388802115107 11012.770255984
683.6234414058108 10984.87930990632
684.6077540932874 10907.349328551363
685.591818349907 10910.956051652904
686.575634251587 10972.080180754952
687.5592018742263 10842.170934042759
688.5425212936734 10836.885811668335
689.5255925857564 10924.746309655447
690.5084158262707 10936.867211678467
691.4909910909646 10860.731252401709
692.4733184555644 10864.920651413118
693.4553979957618 10978.507553954643
694.4372297872123 11014.035953849008
695.4188139055404 11011.156041239934
696.4001504263324 10932.72382907433
697.3812394251509 11069.52057558838
698.3620809775111 11094.762516816078
699.3426751589104 11058.155075634835
700.3230220448004 11109.869235116132
701.3031217106054 11168.854534803491
702.2829742317172 11269.897971725884
703.2625796834873 11144.019386715214
704.2419381412474 11192.692045806089
705.22104968028 11266.922796025005
706.1999143758458 11329.200250293552
707.178532303169 11315.4288957795
708.1569035374378 11533.69770083841
709.1350281538107 11636.313189302453
710.1129062274158 11654.230748726339
711.0905378333373 11960.328269517531
712.0679230466376 12058.453047706837
713.0450619423427 12317.579847952713
714.0219545954424 12537.370254578502
714.9986010808989 12546.409727214148
715.9750014736292 12855.112708630406
716.9511558485392 13131.454922145396
717.9270642804786 13367.538978122695
718.9027268442787 13448.902696740653
719.8781436147328 13617.364181093659
720.8533146666014 13609.038206537134
721.828240074612 13671.067563685447
722.8029199134635 13555.426669372246
723.7773542578125 13494.133317967027
724.751543182294 13379.722345902226
725.7254867615029 13435.519064273883
726.6991850700015 13121.244145109444
727.6726381823228 13237.397978949677
728.6458461729599 13358.157158853986
729.6188091163858 13345.619439641287
730.5915270870246 13513.3886846755
731.5640001592856 13538.300558706245
732.536228407529 13771.150665442725
733.5082119060917 14038.01539125098
734.4799507292755 14091.936750620831
735.4514449513481 14259.924893084873
736.4226946465496 14483.847530446292
737.3936998890786 14388.364347667308
738.3644607531078 14275.77742716508
739.3349773127793 14061.706054544367
740.3052496421951 13814.084891660494
741.27527781543 13390.525880259835
742.2450619065221 13159.64672704253
743.2146019894826 12936.795252025833
744.183898138288 12657.172447300825
745.1529504268801 12362.804381067923
746.1217589291682 11881.849339374949
747.0903237190341 11725.023490593603
748.058644870318 11496.35111449294
749.0267224568397 11276.611169498032
749.994556552374 10973.797120599542
750.9621472306771 10951.827627627372
751.9294945654583 10797.888758968553
752.8965986304011 10765.245310632266
753.8634594991636 10571.855766304176
754.8300772453586 10672.78450645697
755.7964519425768 10496.289225072514
756.762583664371 10548.42062595844
757.7284724842611 10448.639971988614
758.6941184757416 10407.86226754987
759.6595217122667 10353.5523884787
760.6246822672638 10312.540304621862
761.5896002141235 10235.868887748416
762.5542756262093 10297.126182758942
763.5187085768503 10310.827610378412
764.4828991393406 10259.56982835886
765.4468473869474 10188.093064822906
766.4105533929032 10182.08579840254
767.3740172304078 10076.02379882005
768.3372389726283 10066.933802811784
769.3002186926988 10051.52271999558
770.2629564637282 9964.859938326923
771.2254523587872 9995.05306647032
772.1877064509154 9944.017757781268
773.1497188131179 9826.737112651386
774.1114895183728 9820.244964059597
775.0730186396268 9875.509991086554
776.0343062497905 9808.479139460957
776.9953524217381 9787.39281710675
777.9561572283274 9842.804218740559
778.9167207423689 9831.223052222327
779.8770430366476 9744.143165223186
780.8371241839159 9759.655399871473
781.7969642568951 9732.65617155976
782.7565633282757 9937.003594188576
783.7159214707099 9786.62542818655
784.6750387568281 9885.346175976953
785.6339152592227 9817.04788089071
786.5925510504512 9698.660570057378
787.5509462030477 9778.121559465359
788.5091007895098 9754.058328467265
789.4670148823006 9814.923015894507
790.4246885538596 9810.556656044506
791.3821218765861 9774.964631681489
792.3393149228505 9700.354942583363
793.2962677649975 9834.478695116222
794.2529804753303 9863.727009181039
795.20945312613 9860.945307246006
796.1656857896378 9746.290129798583
797.1216785380675 9815.8065306
798.0774314435985 9886.92116760661
799.0329445783846 9923.804625342822
799.9882180145414 9840.360491629901
800.9432518241574 9860.325912191194
801.89804607929 9953.050494589315
802.852600851962 9980.039439126627
803.8069162141637 9903.937326121742
804.760992237856 10000.440321171278
805.714828994971 9974.557816569073
806.6684265574077 10064.869242992672
807.6217849970271 9939.451712588965
808.574904385674 9868.896885313043
809.527784795142 9966.714711967368
810.4804262972102 10002.465674057701
811.4328289636178 9798.804477852289
812.3849928660748 9759.164259358184
813.3369180762638 9754.442660417086
814.2886046658241 9707.57932783211
815.2400527063783 9619.341647882213
816.1912622695108 9602.94874746531
817.1422334267718 9620.096845544093
818.0929662496856 9521.820305671314
819.0434608097457 9426.83831709433
819.9937171784059 9433.65547132926
820.9437354271013 9329.766391681995
821.8935156272255 9474.002865069755
822.8430578501484 9395.973749036228
823.7923621672016 9243.956479368573
824.7414286496896 9338.416471223009
825.6902573688876 9345.657900794618
826.6388483960363 9251.635398149398
827.5872018023492 9262.121465895794
828.5353176590033 9375.473100036359
829.4831960371503 9254.520069700196
830.4308370079016 9244.415819913498
831.3782406423525 9259.77782511659
832.3254070115545 9206.082502401014
833.2723361865319 9148.783589839106
834.2190282382799 9059.841129925544
835.1654832377644 9164.5337160743
836.1117012559116 9123.84199925424
837.0576823636256 9196.18771759963
838.003426631778 9074.048819034051
838.9489341312074 9068.533944909988
839.8942049327197 9160.235468478275
840.8392391070975 9221.065888495332
841.7840367250865 9145.846299964553
842.7285978573982 9098.076532252746
843.672922574724 9173.234544107017
844.6170109477152 9081.094786171987
845.560863046996 9073.508391876574
846.5044789431595 9056.6988573432
847.4478587067697 9010.823299007225
848.3910024083561 9149.143693934817
849.333910118421 9061.734779438382
850.2765819074339 9036.87643512614
851.2190178458332 9038.930918084092
852.161218004032 9102.579225095824
853.1031824524016 9083.655985714988
854.0449112612987 9075.915563389111
854.9864045010327 9180.69877744036
855.9276622418947 8997.437600300678
856.8686845541379 9022.802845043663
857.8094715079915 9049.383062521463
858.7500231736467 9165.077676566303
859.690339621271 9088.35262028914
860.6304209209939 9077.680019408861
861.5702671429244 8991.796831270127
862.5098783571284 9029.915798987162
863.4492546336569 9131.787660535269
864.3883960425155 9084.886060452507
865.3273026536863 8992.759410348111
866.2659745371238 9072.621300589144
867.2044117627465 9208.08608448813
868.1426144004472 9118.77878531616
869.0805825200823 9200.932796651543
870.0183161914847 9116.566038025707
870.9558154844526 9274.077332191557
871.8930804687552 9231.177705008526
872.8301112141307 9089.568964277056
873.7669077902865 9199.098555481412
874.7034702669062 9398.94302719295
875.6397987136315 9183.429534024635
876.5758932000863 9267.447501761368
877.5117537958522 9300.625610152267
878.4473805704911 9335.221888740014
879.3827735935283 9206.134202262841
880.3179329344603 9311.752508717394
881.2528586627541 9447.00345351805
882.1875508478479 9427.013622462266
883.1220095591489 9299.434805781093
884.0562348660296 9323.008366512186
884.9902268378391 9375.402500308339
885.9239855438955 9254.709962517323
886.8575110534839 9261.505679202153
887.7908034358588 9258.224060861177
888.7238627602474 9290.429444282961
889.6566890958475 9228.366056144945
890.5892825118208 9113.385676905906
891.5216430773125 9242.978303390044
892.4537708614189 9269.382579254394
893.3856659332196 9144.911193692444
894.3173283617652 9032.053186229365
895.2487582160684 9098.730361465176
896.179955565116 9056.925964217206
897.110920477864 9044.336028995032
898.0416530232451 9052.26194764329
898.9721532701478 9047.24187947938
899.9024212874428 9079.316312639701
900.8324571439662 9004.879086564004
901.7622609085302 8909.290836271486
902.6918326499072 8903.226662655843
903.6211724368477 8984.121224478407
904.5502803380696 9057.388402743918
905.4791564222614 9093.887325623862
906.4078007580792 8993.549816580271
907.3362134141571 8934.362963332502
908.2643944590909 9103.53545806977
909.1923439614493 8988.310441132697
910.1200619897754 9044.063457688084
911.0475486125779 9081.189139572542
911.9748038983344 9062.052043281768
912.9018279155007 8932.625913505832
913.8286207324982 8951.707193327082
914.7551824177117 9038.266463707243
915.6815130395116 9013.221780003001
916.6076126662283 8917.45526900874
917.533481366163 8965.854024606471
918.4591192075914 8991.42550630547
919.3845262587565 9068.422545522171
920.3097025878706 8868.698609050001
921.2346482631237 8840.620515416358
922.1593633526682 8907.629221957208
923.0838479246304 8932.40706880165
924.0081020471061 8975.156506970507
924.9321257881656 8750.788797276784
925.8559192158464 8867.379158636631
926.7794823981512 8755.148843358063
927.7028154030686 8820.724944938074
928.6259182985414 8681.89476455487
929.5487911524906 8862.280036629854
930.4714340328119 8771.344255563272
931.3938470073608 8609.003896462891
932.3160301439748 8685.969579620625
933.2379835104548 8749.5678628379
934.1597071745709 8790.709751167164
935.0812012040769 8689.665452641884
936.002465666681 8724.73474685279
936.9235006300696 8790.228883527767
937.8443061619055 8823.241835605955
938.7648823298077 8634.300322437572
939.6852292013809 8583.735305593913
940.6053468441951 8671.73571949642
941.5252353257874 8664.843885050755
942.4448947136698 8688.687312366126
943.364325075323 8725.12083335732
944.2835264782043 8774.223983421984
945.2024989897309 8733.495266297887
946.1212426773054 8751.865058462905
947.0397576082851 8867.321802589078
947.9580438500125 8919.60734767331
948.8761014697939 8892.739185668246
949.7939305349064 8886.897870625504
950.7115311125999 8859.379947185536
951.6289032700952 8840.94119867473
952.5460470745875 8871.025578885197
953.4629625932339 8880.064431147528
954.3796498931715 8892.271320679922
955.2961090415029 8952.59691329364
956.2123401053068 8855.774576862337
957.1283431516276 8869.131131381608
958.0441182474842 8794.209240773893
958.9596654598663 8904.70743522499
959.8749848557309 8811.737477286266
960.7900765020167 8676.537521986513
961.7049404656209 8766.99900762478
962.6195768134185 8757.89435419023
963.5339856122537 8752.633822424572
964.4481669289453 8673.554891395615
965.3621208302793 8618.612248842146
966.2758473830145 8605.851822149854
967.1893466538822 8688.106422301851
968.1026187095813 8560.916287595504
969.0156636167867 8646.968435195971
969.9284814421426 8700.188450630108
970.8410722522622 8515.736720441493
971.753436113735 8569.923206656114
972.6655730931161 8518.871611834056
973.5774832569368 8596.56224984087
974.4891666716958 8503.98967327597
975.4006234038698 8472.898599378617
976.3118535198955 8511.803159033718
977.2228570861935 8526.690383468898
978.1336341691494 8593.834302232233
979.0441848351202 8434.327141984673
979.9545091504333 8545.065039759469
980.864607181391 8511.748172558862
981.7744789942699 8546.921551372934
982.6841246553086 8492.200466507336
983.5935442307236 8495.839972132155
984.5027377867027 8448.46093229902
985.4117053894024 8462.358721548273
986.3204471049557 8366.647140329258
987.2289629994648 8490.386422798536
988.1372531390007 8536.048511797611
989.0453175896091 8486.857508510704
989.9531564173067 8465.411155946804
990.860769688079 8442.755086841067
991.7681574678918 8450.082134162638
992.6753198226706 8515.103988421743
993.582256818323 8379.40302212619
994.4889685207218 8441.175709029736
995.3954549957143 8603.454324841483
996.301716309119 8576.879429335351
997.2077525267232 8460.714827483112
998.1135637142943 8533.72477169122
999.0191499375615 8630.027247059119
999.924511262232 8480.532597161899
1000.8296477539861 8566.279131979061
1001.7345594784656 8577.820996702198
1002.6392465012996 8463.38081400673
1003.5437088880753 8596.609548014985
1004.4479467043584 8514.10771107671
1005.3519600156869 8435.645811066292
1006.2557488875718 8543.494414438277
1007.1593133854858 8543.366860767026
1008.0626535748888 8400.235232827865
1008.9657695212009 8356.07558612073
1009.8686612898182 8554.145164136387
1010.7713289461135 8581.57478085464
1011.6737725554212 8435.491247301112
1012.5759921830577 8453.727737326095
1013.4779878943027 8447.75350115517
1014.379759754418 8560.230529051965
1015.2813078286254 8373.213193442418
1016.18263218213 8366.174363146016
1017.0837328801026 8363.945430602373
1017.9846099876886 8466.18070904744
1018.8852635700023 8259.892810635016
1019.7856936921362 8293.308520570177
1020.6859004191447 8392.695983323207
1021.5858838160675 8320.642233459555
1022.4856439479063 8316.898377165819
1023.3851808796389 8254.967995935802
1024.2844946762143 8498.618418399525
1025.183585402554 8418.16172256041
1026.082453123554 8184.4152475001465
1026.9810979040776 8270.405444828068
1027.8795198089647 8226.307308177802
1028.777718903024 8246.041938416101
1029.6756952510368 8285.902048816566
1030.5734489177648 8177.213949896167
1031.4709799679313 8254.696561130288
1032.3682884662358 8360.379146198868
1033.2653744773506 8109.578994290683
1034.1622380659192 8199.611433554901
1035.058879296559 8348.219653892824
1035.9552982338591 8412.039570430528
1036.8514949423825 8266.494561104902
1037.7474694866614 8321.364188747892
1038.6432219312028 8291.450906350106
1039.5387523404825 8535.435795537915
1040.4340607789582 8346.485081951749
1041.3291473110476 8418.385236287813
1042.2240120011465 8553.125619795264
1043.1186549136273 8605.3547475543
1044.0130761128294 8587.502549510475
1044.9072756630649 8580.207713323372
1045.8012536286205 8686.218294486966
1046.6950100737577 8775.203540612665
1047.588545062701 8787.688622308779
1048.481858659663 8799.499328620059
1049.3749509288118 8935.656167522538
1050.2678219343034 8923.538200084104
1051.1604717402515 8845.785144125282
1052.0529004107575 8799.177538271586
1052.9451080098825 8983.695803458551
1053.8370946016694 8820.396805181079
1054.7288602501267 8818.848272149065
1055.6204050192446 8857.441266946476
1056.511728972977 8895.028047934007
1057.402832175254 8756.597070860595
1058.2937146899785 8705.438623364129
1059.1843765810263 8593.590171645119
1060.0748179122456 8693.522697311626
1060.9650387474576 8606.37719947399
1061.855039150456 8538.30728491036
1062.7448191850071 8612.309641645774
1063.6343789148505 8555.157651180327
1064.5237184037014 8602.219279268766
1065.412837715241 8478.26012753895
1066.3017369131267 8371.129546781878
1067.190416060992 8413.327418293564
1068.0788752224398 8378.70588588821
1068.9671144610438 8379.745402300312
1069.8551338403558 8409.723305277876
1070.7429334239023 8399.089723720872
1071.6305132751695 8311.555678993365
1072.517873457633 8392.793900676485
1073.4050140347335 8420.594152636599
1074.2919350698776 8428.292779283749
1075.1786366264623 8507.056096353375
1076.0651187678395 8335.131290245543
1076.95138155735 8383.711523988848
1077.8374250582929 8398.694308577926
1078.7232493339507 8502.651215043474
1079.608854447577 8404.467255946893
1080.4942404623907 8452.989634772395
1081.3794074415982 8535.860882080979
1082.2643554483657 8606.660614160402
1083.149084545841 8590.356073196595
1084.033594797138 8464.770864450853
1084.9178862653516 8631.263102842157
1085.8019590135427 8713.431746503566
1086.6858131047484 8556.296298589728
1087.5694486019802 8631.663472820364
1088.4528655682225 8746.99412938503
1089.3360640664287 8827.363025954763
1090.2190441595321 8822.442088428008
1091.1018059104317 8841.745628352335
1091.98434938201 8999.866192069017
1092.866674637111 8956.271874722472
1093.748781738559 8913.895256960288
1094.6306707491512 8763.721203161425
1095.5123417316554 8912.722114936161
1096.3937947488157 8832.290931305728
1097.2750298633455 8817.150939261499
1098.156047137938 8849.704835543474
1099.0368466352556 8919.775840255543
1099.9174284179317 8951.291467169267
1100.7977925485757 8691.605583816498
1101.6779390897755 8737.815712787278
1102.5578681040806 8759.120683649806
1103.4375796540226 8682.834493909137
1104.3170738021054 8628.56383373123
1105.1963506108077 8512.171345086208
1106.0754101425773 8516.469509046266
1106.9542524598382 8438.29445976871
1107.8328776249855 8361.085657411788
1108.7112857003904 8217.536676228121
1109.5894767483987 8268.729120299016
1110.4674508313292 8443.022216049212
1111.3452080114657 8246.18343512978
1112.2227483510815 8348.28998980954
1113.1000719124077 8365.021625769386
1113.9771787576592 8344.50695251019
1114.854068949022 8305.193030751872
1115.7307425486542 8342.42937832599
1116.6071996186893 8338.54473504193
1117.483440221229 8485.202886694142
1118.3594644183577 8333.66872982834
1119.235272272128 8342.816712296386
1120.1108638445658 8492.92041323775
1120.9862391976712 8547.616500380409
1121.8613983934229 8548.96781293082
1122.7363414937627 8558.862085174538
1123.6110685606182 8666.49925739675
1124.485579655884 8677.8183546778
1125.359874841426 8724.530875950755
1126.2339541790916 8682.157956620464
1127.1078177306936 8806.246996935406
1127.9814655580267 8660.387857759635
1128.854897722851 8712.460238872169
1129.7281142869106 8704.424789364624
1130.6011153119125 8691.89692144844
1131.473900859548 8692.68103066227
1132.3464709914697 8651.439760677682
1133.2188257693178 8667.932318399411
1134.0909652546961 8587.864478648144
1134.96288950919 8511.512206099247
1135.8345985943506 8637.951069961795
1136.7060925717087 8454.677376152717
1137.57737150277 8468.423295319439
1138.4484354490069 8589.007125746162
1139.3192844718778 8393.578835860493
1140.1899186327992 8272.839555249166
1141.060337993178 8340.591213633495
1141.930542614382 8321.125764588392
1142.8005325577597 8231.142326902791
1143.670307884635 8099.190580528925
1144.5398686563003 8266.995930321471
1145.409214934025 8232.555444658325
1146.2783467790541 8050.29920359416
1147.1472642526023 8086.018430048278
1148.0159674158622 8188.501006000161
1148.8844563300026 8024.654097137578
1149.7527310561618 8007.554834477087
1150.6207916554504 8012.757048436902
1151.4886381889592 7977.624060921636
1152.3562707177498 8077.084145630132
1153.2236893028585 8052.358632239809
1154.090894005296 8021.223198926588
1154.9578848860474 8081.86522815285
1155.8246620060709 8037.429031195867
1156.6912254262988 7886.175794179447
1157.5575752076438 7942.27907718754
1158.42371141098 8044.529435341958
1159.2896340971656 8076.8693240273205
1160.1553433270346 7913.227413634528
1161.0208391613887 8120.204517354827
1161.8861216610057 7971.772647595413
1162.75119088664 7963.222455877838
1163.6160468990201 7946.180410407086
1164.4806897588442 7905.1498047299465
1165.3451195267917 7992.36023216802
1166.2093362635114 7989.076439499579
1167.0733400296285 7916.315789401017
1167.9371308857444 7914.115692499518
1168.8007088924278 7896.587048047964
1169.6640741102328 7947.893020716641
1170.5272265996773 7826.241598942475
1171.390166421259 7849.684230438515
1172.252893635452 7934.220716613517
1173.1154083026995 7993.07574775291
1173.977710483421 7933.116738039493
1174.8398002380145 7848.456451452706
1175.7016776268483 7924.670133864742
1176.563342710264 7911.399968880201
1177.4247955485826 7924.379479336219
1178.2860362020947 8001.211551507756
1179.147064731069 7839.070241707431
1180.0078811957483 7923.270708846901
1180.8684856563486 7852.7377703351885
1181.7288781730604 8038.3705606550475
1182.589058806052 8093.325138114978
1183.4490276154593 8116.901251824704
1184.3087846614017 7798.56522464044
1185.1683300039676 8016.597815237236
1186.027663703222 8193.033891703859
1186.8867858192025 8074.049262413379
1187.7456964119228 8101.446455722445
1188.6043955413716 8185.510348067978
1189.4628832675116 8156.332665252846
1190.3211596502842 8251.34041818869
1191.179224749596 8249.292728675438
1192.0370786253388 8154.559279942792
1192.8947213373758 8343.43705757268
1193.7521529455407 8394.387549397443
1194.6093735096438 8161.542342096314
1195.466383089477 8263.353282691745
1196.3231817447977 8152.612050065656
1197.1797695353398 8373.997045909418
1198.0361465208189 8141.274530322621
1198.8923127609214 8242.881181713437
1199.7482683153048 8302.88814531952
1200.6040132436028 8355.600376430153
1201.459547605431 8213.935118549887
1202.3148714603722 8305.728247920797
1203.1699848679855 8205.629119057063
1204.0248878878065 8331.00848338613
1204.8795805793507 8152.697930874418
1205.7340630020935 8283.950866026145
1206.5883352155033 8237.867362192857
1207.4423972790064 8287.887008574424
1208.2962492520237 8012.850541223865
1209.1498911939307 8113.544696469247
1210.0033231640937 8091.086363249267
1210.8565452218427 8114.094535988437
1211.7095574264913 7867.649260983031
1212.5623598373222 8041.491573354586
1213.4149525135963 7868.323320894839
1214.2673355145507 7976.841990351166
1215.1195088993936 7865.682039541549
1215.9714727273113 7880.204175502135
1216.8232270574663 7912.995657111777
1217.6747719489904 7717.3684698510015
1218.5261074609934 7756.544703830991
1219.3772336525653 7818.154560475324
1220.2281505827668 7811.703194591972
1221.0788583106296 7818.147180982187
1221.9293568951707 7621.374776869025
1222.7796463953746 7549.616254597606
1223.629726870202 7689.889580742383
1224.4795983785934 7693.55510100463
1225.3292609794553 7586.610648499523
1226.1787147316809 7593.4242416405195
1227.0279596941327 7637.759672734233
1227.8769959256424 7784.631022701103
1228.7258234850306 7669.362598234964
1229.5744424310833 7555.434019178656
1230.422852822563 7674.283828761683
1231.2710547182105 7840.048221409908
1232.119048176739 7653.6337774917465
1232.9668332568417 7501.798097531291
1233.8144100171812 7693.777864221677
1234.6617785163999 7729.417860742421
1235.508938813111 7561.133521131378
1236.3558909659114 7623.401290014478
1237.2026350333617 7770.023705803705
1238.049171074008 7740.0411054629785
1238.8954991463652 7582.083577810356
1239.741619308932 7644.606144208721
1240.587531620169 6489.976295567041
1241.4332361385277 7737.789954355071
1242.2787329224248 7621.306195622555
1243.1240220302534 7525.437338631408
1243.9691035203869 7610.144525442384
1244.813977451171 7826.6809030936765
1245.6586438809263 7655.137101974721
1246.5031028679496 7543.216830527404
1247.3473544705157 7818.333335285695
1248.1913987468706 7779.752722930677
1249.0352357552383 7620.192467973024
1249.8788655538228 7683.346602364361
1250.7222882007918 7884.910935917142
1251.565503754302 7849.369633846535
1252.4085122724755 7698.964224131754
1253.2513138134182 7898.034863481725
1254.0939084352049 7930.696219530431
1254.9362961958905 7963.471463171496
1255.7784771535007 7898.622290127762
1256.6204513660432 7944.277023533867
1257.4622188915 8185.537526404703
1258.3037797878242 7970.247361839732
1259.1451341129468 7966.667517492945
1259.9862819247755 8042.663685505514
1260.8272232811978 8043.852889958437
1261.6679582400666 8144.889663209685
1262.5084868592203 8033.12819706572
1263.34880919647 7982.906977967393
1264.1889253095997 8038.477744941801
1265.0288352563712 8105.61501440651
1265.8685390945266 7937.991576854673
1266.7080368817751 8071.9330447913335
1267.5473286758115 8136.391081321912
1268.386414534294 8099.692695673994
1269.2252945148703 7920.538993506138
1270.0639686751547 7950.532160501032
1270.9024370727402 7984.188414917943
1271.7406997651997 7921.381810425772
1272.5787568100714 7887.429118939132
1273.4166082648808 7930.339642920779
1274.2542541871244 7940.5112906735985
1275.091694634275 8070.84357098046
1275.9289296637817 7812.215998293245
1276.7659593330663 8024.2644472661505
1277.6027836995308 8001.790569976845
1278.4394028205552 7967.225851325444
1279.2758167534867 7948.750655523781
1280.112025555658 7868.470343165197
1280.9480292843746 7984.954346633999
1281.7838279969128 7849.479524527611
1282.6194217505326 7954.888838720011
1283.4548106024686 7808.903344912322
1284.289994609926 7883.340138910845
1285.1249738300921 8007.736032302544
1285.959748320127 7956.32294506851
1286.7943181371702 8006.55121925051
1287.6286833383328 7980.225743457818
1288.4628439807038 8111.989396364525
1289.2968001213521 8021.085170587071
1290.1305518173194 8176.598782604642
1290.9640991256183 8262.096202704979
1291.7974421032523 8177.1285906044195
1292.630580807183 8188.764494303168
1293.463515294361 8310.590646651515
1294.29624562171 8506.488734015154
1295.12877184613 8401.396068535763
1295.961094024493 8372.109537821014
1296.79321221365 8537.917467308904
1297.6251264704333 8503.737968893818
1298.4568368516466 8678.371058071109
1299.2883434140658 8666.079545397495
1300.1196462144526 8659.741945463482
1300.9507453095375 8855.490945859514
1301.7816407560313 8908.082424396063
1302.6123326106172 8820.575499511666
1303.4428209299622 8728.94467848997
1304.2731057707024 9113.4840366009
1305.1031871894502 8996.452118468944
1305.933065242798 9067.308847740498
1306.7627399873181 8990.244745105456
1307.5922114795467 9288.984028328341
1308.4214797760123 9115.517640300748
1309.2505449332057 9085.794377633329
1310.0794070076026 9282.941226012055
1310.9080660556538 9302.502568563268
1311.736522133786 9354.972126490524
1312.5647752983987 9246.94530857704
1313.3928256058734 9147.121472710463
1314.2206731125661 9363.64631729524
1315.048317874809 9299.8590172464
1315.8757599489109 9268.77782010109
1316.7029993911547 9300.223985183102
1317.5300362578055 9500.395768245533
1318.356870605101 9305.923305884866
1319.183502489257 9253.876284169473
1320.0099319664623 9390.147996873831
1320.836159092889 9401.832863473406
1321.66218392468 9381.8810917665
1322.4880065179532 9233.358326089065
1323.3136269288134 9277.242531014212
1324.1390452133292 9356.993101048076
1324.9642614275563 9508.73450364736
1325.7892756275214 9136.856601058693
1326.6140878692295 9101.520737577466
1327.4386982086617 9348.441457809287
1328.2631067017755 9058.898753748243
1329.0873134045069 9005.509960751448
1329.911318372764 8890.1894294575
1330.735121662441 8874.018726346916
1331.558723329399 8737.605309323453
1332.3821234294774 8717.492067712636
1333.2053220185007 8665.36742757768
1334.0283191522612 8511.00441872343
1334.851114886529 8637.75489148213
1335.6737092770582 8365.717186408488
1336.4961023795695 8381.302433763247
1337.3182942497697 8203.280782645365
1338.1402849433325 8138.972479377361
1338.962074515921 7990.871904055403
1339.7836630231632 7939.10917350304
1340.6050505206676 8261.337327031619
1341.426237064028 8046.300048024726
1342.2472227088037 7822.693032612182
1343.0680075105338 7750.21149017029
1343.888591524741 7850.915238299131
1344.7089748069138 7815.58097526524
1345.5291574125276 7699.861263244861
1346.3491393970307 7484.378428157569
1347.168920815846 7776.60071171405
1347.9885017243778 7719.6773350920585
1348.8078821780036 7579.419643264162
1349.6270622320844 7535.584423646605
1350.4460419419447 7474.935433558467
1351.2648213629054 7470.901925191242
1352.0834005502438 7347.4782308272215
1352.90177955923 7352.268488313624
1353.7199584451064 7513.785250740951
1354.5379372630887 7398.317938766515
1355.355716068374 7341.973236927899
1356.1732949161305 7214.101328466236
1356.9906738615155 7336.587702886653
1357.8078529596478 7273.459478480063
1358.6248322656375 7459.677057122707
1359.441611834567 7231.56739244792
1360.2581917214866 7367.468984096418
1361.0745719814367 7205.86357536797
1361.890752669433 7133.470218465618
1362.7067338404577 7146.760186867515
1363.5225155494845 7355.169420056406
1364.3380978514506 7359.314111303504
1365.1534808012839 7145.411440465951
1365.9686644538815 7101.324360547553
1366.783648864117 7407.581780283935
1367.5984340868417 7304.413197512408
1368.413020176893 7313.838878290412
1369.2274071890715 7283.724114156527
1370.0415951781652 7322.862060638568
1370.8555841989346 7203.319474139799
1371.6693743061223 7066.306146444464
1372.48296555444 6924.625724001703
1373.2963579985844 7307.697218549563
1374.1095516932255 7230.244665401308
1374.9225466930166 7014.084115318814
1375.7353430525782 7182.332009006257
1376.5479408265164 7126.149850466891
1377.36034006941 7303.34185559686
1378.1725408358216 7162.864056222262
1378.9845431802805 7118.484280087192
1379.796347157304 7406.817246462099
1380.6079528213813 7308.4601427284
1381.4193602269788 7244.249984623772
1382.230569428546 7155.824733986969
1383.0415804805016 7335.957934149608
1383.852393437246 7201.837958750247
1384.6630083531563 7227.026570239427
1385.4734252825892 7168.381804091613
1386.2836442798798 7387.489523560541
1387.0936653993322 7396.96804996568
1387.9034886952395 7222.288879965412
1388.713114221864 7256.686189799671
1389.5225420334482 7323.847893483246
1390.331772184214 7306.8666745416485
1391.1408047283585 7124.78179249801
1391.9496397200564 7269.815458387539
1392.758277213461 7373.863369556695
1393.5667172627054 7424.968701679689
1394.3749599218918 7213.5041505002055
1395.1830052451114 7181.108879618584
1395.9908532864265 7342.073672256616
1396.7985040998774 7411.166878572226
1397.6059577394808 7253.692040346132
1398.4132142592352 7129.69951146285
1399.2202737131156 7195.208727137116
1400.027136155073 7349.34932781786
1400.8338016390353 7106.482700061706
1401.6402702189134 7139.356650875855
1402.446541948586 7217.506567717528
1403.2526168819204 7121.754751065482
1404.058495072757 7051.531195377577
1404.8641765749107 7084.99490715741
1405.6696614421799 7145.4575743548485
1406.4749497283356 7340.106933197772
1407.280041487129 7029.871243095697
1408.084936772295 6819.821511876589
1408.8896356375335 7216.388410335094
1409.6941381365323 7069.265563294922
1410.498444322955 6902.716591577308
1411.3025542504402 6953.540909051189
1412.106467972606 7156.029343404123
1412.9101855430508 7115.286123458083
1413.7137070153458 6828.341119320695
1414.5170324430437 7012.9157409006175
1415.320161879672 7108.534318862692
1416.1230953787435 7201.926093466577
1416.925832993742 6958.627774785278
1417.7283747781275 6926.663257697207
1418.5307207853439 6985.643571724446
1419.3328710688093 7036.347993187783
1420.134825681922 6851.9294332321515
1420.9365846780584 6975.589552461037
1421.7381481105713 7255.177195873255
1422.539516032788 7184.824767878301
1423.3406884980232 7105.230106076144
1424.1416655595604 7163.158294632424
1424.942447270665 7291.500890302064
1425.7430336845828 7417.851593643245
1426.5434248545298 7313.179590047754
1427.3436208337116 7486.474881649378
1428.143621675301 7585.025052507127
1428.9434274324558 7599.126561204726
1429.7430381583108 7445.598758879115
1430.5424539059713 7483.768257722788
1431.3416747285337 7994.111860351691
1432.1407006790632 7804.72792525776
1432.9395318106053 7661.673776847152
1433.7381681761835 7679.458843588758
1434.5366098288014 7760.847529069792
1435.3348568214424 7765.88902063189
1436.1329092070573 7594.839131607044
1436.9307670385879 7668.930478973931
1437.7284303689503 7961.784132207322
1438.5258992510335 7934.326456534707
1439.3231737377118 7816.248886627296
1440.1202538818306 7723.79040911897
1440.9171397362225 7792.443874011794
1441.7138313536925 7786.333692351375
1442.5103287870243 7666.348089303438
1443.3066320889775 7420.530696095464
1444.1027413122956 7690.591594142333
1444.8986565096966 7606.922064094919
1445.694377733882 7546.21799694875
1446.4899050375207 7348.583258809083
1447.2852384732687 7274.6672437629195
1448.0803780937622 7510.344958612848
1448.8753239516063 7236.838383825407
1449.6700760993954 7123.071086721415
1450.464634589689 7305.952725677145
1451.2589994750397 7385.244813938868
1452.0531708079689 7163.5662854772645
1452.8471486409799 6983.5824071512325
1453.6409330265524 7223.012007998701
1454.4345240171442 7006.249146488806
1455.2279216651987 6961.4550930599235
1456.0211260231263 6989.5393014303
1456.8141371433194 7314.209039230096
1457.6069550781594 7121.407731519781
1458.3995798799897 6784.606017109875
1459.1920116011424 6806.574424481967
1459.98425029393 6785.012156215045
1460.7762960106338 6773.797385623632
1461.5681488035225 6874.706065902827
1462.3598087248392 6820.190829572295
1463.1512758268036 6944.8602278291655
1463.942550161617 6727.4790932737205
1464.7336317814625 6615.911765122008
1465.524520738496 6709.042426662656
1466.3152170848552 6649.88469277885
1467.1057208726506 6687.626320175567
1467.8960321539817 6577.360095801739
1468.6861509809169 6371.930083873711
1469.4760774055085 6551.769302748878
1470.265811479785 6523.502686789519
1471.055353255755 6303.270758226147
1471.844702785409 6320.702307997275
1472.6338601207044 6276.5567901326285
1473.4228253135934 6478.438574141315
1474.2115984159936 6227.621592037903
1475.0001794798063 6142.6212979782285
1475.7885685569145 6296.0187997253925
1476.576765699172 6242.269568622493
1477.3647709584238 6159.716731772838
1478.1525843864802 6250.754857406026
1478.9402060351367 6183.083126335474
1479.7276359561693 6160.391615885215
1480.514874201328 6084.797350825391
1481.3019208223468 5909.014522224567
1482.0887758709323 5910.744132789932
1482.8754393987747 6151.2191937131065
1483.6619114575406 5922.411232949968
1484.4481920988783 5911.259474309875
1485.2342813744108 6013.356608077162
1486.0201793357446 6135.892709895305
1486.8058860344572 5929.193059683966
1487.591401522117 5868.900640314953
1488.3767258502594 6007.4799975802625
1489.1618590704056 6111.863005207503
1489.9468012340494 5867.568401285212
1490.7315523926754 6080.823200079828
1491.5161125977356 6029.460635304563
1492.3004819006637 6082.71161324499
1493.084660352877 5868.957982950344
1493.8686480057622 5960.699026896062
1494.6524449106964 6069.176568842466
1495.4360511190262 6176.538361849098
1496.219466682087 6069.0227455603945
1497.0026916511779 5979.2947500640685
1497.7857260775945 6027.579961222984
1498.5685700125996 6011.890611772301
1499.3512235074395 5850.144559265713
1500.133686613337 5875.1292688288495
1500.9159593814966 5945.804575422853
1501.698041863101 6267.416698740459
1502.4799341093094 5947.02511710027
1503.2616361712662 5852.289078325454
1504.043148100087 5976.562606583737
1504.8244699468742 6114.62841773388
1505.6056017626997 5795.130619359139
1506.3865435986281 5833.950384417565
1507.1672955056893 6000.400989903189
1507.9478575348967 5900.397134918396
1508.7282297372512 6045.6344033293735
1509.5084121637192 5967.057489902785
1510.2884048652577 6032.1521051943655
1511.0682078927948 5905.198562184647
1511.8478212972423 5940.618092638075
1512.6272451294917 5927.432991452203
1513.4064794404076 6056.962925360467
1514.1855242808433 6144.177158907565
1514.9643797016215 5937.477412153291
1515.743045753552 6103.373220121406
1516.5215224874191 6007.276818853175
1517.2998099539836 5909.55077134527
1518.077908203999 6097.802781711325
1518.8558172881785 6089.8884371755485
1519.633537257234 6177.529163518699
1520.4110681618404 6124.671217537984
1521.1884100526604 6141.614631160364
1521.9655629803365 6081.075376913165
1522.7425269954856 6316.5144560143035
1523.5193021487103 6518.575699453165
1524.2958884905856 6124.096108787325
1525.0722860716687 6248.203561318087
1525.848494942502 6206.727220513481
1526.624515153595 6327.787472780838
1527.4003467554485 6236.362313428634
1528.175989798534 6291.103995842631
1528.9514443333064 6347.09574989704
1529.726710410203 6462.806239606451
1530.5017880796331 6159.669758517475
1531.276677391992 6202.484763890973
1532.0513783976457 6414.262755685375
1532.825891146953 6344.049510364266
1533.6002156902414 6287.82752568828
1534.3743520778207 6154.232490420496
1535.1483003599806 6282.680275442077
1535.9220605869923 6323.587696449837
1536.6956328091019 6301.056026438759
1537.4690170765407 6105.397286920571
1538.242213439511 6313.440077975627
1539.015221948208 6139.86317561167
1539.78804265279 6074.834492798338
1540.560675603405 6068.115798176883
1541.3331208501804 6216.68437374749
1542.1053784432224 6174.028047264166
1542.8774484326168 5973.993952492623
1543.649330868422 6070.169664175331
1544.4210258006842 6017.313609270341
1545.1925332794308 6010.728301848536
1545.9638533546604 5984.487488443321
1546.7349860763552 5932.387679558835
1547.5059314944829 6166.586856583885
1548.27668965898 5948.146151569857
1549.0472606197673 6019.074698154139
1549.817644426752 5788.359316295161
1550.5878411298072 6006.832661339986
1551.3578507787988 5881.067759730131
1552.1276734235635 5809.749491750873
1552.8973091139233 5925.969004999391
1553.6667578996767 6113.02224709304
1554.436019830604 5910.445015865416
1555.20509495646 5846.312125112862
1555.9739833269869 5709.112123665095
1556.7426849919011 5854.105038529577
1557.511200000903 5990.642786244992
1558.2795284036674 5929.966538460268
1559.0476702498509 5893.060473973079
1559.8156255890954 6057.78546475114
1560.5833944710157 6103.605503810259
1561.3509769452048 5959.355151873529
1562.1183730612447 5919.650168517759
1562.8855828686865 5816.148567937662
1563.6526064170703 6100.734211079953
1564.4194437559127 6084.734922555893
1565.1860949347047 5973.806957896228
1565.9525600029283 6076.029584736449
1566.7188390100328 6268.492408852695
1567.4849320054564 5854.181115802779
1568.250839038612 5909.021705173221
1569.0165601588997 6021.302787576085
1569.7820954156887 6120.5509266512145
1570.5474448583373 5872.112876920856
1571.31260853618 5869.288088707665
1572.0775864985299 5864.469840612566
1572.8423787946813 6046.40898247585
1573.6069854739108 5914.533214066772
1574.371406585471 6009.213352364657
1575.1356421785986 6004.617087379351
1575.899692302506 5958.0294874794145
1576.6635570063845 6155.193677388835
1577.4272363394157 6043.806651067787
1578.190730350747 5968.161205148444
1578.9540390895163 6088.5108470146715
1579.7171626048384 5725.849277974754
1580.480100945806 5863.744323405759
1581.2428541614918 5926.9917380680745
1582.0054223009538 5939.331204123149
1582.767805413223 5977.694647376443
1583.5300035473156 5935.730569747191
1584.292016752228 6043.593306151941
1585.0538450769309 6049.85988597278
1585.8154885703807 5798.086871387315
1586.5769472815136 5819.165920304798
1587.3382212592405 5829.888993319384
1588.099310552463 5960.113828576878
1588.8602152100484 5998.077063245518
1589.6209352808564 5974.402439286447
1590.3814708137234 5691.1886119128685
1591.14182185746 5814.609771645213
1591.9019884608679 5646.66941389704
1592.6619706727215 5610.798443593204
1593.4217685417734 5742.171439297382
1594.1813821167616 5906.602427529711
1594.9408114464022 5542.149627862393
1595.7000565793933 5608.236995399436
1596.459117564409 5667.1525480508335
1597.2179944501113 5588.080188008038
1597.9766872851324 5620.841337021333
1598.735196118092 5693.591231994264
1599.4935209975883 5832.31948261924
1600.2516619721973 5725.040270925574
1601.0096190904787 5546.861887197689
1601.7673924009723 5588.923678248437
1602.524981952196 5556.604023930569
1603.2823877926476 5566.612071668334
1604.0396099708087 5543.728134618875
1604.7966485351371 5537.817349325169
1605.5535035340745 5554.9502515181175
1606.3101750160404 5729.288690439394
1607.0666630294363 5517.943447704676
1607.822967622642 5355.612997552675
1608.5790888440224 5522.336641413284
1609.3350267419137 5640.862456335391
1610.0907813646445 5582.609378713384
1610.8463527605145 5356.688525901014
1611.601740977805 5531.940192664545
1612.356946064785 5453.374930582223
1613.1119680696902 5312.449851299769
1613.8668070407512 5523.892736816211
1614.6214630261748 5433.303604917558
1615.375936074137 5461.34206307215
1616.1302262328118 5362.572350793933
1616.8843335503425 5506.440225695822
1617.638258074854 5392.511323898527
1618.391999854457 5422.0343092800995
1619.1455589372363 5537.568754718401
1619.8989353712623 5466.068866092375
1620.65212920458 5243.879937066462
1621.4051404852235 5284.340585728374
1622.1579692611976 5419.121943572002
1622.9106155804966 5289.590042669658
1623.663079491087 5300.561637999204
1624.4153610409248 5449.4797721475825
1625.1674602779385 5293.837369361846
1625.9193772500403 5168.046900556393
1626.6711120051277 5523.911290048108
1627.4226645910676 5354.950920438272
1628.174035055721 5202.698975471612
1628.9252234469168 5425.316287319437
1629.676229812474 5266.694802446474
1630.4270542001905 5528.629245689607
1631.1776966578382 5387.04479922182
1631.9281572331747 5339.385912825926
1632.678435973945 5579.606900621538
1633.4285329278573 5548.277594426897
1634.1784481426203 5220.185530147184
1634.9281816659113 5363.797787880271
1635.677733545388 5623.502787317308
1636.4271038286934 5435.25015922516
1637.176292563452 5517.264812066435
1637.9252997972635 5493.731197417166
1638.674125577716 5605.258776907516
1639.4227699523672 5703.004478734601
1640.171232968767 5311.169633694583
1640.9195146744423 5519.684336529763
1641.6676151168977 5687.3286795789945
1642.4155343436178 5729.183974391808
1643.1632724020765 5575.88818088555
1643.9108293397167 5583.547549555369
1644.658205203974 5379.746187093556
1645.4054000422566 5981.712559390124
1646.1524139019566 5406.458988400701
1646.8992468304423 5334.086381675085
1647.6458988750728 5496.2487602137
1648.3923700831765 5521.240685589354
1649.1386605020743 5467.814465325222
1649.8847701790564 5640.100049726914
1650.6306991614038 5550.291113131126
1651.3764474963682 5546.694395054065
1652.1220152311944 5258.8428309707915
1652.867402413096 5566.383157115241
1653.6126090892776 5507.621166832647
1654.3576353069184 5656.579662835757
1655.1024811131829 5426.356892508611
1655.8471465552066 5325.321411260871
1656.5916316801213 5518.342654734963
1657.3359365350298 5438.723997970035
1658.0800611670165 5327.896384722272
1658.824005623148 5270.30800153403
1659.5677699504722 5105.024463240417
1660.3113541960192 5315.22011520681
1661.054758406799 5167.987026255322
1661.7979826297997 5111.62014426107
1662.5410269119966 5047.176867581888
1663.283891300338 5282.524119330097
1664.0265758417645 5073.6577516493035
1664.7690805831826 5094.2779908798075
1665.5114055714948 5201.612931574241
1666.2535508535748 5439.757959177517
1666.9955164762814 4868.125605393821
1667.7373024864555 5108.433315193697
1668.478908930916 5137.233319666943
1669.220335856462 4995.262911017024
1669.9615833098778 4845.744106842196
1670.7026513379296 4838.847033452913
1671.44353998736 5008.439892415578
1672.1842493048916 4988.347185925708
1672.9247793372379 4881.632721085365
1673.6651301310812 4977.015971757223
1674.4053017330934 4913.120407685046
1675.1452941899242 4986.63353062945
1675.885107548207 4609.844110944792
1676.6247418545518 4603.160244582344
1677.3641971555535 4728.188778891565
1678.1034734977893 4905.522547984232
1678.8425709278108 4813.547903976923
1679.5814894921605 4945.266232083287
1680.320229237359 4790.656001824237
1681.0587902098978 4920.543438040133
1681.7971724562685 4699.050585424459
1682.5353760229264 4601.818322782408
1683.2734009563173 4862.757900302901
1684.0112473028657 4556.281128198667
1684.7489151089794 4848.6572397618875
1685.4864044210462 4731.975515011312
1686.2237152854377 4432.469778456283
1686.960847748498 4841.699085515915
1687.6978018565642 4558.241091126313
1688.434577655944 4526.698074461775
1689.1711751929379 4422.006886710753
1689.9075945138156 4482.717641224908
1690.6438356648396 4549.3330694276
1691.3798986922448 4359.221381194471
1692.1157836422499 4586.396019921219
1692.851490561059 4442.111016493608
1693.587019494853 4566.253527930794
1694.3223704897991 4307.992840003113
1695.0575435920364 4307.50552669206
1695.792538847696 4725.218498962035
1696.527356302886 4402.401023249668
1697.2619960036936 4287.5360234198
1697.9964579961907 4292.5491471448395
1698.730742326432 4048.1669816746326
1699.4648490404488 4190.8706958302455
1700.1987781842563 4261.303688342714
1700.9325298038548 4376.614877520434
1701.6661039452174 4400.482932935148
1702.3995006543082 4330.601122791549
1703.1327199770658 4324.683659506706
1703.865761959416 4211.6899549628015
1704.598626647261 4415.679592518118
1705.3313140864866 4125.670958194614
1706.0638243229587 4166.789120622667
1706.7961574025303 4287.6752518885805
1707.528313371029 4141.6161465062205
1708.260292274268 3924.988392835822
1708.9920941580403 4130.506431038389
1709.7237190681226 4251.711646588558
1710.4551670502697 4099.709497432427
1711.18643815022 3934.7335541051007
1711.9175324136959 4313.305239037264
1712.6484498863938 3969.625541092354
1713.379190614005 3848.2748680936083
1714.109754642188 4058.8454566742475
1714.8401420165883 4002.6116552405897
1715.570352782839 4194.151576226251
1716.3003869865497 4040.1466272652347
1717.0302446733076 3958.933057175817
1717.7599258886876 4092.986021944386
1718.4894306782444 4270.472771855625
1719.2187590875183 3858.911871052524
1719.9479111620203 4186.6090160156455
1720.6768869472544 3894.6514410495247
1721.4056864887025 4086.6795907549085
1722.1343098318284 4189.139107442019
1722.8627570220742 4111.027492409479
1723.591028104871 3908.8689117061776
1724.3191231256242 3770.8610311052134
1725.0470421297232 3942.206197482558
1725.7747851625427 4123.3021873797825
1726.5023522694337 4046.0524646701792
1727.2297434957363 3829.810326809961
1727.9569588867635 3715.658595221447
1728.6839984878152 4006.321269249115
1729.4108623441734 3564.102869020363
1730.1375505011038 3917.4470276849374
1730.8640630038426 3804.8717545658074
1731.5903998976264 3763.7390325476044
1732.316561227657 3955.4222407176553
1733.0425470391274 3761.3767301671915
1733.7683573772065 3826.5887657321305
1734.4939922870508 3907.940661001714
1735.2194518137949 3857.022431506888
1735.9447360025606 3878.1161105052465
1736.669844898439 3808.256478403957
1737.3947785465189 3771.532926704892
1738.1195369918605 3696.2221603449166
1738.8441202795093 3805.445329666293
1739.5685284544943 3789.863250069896
1740.292761561821 3823.772781525075
1741.0168196464838 3917.2795289026444
1741.7407027534518 3820.004810355918
1742.464410927687 3849.920200439261
1743.187944214118 3762.5893506554385
1743.9113026576688 3745.212921611267
1744.634486303241 3784.146512414741
1745.3574951957125 3773.420845170617
1746.0803293799509 3852.9798362224965
1746.8029889008048 3866.635676696356
1747.5254738031017 3804.8885114684213
1748.2477841316504 3687.501717036435
1748.969919931249 3712.8469570187663
1749.6918812466665 3742.0943698675087
1750.4136681226646 3817.873471414151
1751.1352806039777 3796.9717437534914
1751.856718735331 3427.766784213874
1752.5779825614281 3543.3558851954417
1753.2990721269507 3793.0740568287424
1754.0199874765676 3708.646011117219
1754.7407286549314 3599.8017993527087
1755.4612957066693 3598.9725502961824
1756.1816886763954 3600.942983684188
1756.9019076087097 3790.883659596306
1757.6219525481865 3690.476035908133
1758.3418235393856 3754.650813623693
1759.061520626854 3596.9274350030996
1759.7810438551096 3833.7006177975286
1760.5003932686614 3586.1510113315007
1761.2195689119999 3793.2464216616345
1761.938570829594 3707.2248832606283
1762.657399065898 3761.0726840872894
1763.376053665348 3463.3204518287357
1764.0945346723602 3632.387044645004
1764.812842131334 3807.4853845109633
1765.5309760866512 3573.7015405398206
1766.2489365826787 3504.4261126668143
1766.9667236637597 3522.750213752018
1767.684337374223 3362.814453948254
1768.401777758383 3352.0766857273834
1769.1190448605284 3428.4845357124586
1769.836138724937 3403.7711834528645
1770.5530593958665 3651.8887726242306
1771.2698069175603 3754.4846790807233
1771.9863813342326 3659.328020481639
1772.702782690094 3469.0983262355103
1773.4190110293293 3800.7433309390326
1774.1350663961111 3682.2667833873757
1774.8509488345844 3494.6374634934173
1775.5666583888924 3557.9678053926423
1776.2821951031437 3655.566765918245
1776.9975590214362 3537.3278196106867
1777.7127501878585 3612.607126725764
1778.4277686464684 3732.1651292720976
1779.1426144413108 3674.2188046480637
1779.8572876164162 3731.9068738436317
1780.571788215797 3330.7267282619805
1781.2861162834415 3579.848206813206
1782.0002718633277 3465.1675352552666
1782.7142549994132 3669.094760166462
1783.4280657356376 3513.026860526512
1784.141704115922 3535.534892214577
1784.855170184177 3518.2711233207892
1785.5684639842839 3474.0851697263197
1786.2815855601148 3286.579399548991
1786.9945349555237 3635.2219512842066
1787.707312214343 3379.6469718182534
1788.4199173803918 3826.498297721293
1789.132350497468 3317.3390270876034
1789.8446116093583 3441.619389744637
1790.556700759822 3378.651079450022
1791.2686179926077 3425.531322068514
1791.9803633514493 3497.8299684989456
1792.6919368800554 3352.5049685411504
1793.4033386221236 3571.728410148005
1794.1145686213295 3685.9090412154756
1794.8256269213307 3616.9981841789245
1795.536513565774 3401.2947670557537
1796.247228598284 3290.0722445423644
1796.9577720624693 3318.1116071173055
1797.6681440019165 3498.1538807377756
1798.3783444602013 3423.51164184277
1799.0883734808776 3587.3022091978264
1799.7982311074884 3531.2095462028797
1800.5079173835475 3525.9300175277813
1801.2174323525633 3572.411860775651
1801.9267760580187 3394.9542503703838
1802.635948543386 3530.294931400954
1803.3449498521113 3346.4962624751897
1804.0537800276325 3519.025477423574
1804.7624391133668 3411.077222526583
1805.47092715271 3224.325455637453
1806.1792441890484 3353.266920429219
1806.8873902657433 3494.913075016279
1807.5953654261448 3449.2251398865396
1808.3031697135812 3323.7685701598652
1809.0108031713662 3354.417198907805
1809.71826584279 3334.2863153476246
1810.425557771141 3383.9330097905745
1811.1326789996747 3834.127459378416
1811.839629571632 3416.180730861031
1812.5464095302468 3365.3458207926415
1813.2530189187182 3339.34290147051
1813.959457780249 3369.9744257123566
1814.6657261580076 3497.4428743993058
1815.371824095153 3420.39184322734
1816.0777516348262 3539.7272819306295
1816.78350882015 3096.611630099605
1817.4890956942272 3245.3999733510527
1818.1945123001533 3396.1211739761393
1818.8997586809928 3408.902154831041
1819.6048348798067 3187.944559833189
1820.3097409396287 3417.697295194609
1821.0144769034796 3631.632245559039
1821.7190428143622 3306.0269272414457
1822.423438715261 3479.4291411042564
1823.1276646491478 3227.8507815358957
1823.8317206589727 3353.109191671436
1824.5356067876692 3290.943907917266
1825.2393230781581 3328.6743005334283
1825.942869573335 3096.5507674346118
1826.646246316086 3219.1258883840164
1827.3494533492758 3367.0081312606403
1828.052490715756 3360.2472820762728
1828.7553584583547 3401.521942637869
1829.458056619891 3387.3715547876564
1830.1605852431585 3258.8407598948615
1830.8629443709433 3212.8960036786093
1831.5651340460063 3223.5235892466635
1832.2671543110919 3114.63884104167
1832.9690052089318 3402.2398616520563
1833.6706867822395 3148.6210655163604
1834.3721990737104 3357.774026046919
1835.0735421260233 3443.4384945767424
1835.774715981841 3313.2538569269354
1836.4757206838058 3380.050346687053
1837.1765562745459 3385.15031972804
1837.8772227966747 3069.1284142724207
1838.5777202927839 3389.0137429476126
1839.2780488054523 3281.698646277393
1839.9782083772352 3247.093436977799
1840.6781990506806 3477.539155579604
1841.378020868313 3282.9693260978884
1842.0776738726418 3240.127227275495
1842.777158106157 3228.7722705352303
1843.4764736113375 3087.128419155517
1844.1756204306403 3349.666222360777
1844.8745986065078 3111.3577820943638
1845.5734081813607 3104.573734526869
1846.2720491976124 3176.3396697064773
1846.970521697649 3024.803069527891
1847.6688257238511 3277.5497640785043
1848.3669613185684 3324.841810951633
1849.0649285241452 2967.2139195536965
1849.7627273829057 3378.747194601059
1850.460357937156 3217.8331026883075
1851.1578202291857 3015.4379456351794
1851.8551143012664 3234.8682711210213
1852.5522401956569 3246.528169579201
1853.2491979545957 3419.021405461276
1853.9459876203055 3045.327536510882
1854.6426092349902 3058.753764953869
1855.3390628408451 3126.059374074605
1856.0353484800362 3368.8887206541526
1856.7314661947203 3369.6725500102475
1857.4274160270397 3024.9403906139805
1858.123198019115 3074.0331893813245
1858.8188122130487 2966.5606275435475
1859.5142586509319 3182.8210578917924
1860.209537374838 3098.6232145054028
1860.9046484268183 3134.8346167582495
1861.599591848917 3230.092576162984
1862.294367683151 3059.6176386941956
1862.988975971528 3049.671491680778
1863.6834167560355 3061.424336756002
1864.3776900786452 3273.4118906167255
1865.0717959813119 3091.0263638754177
1865.7657345059724 3108.9481011313
1866.4595056945564 3222.9492265314443
1867.1531095889586 3282.223583280739
1867.846546231076 2968.549177168153
1868.5398156627743 3249.2059949872555
1869.2329179259123 3085.6777813266185
1869.9258530623283 3269.700249946357
1870.618621113843 3186.5146670396794
1871.3112221222636 2912.653784794363
1872.0036561293764 3076.5329408284183
1872.695923176956 3078.865005721638
1873.3880233067594 3221.908418782517
1874.0799565605212 2930.322406496566
1874.7717229799673 3062.077220444682
1875.4633226068036 3165.882527655992
1876.1547554827175 3261.091087715718
1876.8460216493859 3036.7954655310846
1877.5371211484617 2952.6580776237797
1878.2280540215852 3276.1225765537365
1878.9188203103804 2883.0282840884674
1879.6094200564548 3161.690448425426
1880.299853301396 2975.280349881736
1880.9901200867826 3370.592907912064
1881.6802204541673 3166.2237893781275
1882.3701544450942 3215.634418043856
1883.059922101087 2911.159811853505
1883.7495234636517 3372.3535332499478
1884.4389585742792 2946.3561215523296
1885.1282274744517 3016.0524736730817
1885.8173302056166 3515.5928361845063
1886.506266809225 3103.945321748629
1887.195037326701 2863.2039750097088
1887.8836417994517 2962.5897914504317
1888.5720802688702 3297.3353945405615
1889.260352776333 3230.89725909819
1889.9484593632042 3285.3224063917633
1890.63640007082 3027.140795869984
1891.3241749405151 2837.6608676046553
1892.0117840135954 3179.3140356541994
1892.6992273313572 3013.0689930474446
1893.3865049350788 2915.759536366269
1894.0736168660223 3300.5555252915756
1894.7605631654333 3158.1168110583644
1895.4473438745408 2795.4201178224025
1896.133959034556 3196.8083677404557
1896.820408686679 3128.4250020674012
1897.506692872088 3215.1539949190483
1898.192811631945 3101.360934385181
1898.8787650073991 2977.5259012317524
1899.5645530395832 3178.3625830271035
1900.2501757696118 3247.4804936854252
1900.9356332385796 2854.059160991296
1901.620925487574 3347.7560089470326
1902.3060525576602 3021.4012739845602
1902.9910144898859 3060.670920427202
1903.6758113252872 2881.086469788827
1904.3604431048789 3073.500684147853
1905.0449098696663 3141.5789824711587
1905.7292116606295 2972.6625204304128
1906.4133485187394 3050.8323668336952
1907.0973204849488 2757.9612532187143
1907.7811276001976 2770.977410425493
1908.4647699053967 3077.080464363469
1909.1482474414588 2598.7095127167295
1909.8315602492694 2694.799219991353
1910.5147083696957 3104.1934588651757
1911.1976918436012 2956.0009297173883
1911.880510711815 2950.970543715622
1912.5631650151681 3145.6419540338716
1913.2456547944657 2817.0686257294665
1913.927980090495 2988.745824108179
1914.6101409440362 2844.127603724428
1915.2921373958416 3150.0100482914413
1915.9739694866603 3002.605701083771
1916.655637257214 3087.179640927852
1917.3371407482136 3070.08542745457
1918.0184800003572 3163.169569173417
1918.6996550543154 3133.0236774122122
1919.3806659507554 3047.044407584825
1920.0615127303208 2941.300257362066
1920.7421954336423 3166.8358371249124
1921.4227141013343 3177.8510532332534
1922.103068773993 3054.944455527626
1922.783259492202 3200.78095273871
1923.4632862965227 2875.927182550621
1924.1431492275078 2901.008664333477
1924.8228483256917 2848.919697246395
1925.5023836315922 2840.731825992598
1926.1817551857057 2660.906232223461
1926.8609630285227 3242.216169292299
1927.5400072005123 3055.188267087209
1928.218887742125 2892.323055087831
1928.8976046938005 2869.8351367425134
1929.5761580959588 3092.2208571456913
1930.2545479890086 2889.1293887858055
1930.9327744133352 2681.9628295209177
1931.6108374093164 2907.1830400614194
1932.2887370173066 3192.284124365484
1932.9664732776473 2640.5165536069653
1933.6440462306673 2923.9069380682718
1934.3214559166754 2872.272011543487
1934.9987023759659 3101.450103241421
1935.675785648813 2988.177980547256
1936.3527057754836 2709.6859420584506
1937.029462796223 3221.2821315181454
1937.70605675126 2896.9423304058155
1938.3824876808085 2795.5056988774377
1939.058755625072 2948.1658468472046
1939.7348606242267 2881.941965810187
1940.4108027184448 2862.3568086172495
1941.0865819478713 3070.1509363716928
1941.7621983526478 2823.026362444787
1942.4376519728921 2732.3813060978373
1943.1129428487038 2921.466608324378
1943.7880710201734 2880.530031478758
1944.4630365273733 3072.9283231286477
1945.1378394103576 2747.148044081143
1945.8124797091714 3131.2307172807373
1946.4869574638324 2711.1569099545586
1947.161272714353 2820.8109802624913
1947.8354255007234 2982.7445416302107
1948.5094158629272 2713.8529269741343
1949.1832438409183 2840.1158452256395
1949.8569094746435 2982.0894873578964
1950.530412804037 3167.919426477604
1951.2037538690092 2994.207323518025
1951.8769327094578 2726.9465443177332
1952.5499493652678 2925.5513217950984
1953.222803876306 3087.4117752517222
1953.895496282421 2907.791877168207
1954.5680266234522 2819.298665188162
1955.2403949392155 2921.5730300254845
1955.9126012695142 2691.3565148601406
1956.5846456541403 2767.2241274819203
1957.2565281328643 2779.7561435827474
1957.9282487454457 3044.481786080751
1958.5998075316202 2990.9433545982147
1959.27120453112 2760.3331413930837
1959.9424397836501 2960.3518830409425
1960.613513328908 2807.889918277143
1961.2844252065697 3109.3169696484247
1961.9551754563017 2724.949903631574
1962.6257641177453 2884.1255554152694
1963.29619123054 2534.1660406174765
1963.966456834296 2800.3783580388035
1964.6365609686181 2749.8789651694156
1965.306503673086 3004.5157593123213
1965.976284987275 2739.095064875648
1966.645904950734 2814.41986780981
1967.315363603002 2511.967809768858
1967.9846609836077 2794.251839309417
1968.6537971320486 2742.0016722153205
1969.3227720878222 2942.374658628957
1969.9915858904042 2805.0192012057273
1970.660238579252 2964.047893872276
1971.3287301938108 2770.497509019924
1971.997060773514 2707.5807985445185
1972.665230357772 2610.2892210327177
1973.3332389859843 2739.938199723056
1974.0010866975335 2648.030798099324
1974.6687735317864 2771.349941906557
1975.3362995280932 2975.299460797153
1976.003664725793 2749.224222564212
1976.6708691642052 2534.5322461410483
1977.3379128826364 2741.2311693071874
1978.004795920373 2925.1162701209264
1978.6715183166925 3049.326808453406
1979.3380801108524 2495.846163656301
1980.0044813420973 2822.490073966977
1980.6707220496555 2395.17954110192
1981.3368022727373 2784.4615773107475
1982.0027220505417 2761.744699345135
1982.66848142225 2358.0164072852654
1983.3340804270283 2601.628485558628
1983.999519104027 2749.5840676342955
1984.6647974923835 2735.3110107028615
1985.329915631215 2798.324200135803
1985.99487355963 2774.906769447968
1986.6596713167146 2874.1025475873535
1987.3243089415428 2614.763017271858
1987.9887864731754 2945.674443308818
1988.6531039506553 2640.4274479603473
1989.3172614130071 3118.332237166186
1989.9812588992481 2592.4273767578916
1990.645096448372 2353.9605100319222
1991.3087740993633 2650.7513679583635
1991.9722918911848 2637.990287993738
1992.635649862792 2746.969415449546
1993.2988480531185 2717.098305250928
1993.9618865010852 2985.070073577416
1994.6247652455968 2710.3894847512656
1995.287484325545 2595.1816959070675
1995.9500437798033 2678.692167495653
1996.6124436472292 2671.6400298602694
1997.2746839666706 2787.2902714591833
1997.936764776954 2642.278209189753
1998.598686116895 2601.3966365208644
1999.2604480252903 2907.0894661714337
1999.9220505409212 2808.736291240185
2000.5834937025593 2461.1992717019248
2001.2447775489582 2688.0733732017607
2001.9059021188514 2629.8274712941247
2002.5668674509616 2599.0843465601292
2003.2276735839987 2592.835425819844
2003.8883205566508 2877.597596224009
2004.5488084075987 2556.137820288235
2005.2091371755014 2722.292056855176
2005.8693068990033 2521.472885898921
2006.5293176167397 2772.0388213530064
2007.1891693673224 2410.719093437621
2007.848862189354 2367.450784159276
2008.5083961214223 2561.105370464592
2009.1677712020955 2535.973735426436
2009.8269874699254 2564.0463177951087
2010.4860449634598 3074.984113252755
2011.1449437212177 2639.659246252623
2011.8036837817108 2888.982233003758
2012.4622651834325 2836.642844735502
2013.1206879648653 2806.280787650746
2013.7789521644736 2838.894162932057
2014.4370578207036 2412.0996927414176
2015.0950049719922 2612.6989156730874
2015.7527936567585 2818.0553026787056
2016.4104239134067 2556.0017762978446
2017.067895780323 2892.8554056394923
2017.725209295886 2805.287542527372
2018.3823644984514 2717.4075327822547
2019.0393614263648 2643.5734363046563
2019.6962001179545 2718.4079765367264
2020.3528806115355 2847.754138440087
2021.0094029454067 2734.3085255838714
2021.6657671578487 2534.095648614088
2022.321973287133 2625.372561151734
2022.9780213715148 2480.334226796983
2023.6339114492293 2499.11835425466
2024.2896435585026 2656.70007531417
2024.9452177375442 2538.3678364057055
2025.600634024544 2820.735872027519
2026.2558924576842 2735.9297795006414
2026.9109930751292 2729.826193614634
2027.565935915025 2616.432328210851
2028.2207210155066 3025.7442985589596
2028.8753484146964 2929.7558616476535
2029.529818150695 2393.387345163761
2030.1841302615903 2749.493794249877
2030.8382847854573 2668.441708632647
2031.4922817603601 2771.734200670356
2032.1461212243357 2600.058575486802
2032.7998032154192 2440.7899730397703
2033.4533277716218 2622.2516979311818
2034.1066949309443 2523.603765801009
2034.7599047313688 2398.165350601938
2035.4129572108704 2740.0906845863246
2036.0658524074006 2619.909538286066
2036.7185903589016 2733.23369434444
2037.3711711032956 2681.4016211140297
2038.023594678496 2612.022169184104
2038.675861122394 2578.1376974529544
2039.3279704728757 2857.542309194742
2039.9799227678031 2495.403788986652
2040.6317180450278 2628.290110308529
2041.2833563423865 2573.9240482391992
2041.9348376977014 2816.2704956046646
2042.5861621487784 2830.8891458564367
2043.2373297334088 2726.084525325535
2043.8883404893695 2618.5742808712557
2044.5391944544208 2627.860093104813
2045.1898916663158 2687.201298756247
2045.8404321627804 2910.841664713412
2046.4908159815368 2462.8300765757485
2047.1410431602853 2534.9350757953625
2047.7911137367173 2471.330420705677
2048.441027748504 2708.0703108319576
2049.090785233302 2372.748318601647
2049.7403862287592 2515.2367312490655
2050.389830772503 2854.3932499081966
2051.0391189021466 2352.448691166924
2051.688250655294 2524.568562246012
2052.337226069527 2433.8517225072565
2052.986045182417 2711.2650425266706
2053.634708031521 2178.2946962321266
2054.283214654375 2622.0195199503296
2054.931565088511 2282.4254335668297
2055.579759371436 2433.485242748753
2056.2277975406523 2627.6315547519407
2056.8756796336384 2749.4565156752965
2057.5234056878617 2322.1929947147823
2058.1709757407752 2511.2347895336607
2058.8183898298194 2821.2696068614955
2059.465647992416 2555.6468089984037
2060.1127502659747 2740.6881825174764
2060.759696687888 2265.0420660567843
2061.4064872955405 2625.6865383025697
2062.053122126292 2850.514474071569
2062.699601217497 2694.6687967910284
2063.345924606485 2538.920477508099
2063.992092330587 2638.4673803911896
2064.638104427102 2546.412917972747
2065.283960933324 2822.1867589670846
2065.92966188653 2564.4142457136395
2066.5752073239855 2742.768449437076
2067.2205972829397 2380.200618542242
2067.86583180062 2653.0565845838382
2068.5109109142522 2605.336976253384
2069.15583466104 2506.946119646858
2069.8006030781708 2408.4662502027904
2070.445216202821 2386.7905287373496
2071.089674072153 2774.288623752155
2071.7339767233116 2691.159236607417
2072.3781241934303 2592.0023431436093
2073.0221165196253 2715.3921917222683
2073.6659537390024 2391.3127108766407
2074.3096358886505 2685.174758575643
2074.953163005637 2574.726531393891
2075.596535127028 2161.0264038128817
2076.2397522898664 2298.644505539122
2076.882814531182 2506.326763551385
2077.5257218879924 2738.3428373531137
2078.1684743973 2384.504436350808
2078.8110720960885 2418.120205094526
2079.453515021336 2926.0221595625817
2080.095803209997 2509.427657579866
2080.7379366990135 2564.8131384656685
2081.37991552532 2645.496256596131
2082.0217397258275 2569.710379419221
2082.6634093374414 2279.710949109502
2083.3049243970418 2642.7297917432406
2083.9462849415067 2676.6519468456854
2084.587491007689 2594.3163198616944
2085.2285426324324 2486.659576585225
2085.869439852564 2524.5615679533157
2086.510182704902 2389.1335156005644
2087.1507712262483 2517.3869307543423
2087.791205453381 2192.8465467981523
2088.4314854230743 2542.5075968488936
2089.0716111720867 2539.9489805447984
2089.7115827371617 2330.687468670335
2090.351400155023 2877.8470354091933
2090.991063462385 2476.770254624874
2091.6305726959527 2192.6983155102325
2092.2699278924047 2475.886904488001
2092.9091290884153 2415.500826365226
2093.548176320641 2317.65617452871
2094.187069625721 2573.987165544091
2094.8258090402887 2211.5157589715373
2095.464394600951 2518.696004372033
2096.102826344313 2492.139205614377
2096.741104306955 2607.678978243529
2097.379228525453 2377.733522790747
2098.017199036358 2192.0073328853905
2098.6550158762147 2619.9068729945466
2099.2926790815527 2484.722641944008
2099.9301886888825 2636.2303728528245
2100.5675447347076 2427.3824728314853
2101.2047472555114 2534.12066413879
2101.841796287761 2297.4545553297107
2102.47869186792 2445.814421620181
2103.1154340324265 2545.832898746884
2103.752022817709 2541.473883835116
2104.388458260184 2416.9231605450145
2105.024740396251 2477.9851714663055
2105.660869262292 2399.6636753990815
2106.296844894685 2577.9419982713316
2106.93266732978 2527.1557054990453
2107.5683366039284 2311.133918843707
2108.2038527534532 2619.5473608813672
2108.8392158146726 2608.400761572776
2109.4744258238843 2271.694502303947
2110.1094828173755 2329.932477067772
2110.744386831422 2644.918628458999
2111.3791379022787 2426.474614379907
2112.01373606619 2667.604913924264
2112.648181359389 2627.599306818061
2113.28247381809 2570.48387443262
2113.916613478492 2487.6647254463433
2114.550600376786 2619.3685910353256
2115.1844345491445 2297.936153361594
2115.818116031729 2388.074803073735
2116.451644860679 2565.954206547706
2117.085021072133 2266.165708009535
2117.718244702204 2331.7605335812577
2118.3513157869984 2353.3893636853127
2118.984234362604 2283.2661850705445
2119.617000465092 2405.008362783735
2120.249614130529 2666.465042234542
2120.8820753949585 2467.619207644978
2121.5143842944162 2322.4928418582026
2122.14654086492 2314.74386900847
2122.7785451424734 2610.6793537457747
2123.4103971630702 2108.039189186341
2124.042096962681 2462.8128745040385
2124.6736445772767 2596.7475368242954
2125.305040042802 2219.9688748081944
2125.936283395191 2391.148925532462
2126.567374670365 2510.663036437796
2127.198313904233 2417.04011508444
2127.8291011326855 2358.902211374089
2128.4597363916037 2300.3623523427564
2129.0902197168507 2348.3759943191026
2129.720551144279 2210.8571989774023
2130.3507307097225 2644.4819657029498
2130.980758449008 2702.246328650296
2131.6106343979427 2286.2047530971818
2132.2403585923203 2684.0846060162007
2132.8699310679276 2631.767337617236
2133.499351860526 2645.5260173826655
2134.1286210058715 2476.924439563426
2134.7577385397053 2107.003429818253
2135.3867044977487 2480.8360240189195
2136.0155189157176 2692.5947574808624
2136.644181829308 2464.0511146236695
2137.2726932742025 2417.0264497278304
2137.901053286074 2694.8683381891074
2138.5292619005777 2132.3306408811104
2139.1573191533535 2252.2903935783283
2139.7852250800315 2498.253530812762
2140.4129797162295 2373.4423614796756
2141.0405830975433 2269.8528461025858
2141.6680352595613 2231.662721627662
2142.2953362378576 2193.4248177071454
2142.9224860679915 2265.046501687065
2143.549484785508 2440.513757163825
2144.1763324259373 2166.935638575893
2144.803029024799 2222.1991304878115
2145.429574617594 2287.59913061562
2146.0559692398165 2488.7623620567274
2146.682212926942 2301.3667154383543
2147.308305714432 2353.7456008007675
2147.9342476377333 2664.225872607129
2148.5600387322847 2656.874638612646
2149.185679033506 2655.935377012175
2149.8111685768017 2302.217135089003
2150.4365073975678 2250.4053387548806
2151.061695531187 2432.301743725653
2151.686733013021 2727.1798201467504
2152.311619878423 2501.088300342106
2152.9363561627342 2211.8359215506143
2153.560941901278 2207.6552955529696
2154.1853771293663 2422.591994942263
2154.809661882293 2382.1711861497197
2155.433796195348 2699.7342810343303
2156.0577801037944 2205.129130306893
2156.681613642895 2485.0995835592053
2157.3052968478896 2145.200610969683
2157.928829754006 2466.369379946251
2158.552212396462 2442.8994067543445
2159.1754448104566 2380.949090747898
2159.7985270311783 2199.334617670958
2160.4214590938027 1872.0189503220367
2161.0442410334927 2038.6340432102268
2161.6668728853874 2409.7413517107593
2162.289354684628 2296.8633149310253
2162.911686466332 2274.3794554620085
2163.533868265602 2483.6183821396107
2164.1559001175337 2480.571373842383
2164.7777820572046 2393.097198220811
2165.399514119681 2374.2052195202114
2166.021096340013 2138.2918128632327
2166.6425287532384 2137.392646891145
2167.263811394385 2136.6150951635764
2167.8849442984574 2396.523359115138
2168.505927500455 2319.479285848837
2169.126761035366 2465.746018051062
2169.7474449381552 2237.4839181474767
2170.367979243778 1969.5322949623635
2170.9883639871823 2485.9764602998516
2171.608599203293 2125.879289348361
2172.2286849270276 2548.0044549220934
2172.8486211932886 2784.315463770965
2173.4684080369625 2420.3004797129006
2174.0880454929265 2053.9505790057556
2174.7075335960417 2055.186566051477
2175.3268723811543 2528.58887292651
2175.9460618831 2196.747963728179
2176.565102136701 2151.842142384849
2177.1839931767627 2660.519169430112
2177.802735038078 2367.583998091851
2178.421327755432 2029.934383052204
2179.0397713635866 2040.5927466104574
2179.658065897298 2275.4287826750183
2180.276211391305 2410.517380244204
2180.8942078803357 2255.4858750670223
2181.5120553991 2311.625102288304
2182.129753982299 2028.5883819141102
2182.7473036646206 2187.9201355823034
2183.3647044807367 2288.53508544035
2183.9819564653044 2117.674905602289
2184.599059652968 2427.417764627226
2185.216014078367 2470.8814931814795
2185.832819776113 2472.5308161057246
2186.4494767808137 2474.042582336856
2187.065985127063 2188.4039110105728
2187.682344849436 2083.5128371924943
2188.298555982501 2469.1216174069755
2188.9146185608097 2315.0937720051465
2189.530532618901 2608.975818842446
2190.1462981912937 2318.828147811305
2190.761915312507 2216.0213161205047
2191.377384017036 2122.663019342188
2191.9927043393654 2352.2516765209884
2192.6078763139667 1958.9008585740053
2193.2228999753006 2527.5997518574823
2193.837775357808 2270.4404663290697
2194.452502495922 1958.0216025344503
2195.0670814240602 2349.0426293654964
2195.6815121766285 1960.623119607296
2196.2957947880186 2010.6369828167885
2196.9099292926057 2060.7588075328135
2197.523915724758 2124.770731488373
2198.137754118825 2325.2918577551436
2198.7514445091456 2446.3940158761507
2199.3649869300443 2593.399763899293
2199.9783814158327 2740.857776864167
2200.5916280008096 2545.017973941319
2201.2047267192593 2434.6210865962767
2201.8176776054515 2178.3713296704987
2202.430480693649 1992.3108993568508
2203.0431360180955 2286.843982417441
2203.6556436130195 2438.811378671277
2204.268003512645 1980.6897925850421
2204.8802157511727 2201.228932487216
2205.492280362796 2574.8710910129453
2206.1041973816937 2311.252443574357
2206.715966842032 2236.130287287328
2207.3275887779655 2209.8202077362394
2207.93906322363 2313.9711033695976
2208.550390213153 2282.923021665728
2209.1615697806465 2137.286192119681
2209.7726019602105 1991.0492312729225
2210.3834867859277 2072.86882690643
2210.9942242918787 2350.7749619879205
2211.6048145121167 2094.7555782522063
2212.2152574806914 2126.7170569549316
2212.825553231638 2158.731711419647
2213.435701798975 2581.3277066300157
2214.045703216707 2329.528524407883
2214.655557518832 1756.178754737092
2215.2652647393297 2011.5152391892298
2215.874824912169 1802.1483567169657
2216.4842380713 2142.388968311334
2217.09350425067 2137.924219581192
2217.7026234842033 2382.7840765386372
2218.311595805819 2371.519639131095
2218.9204212494133 2108.7951174684677
2219.52909984888 2355.6465938695146
2220.137631638092 2382.484929677058
2220.7460166509154 2409.2277881244627
2221.354254921198 2159.1763139626783
2221.9623464827764 2344.894008895702
2222.5702913694713 2134.462845992282
2223.178089615096 2516.04221624374
2223.7857412534486 2144.195860924507
2224.39324631831 1790.3710832128672
2225.000604843457 1996.725049777755
2225.607816862641 2259.6356182917666
2226.214882409611 2242.6726446806733
2226.8218015180973 2357.05265044029
2227.4285742218217 2198.0705814101084
2228.0352005544864 2167.5443381165605
2228.6416805497847 1899.4279299905015
2229.248014241399 2100.3397104614055
2229.8542016629945 2101.4481571209044
2230.460242848223 2353.4817186894757
2231.0661378307304 2124.849936652239
2231.671886644139 1896.007548138095
2232.277489322065 1773.7040624899535
2232.8829458981127 1818.4519495981615
2233.48825640587 2082.926845459224
2234.0934208789095 2230.5798937862446
2234.6984393507955 2378.4656552519305
2235.3033118550793 2141.0688856366005
2235.9080384252975 2098.8728172456704
2236.5126190949723 1982.240102204864
2237.1170538976166 2113.8522983390303
2237.721342866729 1959.124759833215
2238.32548603579 2164.1395585895143
2238.9294834382763 2252.297426795257
2239.533335107646 2172.0059212043698
2240.1370410773434 2029.9556036047693
2240.740601380803 1946.3966893046847
2241.3440160514474 2177.132148044523
2241.9472851226783 2374.4579794204574
2242.550408627896 2130.66882344073
2243.1533866004793 2347.5070303563416
2243.756219073799 2028.1773850931124
2244.3589060812064 1966.5139059461387
2244.961447656049 1895.9136223109485
2245.5638438316564 2228.7460068974115
2246.166094641343 2159.8391401340796
2246.7682001184166 2070.121918095701
2247.3701602961664 2159.6292813372147
2247.971975207871 2225.5733631303297
2248.5736448867974 2362.8967108806564
2249.175169366197 2015.7261861114773
2249.7765486793123 2227.292822621718
2250.3777828593684 2059.3231667228088
2250.9788719395783 2259.054850714657
2251.579815953146 2141.296566430568
2252.1806149332606 1877.0446555707501
2252.781268913097 2272.391586053295
2253.381777925817 1994.3717392470753
2253.9821420045737 2134.614207204249
2254.5823611825035 2182.3211212977517
2255.1824354927303 2143.3149326154935
2255.782364968365 1994.9750328721595
2256.38214964251 1846.4919837920675
2256.9817895482483 1990.368370130982
2257.5812847186553 2101.5041456304793
2258.180635186791 1955.9704172760441
2258.779840985704 2043.3366400675798
2259.37890214843 2188.097238618281
2259.97781870799 2307.5394154010532
2260.5765906973957 2176.932902870397
2261.175218149645 2142.662865699425
2261.773701097718 2352.9797551483584
2262.3720395745895 1902.9942450391131
2262.970233613216 2027.0986515157288
2263.568283246548 2151.322943377777
2264.1661885075137 1905.9344713673545
2264.763949429038 1987.6501173166203
2265.3615660440246 2274.2891757950742
2265.959038385374 1947.9014616291656
2266.5563664859637 2228.9012187724516
2267.153550378669 1886.9496360084734
2267.7505900963424 2176.1823950012067
2268.3474856718312 1943.5694320968316
2268.9442371379664 1959.194060441018
2269.5408445275643 2034.4807486621285
2270.1373078734377 2073.31434060791
2270.7336272083758 2021.9865115166424
2271.32980256516 1907.7501097247944
2271.925833976562 2239.286773030372
2272.5217214753357 2293.7219395263037
2273.117465094223 1855.1871470417288
2273.7130648659586 1893.9068416212074
2274.308520823257 2078.8910384314886
2274.903832998827 2265.7707377308734
2275.4990014253563 2027.4218059227817
2276.094026135528 2356.547008658659
2276.6889071620117 1927.704320911349
2277.2836445374614 1949.4844983261796
2277.878238294519 1957.2677194952528
2278.472688465812 1860.4415599472018
2279.066995083962 1763.406551792661
2279.6611581815705 2130.7052707708376
2280.255177791232 1908.8074111283488
2280.8490539455233 2315.7279325385166
2281.442786677013 2480.9402267393416
2282.0363760182554 2266.940202372877
2282.6298220017943 2040.2254485142519
2283.223124660155 2458.6970996915397
2283.816284025859 2061.8218826533544
2284.4093001314086 2312.682126420601
2285.002173009292 2008.7397758169755
2285.5949026919952 2175.581051986604
2286.1874892119777 2065.1800459339483
2286.7799326016993 2070.6200872982404
2287.3722328936 1970.6395766214378
2287.964390120109 2161.360586373472
2288.556404313642 2352.28597521788
2289.1482755066027 2340.0977903014395
2289.7400037313873 2084.892637095907
2290.3315890203703 1887.6416572758258
2290.9230314059205 2176.653169081389
2291.5143309203904 1873.3107459570406
2292.1054875961236 1925.5868796454706
2292.6965014654506 2353.456658132974
2293.287372560684 2041.8769204853863
2293.878100914131 2017.0405124270078
2294.468686558086 1992.2160117480144
2295.059129524827 1996.0039984460916
2295.649429846617 2221.1208532223745
2296.239587555716 1960.4726052494498
2296.8296026843636 2055.0145161286487
2297.419475264791 2035.4278180037265
2298.0092053292137 2015.6783293862586
2298.598792909839 2202.964758059315
2299.1882380388597 2030.131611839217
2299.777540748455 2419.3336545423745
2300.3667010707904 2151.517275780926
2300.9557190380256 2157.590272003993
2301.544594682302 2332.128290549031
2302.1333280357503 2186.4108483303744
2302.721919130485 2040.575377334777
2303.3103679986198 2435.7548629445273
2303.898674672242 2422.988301532912
2304.486839183437 1890.3423518353698
2305.0748615642697 1908.2443246259245
2305.6627418468015 2197.4465685047558
2306.2504800630704 1859.048531991665
2306.8380762451143 2119.9252454642374
2307.425530424949 2119.125464336409
2308.012842634582 2118.3073405712944
2308.6000129060103 2240.7986680161252
2309.187041271214 2049.21377032405
2309.773927762164 1857.2239927358048
2310.3606724108213 2115.0902050356826
2310.9472752491274 1814.401686836308
2311.5337363090184 2115.3742909621897
2312.120055622414 2103.296991099922
2312.706233221221 1978.2771479561484
2313.2922691373424 2083.9534235041438
2313.8781634026564 2189.865160878492
2314.463916049037 1783.5380297368151
2315.049527108342 2098.129953904177
2315.6349966124235 2415.0755987347993
2316.2203245931123 2264.58783675677
2316.8055110822315 1796.8540524869306
2317.3905561115935 1846.777063938435
2317.9754597129977 1954.683919660129
2318.560221918229 1816.1390297869652
2319.1448427590603 1677.3192029411064
2319.729322267256 1815.3977651174828
2320.313660474563 1845.89480690267
2320.8978574127195 2517.149820054868
2321.481913113452 2307.2848911698934
2322.0658276084705 1893.3935431454313
2322.6496009294806 1881.0379555418126
2323.233233108165 1976.5744737034834
2323.8167241762058 2072.3448082292366
2324.4000741652617 1831.899830612853
2324.983283106987 2156.831234400317
2325.5663510330232 2240.167225453816
2326.1492779749933 1959.727573930335
2326.7320639645204 2285.2218759765433
2327.3147090332004 1730.4704401693664
2327.897213212629 1860.865637483402
2328.4795765343843 1991.298717649494
2329.0617990300307 1945.198962254831
2329.643880731124 2370.9317341667124
2330.22582166921 2052.673873521034
2330.807621875816 1776.4497246592011
2331.3892813824623 1499.9369457169973
2331.9708002206517 1667.5800158115078
2332.5521784218818 2170.2249711657614
2333.133416017634 2039.8518752164794
2333.7145130393765 1863.3100579498223
2334.295469518571 2233.3202467332367
2334.876285486658 2147.068743294828
2335.456960975076 2179.327593171281
2336.037496015242 2211.696298008091
2336.6178906385667 1981.4907058413942
2337.198144876451 2194.5459352195867
2337.778258760278 2157.6720433602204
2338.3582323214214 2167.9318584284806
2338.938065591243 2178.161088087846
2339.517758601087 2450.838018625029
2340.0973113822965 2153.662935076326
2340.676723966193 1848.879209599403
2341.255996384094 1900.8461628416633
2341.835128667295 2388.47466452927
2342.4141208470883 2126.18026631603
2342.992972954751 1847.7713366050218
2343.5716850215467 1591.315983765588
2344.1502570787306 1334.301163825395
2344.7286891575386 1693.379915580404
2345.3069812892045 2285.9620739811176
2345.885133504944 2270.381884989095
2346.4631458359618 1909.8544990231028
2347.04101831345 1790.8974549117709
2347.6187509685915 1732.7370290305946
2348.196343832553 1885.5562047093385
2348.7737969364935 2021.1095367393816
2349.351110311558 1802.3011392808235
2349.9282839888765 1633.9509087184756
2350.5053179995757 1626.3573376597355
2351.0822123747585 1662.5934789407117
2351.658967145526 1604.3810621151201
2352.2355823429643 1546.1645538462262
2352.812057998144 2068.8075244091024
2353.3883941421263 1689.641395753378
2353.9645908059647 1976.239327243148
2354.540648020693 1948.418767545063
2355.116565817336 1649.2018487605474
2355.6923442269126 2104.415587090845
2356.2679832804224 2016.6550948947656
2356.8434830088518 1776.6011929328204
2357.41884344318 1838.6108782680367
2357.994064614377 1755.393275010688
