#exp_cfg={"servo_angle": 0.0, "laser_lim": 100.0, "servo_angle_to": 18.0, "laser_wup": 0.0, "bt_dev": "EnSpectr-25AE3", "laser_wdn_max": 0.0, "frames": 10.0, "servo_used": 0, "servo_calib_use": 0, "laser_wdn_min": 0.0, "servo_pix_from": 90.0, "cooler_tout": 300.0, "servo_angle_from": 0.0, "servo_calib": "[-1.9174921013161362e-09, 3.9322238269163779e-05, -0.27385609119055809, 653.59552119713567]", "laser_autoctl": 0, "servo_pix_to": 3682.0, "laser_pw": 100.0, "cooler_on": 0, "laser_volt": 4.0, "cooler_autoctl": 0, "cooler_curr": 70.0, "cooler_startup": 10.0, "laser_fixed_pw": 0, "gain": 1.3, "offset": 2.53059635486, "servo_calib_degree": 3.0, "laser_curr": 55.0, "shutter": 8200.0, "servo_calib_step": 1.0, "laser_fixed_curr": 0, "exp": 2000.0, "ccd_volt": 4.7, "bt_addr": "00:06:66:62:5A:E3", "servo_delay": 500.0, "laser_autooff": 1}
#proc_cfg={"flat_auto_wnd": 200.0, "flat_auto_fr": 200.0, "flat_auto_shift": 5.0, "yconv": 1, "flatten": 1, "flatten_strength": 100.0, "xfrom": 300.0, "auto_max_frame": 2000.0, "auto_signal": 48000.0, "flat_auto_tol": 0.1, "autoclip": 1, "xrel_range": 0.0, "flat_auto_to": 4000.0, "intensity_adj": 1.0, "xrel": 7852.0, "rmhot": 1, "flat_auto_slit": 4.999999999999997, "auto_ini_exp": 300.0, "auto_off": 0, "xto": 2860.0, "flat_auto_ref": "", "flat_auto_rank": 1, "autobackg": 0, "xrel_adj": 0.0, "auto_black_lvl": 1, "base_wnd": 100.0, "sub_baseline": 0, "xconv": 2, "auto_max_exp": 1000.0, "auto_total_exp": 10000.0, "auto_exp": 0, "rmripple": 0, "black_lvl": 8251.3375, "shutter_clip_adj": 0.0, "auto_bckg": 0, "flat_auto_thr": 0.9, "subbackg": 1}
316.8218498245369 20270.27365013575
317.89969571804795 20208.27968569718
318.977263876126 20214.27229694794
320.05455438786703 20046.85396175818
321.1315673423287 20093.625089135694
322.2083028285215 20080.059372462914
323.2847609354267 19939.93386546873
324.3609417519747 19877.772919288742
325.43684536705587 19791.946718952368
326.5124718695279 19756.709868662852
327.58782134820103 19614.632804214754
328.66289389184385 19657.051826047875
329.7376895891921 19516.50632689311
330.8122085289342 19418.47616296204
331.88645079971866 19514.59723182117
332.9604164901575 19409.16385165943
334.03410568881554 19318.456796675247
335.1075184842266 19289.51588564632
336.18065496487543 19204.47495440166
337.2535152192122 19083.773787892886
338.32609933564163 19143.13816164275
339.39840740253203 19006.527946513354
340.4704395082099 19002.373343401174
341.5421957409617 18852.492312268823
342.6136761890357 18888.98501299913
343.6848809406365 18896.584900104604
344.75581008392874 18797.99802926685
345.82646370703696 18700.3511061655
346.8968418980512 18763.731601303618
347.96694474501055 18701.118519998145
349.0367723359268 18728.91390760951
350.106324758759 18628.589620266954
351.1756021014353 18645.44047755484
352.2446044518383 18564.77019407644
353.31333189781435 18535.58108095445
354.38178452716966 18393.91335779464
355.449962427665 18444.20799241997
356.51786568702846 18382.95751175627
357.58549439294256 18377.208105347647
358.6528486330535 18511.61611748755
359.71992849496564 18378.782177094847
360.7867340662433 18382.53865403134
361.8532654344144 18331.58192041741
362.9195226869597 18330.511052010123
363.9855059113288 18262.58784638642
365.05121519492604 18084.799171766026
366.11665062511565 18321.16745092932
367.1818122892273 18249.847139543275
368.2467002745434 18237.918728881014
369.31131466831175 18170.29325786558
370.375655557742 18219.271846129628
371.4397230299983 18142.24367564097
372.5035171722102 18104.562390014256
373.5670380714637 18111.703263746418
374.6302858148101 18175.195660386027
375.6932604892554 18042.206854723074
376.7559621817709 18100.294864741172
377.81839097928605 17957.79679792083
378.8805469686886 17950.976553367607
379.94243023683157 17959.552396423976
381.0040408705263 17931.269761211377
382.0653789565458 17807.700541219026
383.1264445816196 17811.941714929082
384.1872378324406 17811.16025547423
385.2477587956637 17907.452938400133
386.3080075579037 17672.213264475453
387.3679842057336 17646.000423502985
388.4276888256918 17627.05895037583
389.48712150426945 17621.900629115924
390.54628232792857 17601.462146711307
391.6051713830857 17533.278415222972
392.66378875611736 17450.96042144739
393.7221345333637 17506.992755340867
394.7802088011249 17364.87764418852
395.838011645661 17445.915475191818
396.89554315319765 17246.327782881497
397.9528034099112 17244.941041531038
399.00979250194723 17113.44219014985
400.06651051541485 17055.09127940166
401.1229575363741 17065.305222808944
402.17913365085224 17062.383065315422
403.23503894483656 17126.874917362875
404.2906735042761 17015.03054119775
405.3460374150818 16848.13574211851
406.401130763119 16971.760754277664
407.455953634224 16920.28521468218
408.5105061141876 16858.646476275066
409.56478828876243 16671.126786565037
410.6188002436629 16826.167104044343
411.6725420645689 16763.88473652611
412.72601383711117 16754.822687317603
413.77921564689314 16828.171847954793
414.8321475794728 16698.86758484005
415.88480972036814 16591.87427356821
416.93720215506437 16672.17536367212
417.9893249690049 16438.075562177968
419.04117824759123 16457.897320070035
420.09276207619223 16409.390086108666
421.144076540133 16455.031061529593
422.1951217247042 16362.214624956741
423.24589771515275 16353.765170159353
424.2964045966928 16297.368059065266
425.34664245449494 16379.121664988279
426.3966113736933 16284.884014603702
427.4463114393875 16204.242226205713
428.49574273662984 16112.57375042288
429.5449053504417 16062.396592102272
430.5937993658026 16065.226306558387
431.6424248676558 15955.658307628604
432.6907819409007 15986.248773568386
433.73887067040596 15998.551989325826
434.7866911409965 16028.779206531643
435.8342434374608 15998.83227624294
436.88152764455117 15932.92813184658
437.9285438469724 15831.914482573813
438.9752921294057 15877.64965986135
440.02177257648145 15860.530339650271
441.06798527279716 15720.365900758206
442.1139303029122 15940.48989161902
443.1596077513459 15762.635278898622
444.2050177025794 15801.67320555839
445.25016024105753 15765.546936886481
446.2950354511886 15745.381147707501
447.33964341733736 15769.774970719587
448.383984223834 15644.57172800665
449.4280579549686 15522.29882192312
450.471864694995 15611.077042165058
451.5154045281306 15556.014900809
452.5586775385509 15480.138764424928
453.60168381039693 15479.056188580556
454.64442342776783 15556.421773723254
455.6868964747264 15374.712874060488
456.7291030353008 15401.705524399475
457.77104319347563 15419.193488038416
458.8127170332027 15311.915497724965
459.854124638392 15303.416610918377
460.895266092919 15494.615095269406
461.93614148061897 15424.332649271126
462.97675088529104 15455.706232361339
464.01709439069236 15355.955113279062
465.0571720805492 15375.213452504982
466.0969840385442 15280.962892947451
467.1365303483253 15430.967278975677
468.17581109350067 15409.65525804448
469.2148263576437 15287.786385397247
470.2535762242878 15326.549348462588
471.29206077693016 15463.208477605429
472.33028009902773 15319.92597206716
473.3682342740012 15277.63799150613
474.40592338523857 15320.627912533693
475.4433475160804 15367.33147143688
476.4805067498364 15413.185764191974
477.51740116978 15357.364926121038
478.5540308591426 15366.243379664458
479.59039590112116 15536.693976133134
480.6264963788726 15354.570165525636
481.6623323755193 15571.089939105092
482.6979039741436 15514.523643408542
483.7332112577915 15656.426874714434
484.76825430947247 15794.284422004386
485.80303321215797 15896.100045985473
486.837548048783 15928.497747602014
487.8717989022425 16034.962230766507
488.90578585539697 16038.893259040988
489.9395089910686 16261.884415546821
490.97296839203955 16034.88832616843
492.00616414106116 15956.808565251235
493.0390963208429 16067.362651275369
494.0717650140559 16025.912924274153
495.10417030333883 15900.302392953887
496.1363122712901 15821.471907852116
497.16819100046814 15645.573990619587
498.1998065734024 15631.259260917452
499.2311590725767 15507.208543075132
500.26224858044407 15371.85284241325
501.2930751794156 15138.67963638342
502.3236389518679 15270.887107874727
503.35393998014115 14994.063695422514
504.38397834653733 15050.765028470598
505.4137541333221 14980.9915153821
506.4432674227228 14898.847395300214
507.4725182969323 14827.702424873674
508.5015068381035 14645.220606056046
509.53023312835467 14668.29814354682
510.55869724976765 14677.321736366153
511.58689928438434 14551.276833656046
512.6148393142121 14503.312455961704
513.6425174212218 14601.347384222618
514.6699336873462 14493.927840649525
515.6970881944835 14488.483358599775
516.7239810244901 14461.726016887062
517.7506122591931 14371.46305929591
518.7769819803761 14345.232711352737
519.8030902697901 14406.431283073814
520.8289372091476 14374.066820203578
521.8545228801249 14340.95375181449
522.8798473643619 14280.906772596229
523.9049107434621 14253.958013571679
524.9297130989908 14323.316738097918
525.9542545124805 14177.747352540804
526.9785350654201 14184.888245068647
528.0025548392696 14168.219653546015
529.0263139154504 14113.141034847675
530.0498123753423 14177.94280042196
531.073050300296 14097.460441932437
532.0960277716204 13996.38917150587
533.1187448705896 14115.578098007678
534.1412016784416 13994.294439125613
535.1633982763833 14019.045886458174
536.1853347455726 13913.869867663461
537.2070111671401 13919.236241958974
538.2284276221817 13890.076644559222
539.2495841917516 13741.434303088394
540.2704809568677 13699.405362605667
541.2911179985167 13803.579218661564
542.3114953976419 13786.20046903082
543.3316132351592 13776.69608566832
544.3514715919409 13675.578285187867
545.3710705488247 13687.078330395345
546.3904101866156 13711.940774725368
547.4094905860784 13749.526103084452
548.4283118279418 13617.90805826258
549.4468739929034 13704.829249235752
550.4651771616191 13652.079221514796
551.4832214147063 13566.154198085424
552.501006832761 13681.829109552677
553.5185334963226 13626.094190804139
554.5358014859103 13696.324819269317
555.5528108820035 13667.355109836582
556.5695617650363 13562.781908511464
557.5860542154242 13693.276864999056
558.6022883135283 13556.11440314499
559.6182641396881 13501.250899423529
560.6339817741991 13597.127197134594
561.6494412973225 13546.105738569935
562.6646427892883 13551.96364083208
563.6795863302796 13425.104106798864
564.694272000459 13438.006433621795
565.7086998799423 13591.980029120392
566.7228700488104 13373.253489039034
567.7367825871115 13319.600553662322
568.7504375748576 13305.312410270824
569.7638350920224 13307.499722878678
570.7769752185486 13273.06766106346
571.7898580343353 13313.728826010838
572.802483619258 13234.424644411385
573.8148520531431 13353.513708604247
574.8269634157932 13318.097429633892
575.8388177869692 13176.846275993928
576.8504152463938 13155.400974195083
577.8617558737587 13348.116652228617
578.8728397487175 13166.002114651437
579.883666950891 13195.447668984454
580.8942375598654 13333.78864654546
581.9045516551851 13312.899584352988
582.9146093163617 13526.298871083796
583.924410622878 13437.60844759404
584.9339556541727 13377.6404433608
585.9432444896538 13471.750538857686
586.9522772086875 13355.436013737644
587.9610538906127 13466.785831644967
588.9695746147318 13320.106700711136
589.9778394603054 13354.955866194901
590.985848506567 13241.278849232816
591.9936018327098 13260.924230681363
593.0010995178891 12982.424264124877
594.0083416412344 13141.708605385607
595.0153282818283 12942.527092874272
596.0220595187293 12896.194561057502
597.0285354309508 12834.828780364298
598.0347560974806 12750.213456806028
599.0407215972609 12765.964058977526
600.0464320092051 12641.425250720707
601.0518874121954 12722.29120701897
602.0570878850685 12718.49402409486
603.062033506636 12632.765198014651
604.0667243556636 12569.647643693605
605.0711605108936 12573.946534214245
606.0753420510264 12687.652071962497
607.0792690547278 12579.083517178375
608.082941600629 12537.292854859805
609.0863597673306 12559.48637387541
610.0895236333909 12638.001230968199
611.0924332773357 12681.208637649794
612.0950887776617 12742.762583906488
613.0974902128219 12637.097164118399
614.0996376612384 12803.17994131785
615.1015312013005 12826.524290234178
616.1031709113595 12916.020418978736
617.1045568697336 12770.2814495836
618.1056891547069 13011.812425127056
619.1065678445229 13038.571277166413
620.1071930173985 13271.701551995351
621.1075647515099 13208.048958348261
622.1076831250048 13243.160489660728
623.1075482159849 13453.16226794705
624.1071601025305 13436.457546543694
625.1065188626781 13449.871599572396
626.105624574433 13682.952185709797
627.1044773157682 13638.51532924009
628.1030771646128 13711.888307154883
629.1014241988742 13760.549819034215
630.0995184964158 13826.209578035263
631.0973601350688 13958.61756313912
632.0949491926294 14090.080025902804
633.0922857468631 13856.595726495862
634.089369875499 13879.63822113483
635.0862016562278 13837.381564059247
636.0827811667077 13750.532113054822
637.0791084845641 13717.559074545812
638.0751836873878 13686.781919267636
639.0710068527369 13605.38871917305
640.0665780581294 13467.575594267062
641.0618973810506 13342.65088773381
642.0569648989604 13456.706769008239
643.0517806892676 13203.314689386598
644.0463448293649 13109.287367755876
645.040657396592 13002.96939623285
646.0347184682723 12969.690783498883
647.0285281216875 12801.092236247783
648.0220864340772 12742.265978465333
649.0153934826558 12614.838375557718
650.0084493446047 12656.312179947006
651.0012540970674 12569.851646464122
651.9938078171526 12451.643570928454
652.9861105819346 12350.887247733872
653.9781624684565 12478.021598497246
654.9699635537254 12281.02513909572
655.9615139147136 12286.604721119027
656.9528136283589 12160.23432637162
657.9438627715699 12301.573344735076
658.9346614212154 12138.211253129539
659.925209654135 11919.396721493502
660.9155075471263 11988.931688433848
661.9055551769616 11931.910925967395
662.895352620375 12070.86185482172
663.8848999540678 11830.993449833184
664.8741972547068 11747.287159708536
665.863244598926 11705.432785132198
666.8520420633213 11807.631226443515
667.8405897244611 11662.678633697873
668.8288876588758 11501.198632454132
669.8169359430613 11620.02581400606
670.8047346534822 11595.18091489888
671.7922838665672 11456.67927982791
672.7795836587156 11490.436898796144
673.766634106285 11558.063573528732
674.7534352856092 11434.14386469025
675.7399872729766 11397.871967220539
676.7262901446538 11404.176741266847
677.712343976862 11348.940361624074
678.6981488457986 11419.81251237728
679.6837048276229 11282.304731272066
680.6690119984596 11383.15273379555
681.6540704344043 11352.418967617046
682.6388802115107 11290.672763477149
683.6234414058108 11267.320048590534
684.6077540932874 11183.890423672325
685.591818349907 11230.827372304087
686.575634251587 11215.616947523637
687.5592018742263 11143.659400478238
688.5425212936734 11054.784973782296
689.5255925857564 11248.053002950423
690.5084158262707 11067.574276416124
691.4909910909646 11029.585757491954
692.4733184555644 10994.939368667398
693.4553979957618 11037.606668555667
694.4372297872123 11001.586148278086
695.4188139055404 10961.09219313264
696.4001504263324 10980.575416576034
697.3812394251509 11078.919548718408
698.3620809775111 10941.309022365363
699.3426751589104 10945.6342102051
700.3230220448004 11055.79140125465
701.3031217106054 10985.203761935445
702.2829742317172 11131.11314241625
703.2625796834873 10992.664219238974
704.2419381412474 10950.675526520272
705.22104968028 11024.767941470862
706.1999143758458 11034.050622832356
707.178532303169 10949.682464607275
708.1569035374378 11160.48764496544
709.1350281538107 11202.96053574936
710.1129062274158 11215.317787542064
711.0905378333373 11391.132609607972
712.0679230466376 11416.612030515216
713.0450619423427 11560.547866273846
714.0219545954424 11747.74212616761
714.9986010808989 11685.261605011672
715.9750014736292 11911.42760266267
716.9511558485392 12239.804035054498
717.9270642804786 12405.513042643124
718.9027268442787 12600.619119492272
719.8781436147328 12583.82471906504
720.8533146666014 12645.513237882062
721.828240074612 12678.72862633544
722.8029199134635 12584.57447743076
723.7773542578125 12576.608682314967
724.751543182294 12494.766252180292
725.7254867615029 12357.143655173422
726.6991850700015 12145.053213672183
727.6726381823228 12140.850732612656
728.6458461729599 12119.908691220548
729.6188091163858 12074.294932135113
730.5915270870246 12147.57986772124
731.5640001592856 12065.159633100573
732.536228407529 12251.735486103538
733.5082119060917 12405.703054421954
734.4799507292755 12442.183635318517
735.4514449513481 12469.046138579184
736.4226946465496 12634.030016347333
737.3936998890786 12642.597745480543
738.3644607531078 12530.15250952186
739.3349773127793 12374.78369809952
740.3052496421951 12208.949229402757
741.27527781543 11957.212324617747
742.2450619065221 11792.637393857618
743.2146019894826 11627.018542147616
744.183898138288 11420.082306595392
745.1529504268801 11211.045891755415
746.1217589291682 10900.96433767449
747.0903237190341 10673.365629782862
748.058644870318 10633.636225226775
749.0267224568397 10455.660271617795
749.994556552374 10272.624877840291
750.9621472306771 10223.811445547008
751.9294945654583 10160.070171072668
752.8965986304011 10101.193617031653
753.8634594991636 10054.766786066026
754.8300772453586 10066.278867361512
755.7964519425768 10013.37842820212
756.762583664371 10039.603752594438
757.7284724842611 9961.97165807402
758.6941184757416 9956.333474381603
759.6595217122667 9867.430333044078
760.6246822672638 9848.612106270719
761.5896002141235 9702.638838461946
762.5542756262093 9886.889970583685
763.5187085768503 9801.428372902981
764.4828991393406 9666.754339657684
765.4468473869474 9775.191813180583
766.4105533929032 9755.800530989623
767.3740172304078 9648.21033409124
768.3372389726283 9651.514887109754
769.3002186926988 9577.041595821904
770.2629564637282 9528.92188153153
771.2254523587872 9592.196879226698
772.1877064509154 9493.60376197573
773.1497188131179 9382.33146035086
774.1114895183728 9353.543693474398
775.0730186396268 9343.23024045409
776.0343062497905 9301.138261085227
776.9953524217381 9259.080104400671
777.9561572283274 9325.409023025377
778.9167207423689 9308.927972659789
779.8770430366476 9207.841148804198
780.8371241839159 9218.138148564209
781.7969642568951 9246.507466824523
782.7565633282757 9363.868562728112
783.7159214707099 9203.265227966654
784.6750387568281 9213.627266955355
785.6339152592227 9195.25849506426
786.5925510504512 9146.09742473647
787.5509462030477 9205.946556422294
788.5091007895098 9146.280136317462
789.4670148823006 9091.283760997523
790.4246885538596 9120.448156921977
791.3821218765861 9111.309052726163
792.3393149228505 8997.32776439067
793.2962677649975 9098.835050840255
794.2529804753303 9120.662307203958
795.20945312613 9175.562435849924
796.1656857896378 9021.669489129708
797.1216785380675 9020.613248744106
798.0774314435985 9125.362754329455
799.0329445783846 9191.762282178592
799.9882180145414 9142.962231603939
800.9432518241574 9105.016627454515
801.89804607929 9130.489087098476
802.852600851962 9140.422704952576
803.8069162141637 9166.44705823563
804.760992237856 9158.513768680034
805.714828994971 9146.524855253354
806.6684265574077 9260.38215518314
807.6217849970271 9190.374335613506
808.574904385674 9126.963417834753
809.527784795142 9132.507796290796
810.4804262972102 9304.301657300015
811.4328289636178 9003.46849506716
812.3849928660748 9038.920171006106
813.3369180762638 8951.312797814728
814.2886046658241 8997.038384705922
815.2400527063783 8910.765567288105
816.1912622695108 8845.96244178226
817.1422334267718 8914.823100353158
818.0929662496856 8755.394641275472
819.0434608097457 8644.524184812512
819.9937171784059 8724.345244898606
820.9437354271013 8675.416206668457
821.8935156272255 8695.204648264924
822.8430578501484 8606.472507420247
823.7923621672016 8448.586886210767
824.7414286496896 8524.424767837438
825.6902573688876 8547.270301123677
826.6388483960363 8503.43749971506
827.5872018023492 8420.175138166356
828.5353176590033 8497.359090242895
829.4831960371503 8390.949396795248
830.4308370079016 8395.694007827908
831.3782406423525 8398.18649449883
832.3254070115545 8406.2912127125
833.2723361865319 8389.215277009409
834.2190282382799 8292.593936702928
835.1654832377644 8377.647895049191
836.1117012559116 8304.397643883021
837.0576823636256 8443.322893194134
838.003426631778 8231.501515886379
838.9489341312074 8199.320980731329
839.8942049327197 8347.244029471358
840.8392391070975 8335.234448656229
841.7840367250865 8254.766539267875
842.7285978573982 8190.346011572949
843.672922574724 8318.865818076825
844.6170109477152 8230.16758823106
845.560863046996 8224.790457935573
846.5044789431595 8179.546494414468
847.4478587067697 8216.087683562066
848.3910024083561 8290.598052064077
849.333910118421 8203.513762254348
850.2765819074339 8093.508606643935
851.2190178458332 8288.728107734429
852.161218004032 8250.050279387795
853.1031824524016 8283.248088517128
854.0449112612987 8147.642337669199
854.9864045010327 8238.332430291232
855.9276622418947 8118.818830576121
856.8686845541379 8177.365951822384
857.8094715079915 8156.619451146804
858.7500231736467 8193.789143457632
859.690339621271 8181.289060738655
860.6304209209939 8178.0398072163025
861.5702671429244 8047.941083038563
862.5098783571284 8107.955300218465
863.4492546336569 8110.565842791341
864.3883960425155 8115.887842239332
865.3273026536863 8061.254370852004
866.2659745371238 7995.619374937222
867.2044117627465 8138.752190456102
868.1426144004472 8117.131486389187
869.0805825200823 8143.1662282241405
870.0183161914847 8228.786504008682
870.9558154844526 8247.037711788054
871.8930804687552 8105.084996356997
872.8301112141307 8073.034363947544
873.7669077902865 8217.935348520992
874.7034702669062 8248.527728404944
875.6397987136315 8144.954047162588
876.5758932000863 8158.153840698984
877.5117537958522 8259.967113661372
878.4473805704911 8159.148125073976
879.3827735935283 8158.574818320225
880.3179329344603 8298.390010099927
881.2528586627541 8351.398498029183
882.1875508478479 8350.522256789982
883.1220095591489 8235.664125243256
884.0562348660296 8159.748660306299
884.9902268378391 8267.494341625172
885.9239855438955 8220.681836347943
886.8575110534839 8197.412548740816
887.7908034358588 8205.471271763261
888.7238627602474 8161.383725298717
889.6566890958475 8197.180135607454
890.5892825118208 8028.931776651274
891.5216430773125 8100.384857885749
892.4537708614189 8102.989732976863
893.3856659332196 7987.790922518112
894.3173283617652 7991.594699871415
895.2487582160684 7970.861590842966
896.179955565116 7903.2370554669415
897.110920477864 7869.95781538903
898.0416530232451 7868.500904790526
898.9721532701478 7834.525862361062
899.9024212874428 7944.950253610198
900.8324571439662 7790.032513904301
901.7622609085302 7767.629353022288
902.6918326499072 7694.6562817402155
903.6211724368477 7783.933428837622
904.5502803380696 7819.597734854377
905.4791564222614 7819.79380807509
906.4078007580792 7745.240921317474
907.3362134141571 7722.037894736842
908.2643944590909 7799.690737533155
909.1923439614493 7672.734299601339
910.1200619897754 7679.443115527132
911.0475486125779 7854.183449933055
911.9748038983344 7789.594105654296
912.9018279155007 7738.571365764927
913.8286207324982 7722.916883465767
914.7551824177117 7742.468588442777
915.6815130395116 7671.265964509641
916.6076126662283 7632.383628543648
917.533481366163 7721.5522883202775
918.4591192075914 7649.306007226881
919.3845262587565 7680.658557789395
920.3097025878706 7527.851846901545
921.2346482631237 7609.479874918233
922.1593633526682 7564.723155403973
923.0838479246304 7614.098311553362
924.0081020471061 7603.3778440564765
924.9321257881656 7453.28586845903
925.8559192158464 7522.578461742773
926.7794823981512 7388.13998398902
927.7028154030686 7372.94939601677
928.6259182985414 7341.361065842297
929.5487911524906 7534.962784107088
930.4714340328119 7500.228449562264
931.3938470073608 7293.424664817723
932.3160301439748 7391.936535486215
933.2379835104548 7388.151704958604
934.1597071745709 7413.957611957514
935.0812012040769 7428.9156787580305
936.002465666681 7389.621977766976
936.9235006300696 7433.985657961018
937.8443061619055 7423.94829282614
938.7648823298077 7235.986417585869
939.6852292013809 7308.5129221437255
940.6053468441951 7350.405001450646
941.5252353257874 7269.925890723035
942.4448947136698 7256.908739814969
943.364325075323 7277.40541893538
944.2835264782043 7337.671736690705
945.2024989897309 7284.343030761111
946.1212426773054 7305.724156281923
947.0397576082851 7324.7696600894415
947.9580438500125 7418.833709430555
948.8761014697939 7401.774180597733
949.7939305349064 7358.9627881884635
950.7115311125999 7271.14018722236
951.6289032700952 7277.224387797342
952.5460470745875 7456.054713411164
953.4629625932339 7292.168140987337
954.3796498931715 7369.64481731017
955.2961090415029 7318.258526669478
956.2123401053068 7345.174692109087
957.1283431516276 7230.619532202807
958.0441182474842 7225.724482435575
958.9596654598663 7415.4434077698625
959.8749848557309 7312.394204109248
960.7900765020167 7233.881530916738
961.7049404656209 7158.975583650796
962.6195768134185 7275.8286109620485
963.5339856122537 7264.671941200411
964.4481669289453 7219.211137967836
965.3621208302793 7155.953299986267
966.2758473830145 7134.189377163106
967.1893466538822 7218.578127004503
968.1026187095813 7114.7745591222
969.0156636167867 7108.073206343972
969.9284814421426 7160.719936453815
970.8410722522622 7076.741754761875
971.753436113735 7016.673473077909
972.6655730931161 7032.238553261505
973.5774832569368 7123.230023287697
974.4891666716958 7024.751865387671
975.4006234038698 6932.155607746012
976.3118535198955 6951.426240553066
977.2228570861935 7107.650890216707
978.1336341691494 7078.486494160779
979.0441848351202 6924.879475696953
979.9545091504333 7111.683625430378
980.864607181391 7065.365063725952
981.7744789942699 6954.360716812403
982.6841246553086 6997.5845670546405
983.5935442307236 6917.402204994968
984.5027377867027 6952.269671312865
985.4117053894024 6988.627227833305
986.3204471049557 6848.394668994074
987.2289629994648 6964.943181126825
988.1372531390007 7018.2129565508485
989.0453175896091 6957.875479983513
989.9531564173067 6992.802064044602
990.860769688079 6879.964359949566
991.7681574678918 6870.982550849991
992.6753198226706 6973.1991548919905
993.582256818323 6940.433019357559
994.4889685207218 6927.944838960166
995.3954549957143 7075.230399340857
996.301716309119 7019.396047273755
997.2077525267232 6986.935745908678
998.1135637142943 6940.427461158742
999.0191499375615 7021.648660672514
999.924511262232 7005.7717575471515
1000.8296477539861 6974.8818291763655
1001.7345594784656 6968.759307269468
1002.6392465012996 6850.923307084141
1003.5437088880753 7001.521238268222
1004.4479467043584 7026.915777783703
1005.3519600156869 6829.206466078557
1006.2557488875718 6961.8863909128
1007.1593133854858 7000.29273200795
1008.0626535748888 6892.122967355679
1008.9657695212009 6744.538050892092
1009.8686612898182 6959.376223898398
1010.7713289461135 7002.486484301097
1011.6737725554212 6783.1964125560535
1012.5759921830577 6802.845995001866
1013.4779878943027 6840.467123256036
1014.379759754418 6873.5122634517975
1015.2813078286254 6817.6870183422
1016.18263218213 6687.943938297986
1017.0837328801026 6728.734702547646
1017.9846099876886 6850.652131191605
1018.8852635700023 6742.593236220618
1019.7856936921362 6628.37398699411
1020.6859004191447 6790.503824323115
1021.5858838160675 6666.433409839723
1022.4856439479063 6601.692255047366
1023.3851808796389 6640.448476795466
1024.2844946762143 6661.390671635537
1025.183585402554 6728.870681689134
1026.082453123554 6489.192272687274
1026.9810979040776 6594.159737287002
1027.8795198089647 6532.29945931891
1028.777718903024 6710.7502994144215
1029.6756952510368 6539.883634934907
1030.5734489177648 6604.085252658578
1031.4709799679313 6496.830495211675
1032.3682884662358 6696.508440800901
1033.2653744773506 6434.652515635656
1034.1622380659192 6473.072315300457
1035.058879296559 6566.531042879016
1035.9552982338591 6624.663862728778
1036.8514949423825 6601.040069069895
1037.7474694866614 6676.296797274219
1038.6432219312028 6528.223501660561
1039.5387523404825 6816.370893510177
1040.4340607789582 6701.69494694452
1041.3291473110476 6718.151459013364
1042.2240120011465 6821.370876089355
1043.1186549136273 6951.195965914025
1044.0130761128294 6919.942735526582
1044.9072756630649 6990.279871987599
1045.8012536286205 7084.954792912792
1046.6950100737577 7100.058359242634
1047.588545062701 7237.745804553779
1048.481858659663 7174.419617427736
1049.3749509288118 7341.58712228318
1050.2678219343034 7203.2498089623405
1051.1604717402515 7241.541935080265
1052.0529004107575 7118.752113605262
1052.9451080098825 7161.371835165645
1053.8370946016694 7191.627468630327
1054.7288602501267 7192.576082578715
1055.6204050192446 7189.478308406984
1056.511728972977 7116.070559409831
1057.402832175254 6910.863389018104
1058.2937146899785 6859.61860013573
1059.1843765810263 6871.217196080237
1060.0748179122456 6867.0969401780285
1060.9650387474576 6850.779916264442
1061.855039150456 6804.960807169827
1062.7448191850071 6735.029665241115
1063.6343789148505 6606.536135986967
1064.5237184037014 6795.839753997687
1065.412837715241 6645.919475712946
1066.3017369131267 6597.342123241977
1067.190416060992 6528.1724386896485
1068.0788752224398 6543.436164668641
1068.9671144610438 6415.009114794925
1069.8551338403558 6555.855617463266
1070.7429334239023 6507.606441809708
1071.6305132751695 6392.071377220592
1072.517873457633 6456.829992688026
1073.4050140347335 6421.074542912685
1074.2919350698776 6449.313524345891
1075.1786366264623 6416.4817542756045
1076.0651187678395 6441.353231723291
1076.95138155735 6426.755384313924
1077.8374250582929 6315.036268837738
1078.7232493339507 6403.425259716832
1079.608854447577 6338.2740444625215
1080.4942404623907 6295.866665303888
1081.3794074415982 6425.262562673551
1082.2643554483657 6427.450368484843
1083.149084545841 6360.330184476643
1084.033594797138 6237.742775633777
1084.9178862653516 6357.148448935624
1085.8019590135427 6554.222330751055
1086.6858131047484 6317.8843901928185
1087.5694486019802 6431.572210828953
1088.4528655682225 6429.964923440919
1089.3360640664287 6551.88471284765
1090.2190441595321 6439.7168851942515
1091.1018059104317 6530.538389037598
1091.98434938201 6589.168539385911
1092.866674637111 6603.406733542759
1093.748781738559 6516.103244168771
1094.6306707491512 6426.905860123015
1095.5123417316554 6626.222902747836
1096.3937947488157 6551.8364535546125
1097.2750298633455 6501.889600996402
1098.156047137938 6462.220748781863
1099.0368466352556 6485.492179854116
1099.9174284179317 6610.279369497768
1100.7977925485757 6348.334437674275
1101.6779390897755 6408.916340460971
1102.5578681040806 6360.689769766524
1103.4375796540226 6399.102139848229
1104.3170738021054 6327.074870372073
1105.1963506108077 6157.800149655568
1106.0754101425773 6142.291939213665
1106.9542524598382 6205.888749820144
1107.8328776249855 6089.383055947918
1108.7112857003904 6017.099901299132
1109.5894767483987 6049.0125357185425
1110.4674508313292 6141.295177135238
1111.3452080114657 5980.881991147973
1112.2227483510815 6031.254597152803
1113.1000719124077 6048.8730374601155
1113.9771787576592 6079.633051422277
1114.854068949022 5957.475961687455
1115.7307425486542 6093.710551549715
1116.6071996186893 5994.155017547224
1117.483440221229 6176.333077615558
1118.3594644183577 5996.22543394155
1119.235272272128 6060.1098981680425
1120.1108638445658 6080.183736272325
1120.9862391976712 6241.8460513516075
1121.8613983934229 6150.354182291553
1122.7363414937627 6115.423274385542
1123.6110685606182 6193.713131817933
1124.485579655884 6316.695419930884
1125.359874841426 6259.152541768364
1126.2339541790916 6298.946491231669
1127.1078177306936 6408.434789802273
1127.9814655580267 6285.962664137565
1128.854897722851 6382.2050430425425
1129.7281142869106 6314.963849230606
1130.6011153119125 6374.133028481402
1131.473900859548 6438.973228282047
1132.3464709914697 6278.267854466345
1133.2188257693178 6359.816633554719
1134.0909652546961 6288.559487650572
1134.96288950919 6123.939156006553
1135.8345985943506 6313.399506242861
1136.7060925717087 6114.593144525141
1137.57737150277 6184.155942711614
1138.4484354490069 6253.897838580177
1139.3192844718778 6143.275578444438
1140.1899186327992 6071.528543312745
1141.060337993178 6122.696062974078
1141.930542614382 6112.530990614786
1142.8005325577597 5916.22828640821
1143.670307884635 5744.040211617981
1144.5398686563003 5963.593820594933
1145.409214934025 5911.724075925704
1146.2783467790541 5777.786952346281
1147.1472642526023 5836.329864352812
1148.0159674158622 5812.4231364380685
1148.8844563300026 5749.297091557293
1149.7527310561618 5722.483794268199
1150.6207916554504 5689.752429625592
1151.4886381889592 5618.049400176911
1152.3562707177498 5789.529029215178
1153.2236893028585 5663.6257055303695
1154.090894005296 5588.171359876791
1154.9578848860474 5604.112930251531
1155.8246620060709 5622.891590673129
1156.6912254262988 5498.396701879509
1157.5575752076438 5532.384194914083
1158.42371141098 5638.833935491619
1159.2896340971656 5627.630854254046
1160.1553433270346 5569.807706575159
1161.0208391613887 5559.9289645925055
1161.8861216610057 5549.530479366456
1162.75119088664 5587.282054868205
1163.6160468990201 5462.212432836643
1164.4806897588442 5479.205888986371
1165.3451195267917 5565.373993323613
1166.2093362635114 5533.563496690038
1167.0733400296285 5460.095757249575
1167.9371308857444 5411.28890724727
1168.8007088924278 5426.2322043368795
1169.6640741102328 5452.9802683895505
1170.5272265996773 5346.46453839829
1171.390166421259 5233.944137382304
1172.252893635452 5495.83514153515
1173.1154083026995 5505.314251090293
1173.977710483421 5578.49452456096
1174.8398002380145 5312.375681863709
1175.7016776268483 5474.023282514234
1176.563342710264 5388.564777589925
1177.4247955485826 5365.109131420557
1178.2860362020947 5435.367628145474
1179.147064731069 5297.54476108081
1180.0078811957483 5450.1444899719645
1180.8684856563486 5368.602085840618
1181.7288781730604 5333.31392370763
1182.589058806052 5481.845645302622
1183.4490276154593 5499.674232388791
1184.3087846614017 5377.799320478487
1185.1683300039676 5463.854760174525
1186.027663703222 5569.332534027965
1186.8867858192025 5436.672715961362
1187.7456964119228 5472.369719768225
1188.6043955413716 5433.716292319475
1189.4628832675116 5579.453362412165
1190.3211596502842 5603.350682457211
1191.179224749596 5612.889530871109
1192.0370786253388 5470.928584400578
1192.8947213373758 5618.721244996168
1193.7521529455407 5801.976349586601
1194.6093735096438 5560.522460391964
1195.466383089477 5535.898619954434
1196.3231817447977 5578.550286997727
1197.1797695353398 5723.449124139521
1198.0361465208189 5532.915877744812
1198.8923127609214 5543.25671725903
1199.7482683153048 5715.882924112323
1200.6040132436028 5780.962292698195
1201.459547605431 5569.397058194025
1202.3148714603722 5648.084999181543
1203.1699848679855 5646.319683450923
1204.0248878878065 5681.180815866979
1204.8795805793507 5355.910014384154
1205.7340630020935 5573.23455922815
1206.5883352155033 5636.769286601939
1207.4423972790064 5541.079123974588
1208.2962492520237 5488.432696942025
1209.1498911939307 5381.372556468303
1210.0033231640937 5496.548249711735
1210.8565452218427 5460.518857529026
1211.7095574264913 5158.859383173212
1212.5623598373222 5291.659557135505
1213.4149525135963 5220.150058834084
1214.2673355145507 5324.869599955044
1215.1195088993936 5196.52582630956
1215.9714727273113 5228.899233443812
1216.8232270574663 5310.166091638823
1217.6747719489904 5031.909498231722
1218.5261074609934 5128.255217880723
1219.3772336525653 5240.87214180449
1220.2281505827668 5248.608086288692
1221.0788583106296 5253.536552986492
1221.9293568951707 5036.35453726826
1222.7796463953746 5012.866569369389
1223.629726870202 5145.980036090323
1224.4795983785934 5095.9881067917995
1225.3292609794553 5116.362145793504
1226.1787147316809 5018.932668858333
1227.0279596941327 5123.353579050844
1227.8769959256424 5154.963818739671
1228.7258234850306 5113.319398625302
1229.5744424310833 4852.806448168281
1230.422852822563 5190.183016839997
1231.2710547182105 5232.1120789088845
1232.119048176739 5121.346423430901
1232.9668332568417 4946.302493951325
1233.8144100171812 5077.39354749336
1234.6617785163999 5152.902352299186
1235.508938813111 4866.512677406376
1236.3558909659114 4914.692584155577
1237.2026350333617 5094.646079491846
1238.049171074008 5142.300040578839
1238.8954991463652 4980.579877571416
1239.741619308932 4986.353223167263
1240.587531620169 5037.063969086219
1241.4332361385277 5086.578615947528
1242.2787329224248 5090.112568894615
1243.1240220302534 4892.720727811429
1243.9691035203869 5001.027444210875
1244.813977451171 5154.33845000668
1245.6586438809263 5047.079172892163
1246.5031028679496 4891.128900283715
1247.3473544705157 5085.504481349006
1248.1913987468706 5076.664508299091
1249.0352357552383 4863.530288277508
1249.8788655538228 4954.200618912697
1250.7222882007918 5120.227052496781
1251.565503754302 5078.739279874245
1252.4085122724755 4816.9999817732005
1253.2513138134182 5204.108919881862
1254.0939084352049 5030.054220478918
1254.9362961958905 5055.70287903564
1255.7784771535007 5002.664575072999
1256.6204513660432 5082.527604314891
1257.4622188915 5173.919794873718
1258.3037797878242 5047.777041393251
1259.1451341129468 4945.7549302965435
1259.9862819247755 5084.293162526717
1260.8272232811978 5073.129484939587
1261.6679582400666 5197.151128476891
1262.5084868592203 4969.755887851125
1263.34880919647 5043.608653739428
1264.1889253095997 4991.641408148114
1265.0288352563712 5128.034128651942
1265.8685390945266 4983.775697805874
1266.7080368817751 5175.0141016433645
1267.5473286758115 5236.480955173013
1268.386414534294 5152.004648186133
1269.2252945148703 4875.782871479087
1270.0639686751547 4990.61257227775
1270.9024370727402 5060.387727251844
1271.7406997651997 4979.997015522191
1272.5787568100714 4971.533563130229
1273.4166082648808 4939.53327271821
1274.2542541871244 4922.289154799444
1275.091694634275 5195.33899691118
1275.9289296637817 4882.647247082043
1276.7659593330663 5036.366009263654
1277.6027836995308 4902.933125902859
1278.4394028205552 5085.446899763256
1279.2758167534867 5029.801568071697
1280.112025555658 5017.078150194035
1280.9480292843746 5028.037065409457
1281.7838279969128 4843.215943000987
1282.6194217505326 4895.790706198589
1283.4548106024686 4818.044829946653
1284.289994609926 4966.188217502441
1285.1249738300921 4965.478740270515
1285.959748320127 4833.084536918506
1286.7943181371702 4942.8031017588
1287.6286833383328 4921.766323430472
1288.4628439807038 4928.617431531632
1289.2968001213521 4845.817915462472
1290.1305518173194 4884.428575255735
1290.9640991256183 5089.943684637905
1291.7974421032523 4933.15296014257
1292.630580807183 4920.585305073217
1293.463515294361 5050.693759786061
1294.29624562171 5211.554057450764
1295.12877184613 4917.4896659578235
1295.961094024493 4908.689726299916
1296.79321221365 5054.020117775272
1297.6251264704333 5194.672851134701
1298.4568368516466 5323.198935590556
1299.2883434140658 5185.426381156039
1300.1196462144526 5052.868946306736
1300.9507453095375 5209.498299211971
1301.7816407560313 5232.806608941612
1302.6123326106172 5217.396109821757
1303.4428209299622 5171.605180763252
1304.2731057707024 5461.063106882909
1305.1031871894502 5199.415548734785
1305.933065242798 5258.2174425849025
1306.7627399873181 5276.5696340055965
1307.5922114795467 5540.929928316134
1308.4214797760123 5465.754891634703
1309.2505449332057 5302.123182967759
1310.0794070076026 5428.40947071833
1310.9080660556538 5490.516722626814
1311.736522133786 5474.215490042749
1312.5647752983987 5302.942269529712
1313.3928256058734 5177.077656432315
1314.2206731125661 5418.912143355171
1315.048317874809 5337.177758966553
1315.8757599489109 5312.304687461974
1316.7029993911547 5496.245032272904
1317.5300362578055 5583.574997799753
1318.356870605101 5282.614299802079
1319.183502489257 5402.92835084764
1320.0099319664623 5516.956135951261
1320.836159092889 5595.372281302649
1321.66218392468 5549.406830027763
1322.4880065179532 5369.628912231967
1323.3136269288134 5493.792727506842
1324.1390452133292 5503.970664048222
1324.9642614275563 5594.606540036512
1325.7892756275214 5504.157894552366
1326.6140878692295 5351.80385488899
1327.4386982086617 5701.946533190087
1328.2631067017755 5502.673707333111
1329.0873134045069 5518.416009316354
1329.911318372764 5348.2755290075165
1330.735121662441 5281.991247972512
1331.558723329399 5299.344967529347
1332.3821234294774 5235.565863158521
1333.2053220185007 5248.997839134847
1334.0283191522612 5118.75826340968
1334.851114886529 5207.544943902982
1335.6737092770582 5027.902862778976
1336.4961023795695 5141.0694105124185
1337.3182942497697 4984.03711825927
1338.1402849433325 4968.446631187156
1338.962074515921 4877.793795610187
1339.7836630231632 4868.546602952238
1340.6050505206676 5134.78883174288
1341.426237064028 4980.818988379617
1342.2472227088037 4778.0715605541645
1343.0680075105338 4745.091074042887
1343.888591524741 4895.194485990365
1344.7089748069138 4946.106338620725
1345.5291574125276 4790.857821692886
1346.3491393970307 4648.8396750888
1347.168920815846 4822.633999615044
1347.9885017243778 4810.204552821418
1348.8078821780036 4760.279283120589
1349.6270622320844 4798.630851597712
1350.4460419419447 4567.876482984871
1351.2648213629054 4700.840140583195
1352.0834005502438 4537.911887717985
1352.90177955923 4569.882108226007
1353.7199584451064 4734.040247925875
1354.5379372630887 4739.7414206999265
1355.355716068374 4640.506330712303
1356.1732949161305 4436.093584129827
1356.9906738615155 4612.220778262218
1357.8078529596478 4572.331092619579
1358.6248322656375 4684.150849996947
1359.441611834567 4477.532122155379
1360.2581917214866 4741.623662286313
1361.0745719814367 4501.112815340068
1361.890752669433 4412.869860774064
1362.7067338404577 4526.317425312469
1363.5225155494845 4652.012164220532
1364.3380978514506 4638.344071712266
1365.1534808012839 4479.641977068142
1365.9686644538815 4289.844139491321
1366.783648864117 4608.038046329947
1367.5984340868417 4600.651907960796
1368.413020176893 4524.151193567655
1369.2274071890715 4537.079100078193
1370.0415951781652 4551.4362818021045
1370.8555841989346 4578.900984118494
1371.6693743061223 4343.982554622222
1372.48296555444 4248.603969511611
1373.2963579985844 4487.446281033444
1374.1095516932255 4474.492870650358
1374.9225466930166 4198.159735013816
1375.7353430525782 4429.895551548995
1376.5479408265164 4334.771008805291
1377.36034006941 4462.268402695493
1378.1725408358216 4473.463925590956
1378.9845431802805 4226.9788509439495
1379.796347157304 4641.445312771294
1380.6079528213813 4575.696947275237
1381.4193602269788 4239.369796140674
1382.230569428546 4363.540809609844
1383.0415804805016 4532.903096838595
1383.852393437246 4361.1832719045115
1384.6630083531563 4453.417769447141
1385.4734252825892 4372.2070049103295
1386.2836442798798 4374.709492978465
1387.0936653993322 4291.625826457656
1387.9034886952395 4378.948630281975
1388.713114221864 4455.493792709852
1389.5225420334482 4442.0846528080165
1390.331772184214 4311.09739707229
1391.1408047283585 4202.567473476114
1391.9496397200564 4343.062896851008
1392.758277213461 4442.6095326852555
1393.5667172627054 4462.807303870259
1394.3749599218918 4346.840881174429
1395.1830052451114 4276.085739454053
1395.9908532864265 4366.275345367545
1396.7985040998774 4453.240313826147
1397.6059577394808 4264.434935657211
1398.4132142592352 4329.270562736395
1399.2202737131156 4261.104891303558
1400.027136155073 4480.595135075864
1400.8338016390353 4277.485627046599
1401.6402702189134 4340.690899741826
1402.446541948586 4411.487148515367
1403.2526168819204 4305.894418236005
1404.058495072757 4252.7053891829655
1404.8641765749107 4388.432685396057
1405.6696614421799 4417.33517506888
1406.4749497283356 4651.205767362391
1407.280041487129 4241.759694491433
1408.084936772295 4106.579372459136
1408.8896356375335 4391.863207996781
1409.6941381365323 4339.531724288031
1410.498444322955 4187.457055141644
1411.3025542504402 4281.787000298977
1412.106467972606 4271.618201448493
1412.9101855430508 4308.7607666391605
1413.7137070153458 4128.38850421728
1414.5170324430437 4190.306027207183
1415.320161879672 4416.411630174373
1416.1230953787435 4471.37943743863
1416.925832993742 4145.543469693477
1417.7283747781275 4127.66408000553
1418.5307207853439 4235.660114073292
1419.3328710688093 4257.489861611466
1420.134825681922 4064.5899648931163
1420.9365846780584 4175.210209274334
1421.7381481105713 4362.812280778034
1422.539516032788 4278.963925800161
1423.3406884980232 4145.678054017159
1424.1416655595604 4086.2572168448387
1424.942447270665 4119.793801449431
1425.7430336845828 4418.304571560027
1426.5434248545298 4155.130218594384
1427.3436208337116 4380.372997118006
1428.143621675301 4390.593598557899
1428.9434274324558 4534.660683271308
1429.7430381583108 4176.068285711803
1430.5424539059713 4291.052917802366
1431.3416747285337 4643.4592327565315
1432.1407006790632 4433.58743017139
1432.9395318106053 4419.2268624607395
1433.7381681761835 4270.062491315386
1434.5366098288014 4396.417231603595
1435.3348568214424 4531.9252844291095
1436.1329092070573 4406.891890900855
1436.9307670385879 4544.702060547832
1437.7284303689503 4607.396145424812
1438.5258992510335 4595.407386128526
1439.3231737377118 4573.893332282234
1440.1202538818306 4491.705040786074
1440.9171397362225 4446.506896120599
1441.7138313536925 4438.940643629025
1442.5103287870243 4347.072064228527
1443.3066320889775 4278.402307418703
1444.1027413122956 4547.211930450888
1444.8986565096966 4369.142640874857
1445.694377733882 4365.728109225846
1446.4899050375207 4269.225476761443
1447.2852384732687 4272.135741465348
1448.0803780937622 4397.149526500305
1448.8753239516063 4208.9272065717505
1449.6700760993954 4043.2285933745466
1450.464634589689 4167.860213782132
1451.2589994750397 4404.931473395929
1452.0531708079689 4051.316445532826
1452.8471486409799 4072.733932467652
1453.6409330265524 4295.640215760526
1454.4345240171442 4061.2058952691636
1455.2279216651987 3976.755987420842
1456.0211260231263 4110.343930120613
1456.8141371433194 4358.819442060904
1457.6069550781594 4149.940642359466
1458.3995798799897 3917.0335354521303
1459.1920116011424 4012.2724498232574
1459.98425029393 3869.5376154077485
1460.7762960106338 3961.3461997177355
1461.5681488035225 4038.6834055918603
1462.3598087248392 4056.084783446958
1463.1512758268036 4190.502890591003
1463.942550161617 3848.873930308075
1464.7336317814625 3909.7656735472337
1465.524520738496 3959.067729725466
1466.3152170848552 3878.794478926041
1467.1057208726506 3850.4069693447964
1467.8960321539817 3832.443434408303
1468.6861509809169 3693.1999365253637
1469.4760774055085 3771.4055710367647
1470.265811479785 3792.672181443286
1471.055353255755 3716.5009221220926
1471.844702785409 3610.845761845629
1472.6338601207044 3597.1826738901764
1473.4228253135934 3794.2846634461857
1474.2115984159936 3567.888231361211
1475.0001794798063 3481.303713529105
1475.7885685569145 3514.7721909311413
1476.576765699172 3640.232360076101
1477.3647709584238 3653.499079021601
1478.1525843864802 3782.2060358845165
1478.9402060351367 3655.0791428964744
1479.7276359561693 3653.818291062169
1480.514874201328 3600.4102481543073
1481.3019208223468 3504.2451548203635
1482.0887758709323 3312.174042220127
1482.8754393987747 3689.7247473669986
1483.6619114575406 3418.305090223482
1484.4481920988783 3585.7485784845107
1485.2342813744108 3561.654692086174
1486.0201793357446 3701.7342750178686
1486.8058860344572 3455.027540182644
1487.591401522117 3558.6461705545626
1488.3767258502594 3493.9142140823765
1489.1618590704056 3517.628342436713
1489.9468012340494 3241.865830782745
1490.7315523926754 3559.82084314268
1491.5161125977356 3571.673359237565
1492.3004819006637 3511.4149454336693
1493.084660352877 3389.036463010392
1493.8686480057622 3519.242210255624
1494.6524449106964 3717.5637103220315
1495.4360511190262 3671.9580856454
1496.219466682087 3612.5653083179013
1497.0026916511779 3556.0825518663296
1497.7857260775945 3507.903458007767
1498.5685700125996 3656.4894400925577
1499.3512235074395 3382.640508147666
1500.133686613337 3443.9164042993507
1500.9159593814966 3401.048724891013
1501.698041863101 3859.579129822764
1502.4799341093094 3403.7225071100743
1503.2616361712662 3251.8733042189383
1504.043148100087 3523.7290307026005
1504.8244699468742 3520.1332047695296
1505.6056017626997 3366.8319269823282
1506.3865435986281 3302.023206357454
1507.1672955056893 3492.4278481832
1507.9478575348967 3358.3904213379124
1508.7282297372512 3581.3708279145258
1509.5084121637192 3466.3969514153237
1510.2884048652577 3331.004400526001
1511.0682078927948 3318.728583252091
1511.8478212972423 3403.7618514776427
1512.6272451294917 3395.626225283643
1513.4064794404076 3469.734678622973
1514.1855242808433 3560.6412122643524
1514.9643797016215 3390.607726272335
1515.743045753552 3538.4931353049046
1516.5215224874191 3489.4253916909884
1517.2998099539836 3223.766603466577
1518.077908203999 3354.5771195617103
1518.8558172881785 3391.330351709263
1519.633537257234 3533.261851101381
1520.4110681618404 3443.078000830997
1521.1884100526604 3433.5211557828916
1521.9655629803365 3406.2892635774033
1522.7425269954856 3557.0257042419457
1523.5193021487103 3714.6898468818445
1524.2958884905856 3384.84981267852
1525.0722860716687 3422.312040402365
1525.848494942502 3418.663608236178
1526.624515153595 3464.067300188475
1527.4003467554485 3462.803511063424
1528.175989798534 3665.6467868250525
1528.9514443333064 3475.576053082371
1529.726710410203 3683.5549161956333
1530.5017880796331 3411.8399654516097
1531.276677391992 3484.939218165192
1532.0513783976457 3619.1369354174794
1532.825891146953 3425.643802724094
1533.6002156902414 3625.8880587528815
1534.3743520778207 3460.4914810098744
1535.1483003599806 3523.0813542203273
1535.9220605869923 3499.2190995120886
1536.6956328091019 3611.061717406793
1537.4690170765407 3445.099342229224
1538.242213439511 3573.601824334031
1539.015221948208 3530.587845760564
1539.78804265279 3345.375672121359
1540.560675603405 3286.6455754974136
1541.3331208501804 3582.2717067290846
1542.1053784432224 3562.543442922527
1542.8774484326168 3457.8734692259713
1543.649330868422 3543.048311309234
1544.4210258006842 3514.7639893876485
1545.1925332794308 3449.7044057572502
1545.9638533546604 3471.5736937078145
1546.7349860763552 3318.068291228855
1547.5059314944829 3671.3567090032293
1548.27668965898 3395.4738518549975
1549.0472606197673 3505.941390676761
1549.817644426752 3292.865846482912
1550.5878411298072 3482.5648851624005
1551.3578507787988 3377.6963507615574
1552.1276734235635 3333.003621077535
1552.8973091139233 3385.210790514476
1553.6667578996767 3547.84386207192
1554.436019830604 3409.149741001676
1555.20509495646 3344.020392331945
1555.9739833269869 3240.700080043901
1556.7426849919011 3319.830608243763
1557.511200000903 3492.522893609121
1558.2795284036674 3454.9098898343764
1559.0476702498509 3436.125533583129
1559.8156255890954 3469.9504140567296
1560.5833944710157 3666.413659030956
1561.3509769452048 3338.770347318369
1562.1183730612447 3431.079584539766
1562.8855828686865 3296.7244534098377
1563.6526064170703 3697.3109474131115
1564.4194437559127 3576.1890968394264
1565.1860949347047 3326.0153292016025
1565.9525600029283 3618.3367827789066
1566.7188390100328 3801.830918259079
1567.4849320054564 3411.937396606451
1568.250839038612 3361.9607158100016
1569.0165601588997 3397.6153971637714
1569.7820954156887 3490.2369075498827
1570.5474448583373 3365.059237855969
1571.31260853618 3391.918710016681
1572.0775864985299 3247.676356438012
1572.8423787946813 3525.5556346851
1573.6069854739108 3342.115164420627
1574.371406585471 3531.3123813520697
1575.1356421785986 3534.6795986878096
1575.899692302506 3418.917339239101
1576.6635570063845 3530.3057420784708
1577.4272363394157 3464.174422668528
1578.190730350747 3340.3617381139948
1578.9540390895163 3483.1613062245697
1579.7171626048384 3113.187660483563
1580.480100945806 3353.33841689989
1581.2428541614918 3377.9373092027768
1582.0054223009538 3454.9725711723686
1582.767805413223 3463.79425261086
1583.5300035473156 3453.9458997516485
1584.292016752228 3476.483967934974
1585.0538450769309 3410.5401583278085
1585.8154885703807 3283.569872146738
1586.5769472815136 3295.972007364613
1587.3382212592405 3424.458510442447
1588.099310552463 3629.9100985847026
1588.8602152100484 3406.495889971843
1589.6209352808564 3486.2027475242635
1590.3814708137234 3244.7152240895275
1591.14182185746 3350.744357728953
1591.9019884608679 3326.610301878586
1592.6619706727215 3077.2415674421363
1593.4217685417734 3371.0519334463024
1594.1813821167616 3485.2220597931455
1594.9408114464022 3154.244695672824
1595.7000565793933 3222.8342844733506
1596.459117564409 3413.69642009452
1597.2179944501113 3150.823280027297
1597.9766872851324 3149.583093012279
1598.735196118092 3386.7048619667426
1599.4935209975883 3365.416976556184
1600.2516619721973 3407.2514161273407
1601.0096190904787 3184.6318730793364
1601.7673924009723 3247.188693636668
1602.524981952196 3115.799158599932
1603.2823877926476 3165.648135083253
1604.0396099708087 3131.5454193698124
1604.7966485351371 3011.2890736194454
1605.5535035340745 3164.6636995282706
1606.3101750160404 3498.8668517539727
1607.0666630294363 3166.0056024494907
1607.822967622642 3032.9945850761515
1608.5790888440224 3095.5094407214256
1609.3350267419137 3288.315617490748
1610.0907813646445 3226.9674500217116
1610.8463527605145 3189.455201225231
1611.601740977805 3254.83915667247
1612.356946064785 3174.8714400635577
1613.1119680696902 2908.646324790368
1613.8668070407512 3157.4911777954553
1614.6214630261748 3007.109585003645
1615.375936074137 3213.98254542432
1616.1302262328118 3066.842065098835
1616.8843335503425 3169.0834333580124
1617.638258074854 3008.218043781268
1618.391999854457 3147.9038070145502
1619.1455589372363 3272.2516945623815
1619.8989353712623 3208.7852794823566
1620.65212920458 2817.040550283006
1621.4051404852235 2951.6554858957093
1622.1579692611976 3177.0039250624513
1622.9106155804966 2905.5985014405637
1623.663079491087 2993.8752245139567
1624.4153610409248 3194.4750150368445
1625.1674602779385 2877.0986005529044
1625.9193772500403 2914.472805930375
1626.6711120051277 3180.9972419077117
1627.4226645910676 3126.640407269393
1628.174035055721 2936.9888744201075
1628.9252234469168 3138.6528222589345
1629.676229812474 3009.3703188513373
1630.4270542001905 3162.246269523954
1631.1776966578382 3019.3600641225858
1631.9281572331747 3101.378252768609
1632.678435973945 3166.0324580498423
1633.4285329278573 3164.2481621126108
1634.1784481426203 2882.0231966659917
1634.9281816659113 2944.8351682645884
1635.677733545388 3188.419182511295
1636.4271038286934 2978.564556968461
1637.176292563452 3166.6007859432257
1637.9252997972635 3072.806357599167
1638.674125577716 3126.119262261159
1639.4227699523672 3448.162581273945
1640.171232968767 2864.2127803362473
1640.9195146744423 3059.250183073972
1641.6676151168977 3233.3452165803124
1642.4155343436178 3283.1737624202565
1643.1632724020765 3140.1468116575916
1643.9108293397167 3070.2211565115285
1644.658205203974 3006.740071835143
1645.4054000422566 3501.955824955034
1646.1524139019566 2989.0291972061705
1646.8992468304423 3032.993158363731
1647.6458988750728 3059.684851885858
1648.3923700831765 3094.7474636124325
1649.1386605020743 3083.0403406294527
1649.8847701790564 3280.3086532658062
1650.6306991614038 3166.1853309835205
1651.3764474963682 3189.2408602702817
1652.1220152311944 2897.413195159455
1652.867402413096 3233.4066565891903
1653.6126090892776 3118.38923626855
1654.3576353069184 3323.4455350577946
1655.1024811131829 3219.589248177842
1655.8471465552066 3093.372998022453
1656.5916316801213 3286.131766874987
1657.3359365350298 3201.925158329854
1658.0800611670165 3154.0697942704046
1658.824005623148 3102.8223749607614
1659.5677699504722 2976.690266412522
1660.3113541960192 3209.9508972705503
1661.054758406799 3054.9497613428316
1661.7979826297997 2973.2691003045247
1662.5410269119966 2956.018991542594
1663.283891300338 3132.3732293403527
1664.0265758417645 2998.54203916776
1664.7690805831826 3164.4280670708786
1665.5114055714948 3239.269855823872
1666.2535508535748 3415.9703743926157
1666.9955164762814 2791.426962031317
1667.7373024864555 3073.9218295912497
1668.478908930916 3110.369913609874
1669.220335856462 3049.3533044384026
1669.9615833098778 2997.3400156298644
1670.7026513379296 3014.875548111026
1671.44353998736 3110.014069185558
1672.1842493048916 3043.773470650778
1672.9247793372379 2929.903730941466
1673.6651301310812 3089.971563602304
1674.4053017330934 3000.0502318011995
1675.1452941899242 3055.2141600051277
1675.885107548207 2610.618119061394
1676.6247418545518 2741.4874794893044
1677.3641971555535 2784.3744767710295
1678.1034734977893 3005.079958671745
1678.8425709278108 2940.1834113731697
1679.5814894921605 3127.188486702832
1680.320229237359 2953.2784833801447
1681.0587902098978 3135.1749110292617
1681.7971724562685 2849.1668339910893
1682.5353760229264 2886.2419348524963
1683.2734009563173 2928.39475603212
1684.0112473028657 2713.7835540506867
1684.7489151089794 3049.017094767115
1685.4864044210462 2923.9140306468153
1686.2237152854377 2541.4367323074543
1686.960847748498 2965.8561938688154
1687.6978018565642 2728.6435383970893
1688.434577655944 2712.176010336628
1689.1711751929379 2679.094810714453
1689.9075945138156 2738.921184060787
1690.6438356648396 2777.7731909960357
1691.3798986922448 2428.2556408489922
1692.1157836422499 2663.249897977291
1692.851490561059 2625.2712998366533
1693.587019494853 2690.5434158243816
1694.3223704897991 2454.441807286171
1695.0575435920364 2420.7944084996616
1695.792538847696 2909.101161141551
1696.527356302886 2641.657506300325
1697.2619960036936 2414.8576027488944
1697.9964579961907 2405.79559729937
1698.730742326432 2242.397994712035
1699.4648490404488 2352.664361846083
1700.1987781842563 2484.3404050853187
1700.9325298038548 2600.829090191107
1701.6661039452174 2762.9700288968547
1702.3995006543082 2550.443268586504
1703.1327199770658 2616.762252374785
1703.865761959416 2463.599645991615
1704.598626647261 2614.7704235073497
1705.3313140864866 2272.4969542426866
1706.0638243229587 2458.6011229381756
1706.7961574025303 2488.0415950590677
1707.528313371029 2500.5366480399507
1708.260292274268 2324.6386505425667
1708.9920941580403 2500.8429010039436
1709.7237190681226 2470.041233818152
1710.4551670502697 2420.5273388497703
1711.18643815022 2204.969671705622
1711.9175324136959 2602.576184692814
1712.6484498863938 2380.216251273376
1713.379190614005 2301.618933947434
1714.109754642188 2235.697856069992
1714.8401420165883 2466.270791581935
1715.570352782839 2613.3706598588496
1716.3003869865497 2349.293745481063
1717.0302446733076 2293.346206003074
1717.7599258886876 2437.8214345206297
1718.4894306782444 2598.174182456923
1719.2187590875183 2230.725741951912
1719.9479111620203 2560.774434669519
1720.6768869472544 2263.6963783660913
1721.4056864887025 2574.8785182254474
1722.1343098318284 2502.914334096946
1722.8627570220742 2391.082115320026
1723.591028104871 2249.002230168884
1724.3191231256242 2160.7079375511016
1725.0470421297232 2284.189295901148
1725.7747851625427 2421.2324462848114
1726.5023522694337 2415.2060495302426
1727.2297434957363 2356.2667118079526
1727.9569588867635 2049.1819879589384
1728.6839984878152 2440.815735560741
1729.4108623441734 2046.0343850721179
1730.1375505011038 2354.6182070181135
1730.8640630038426 2206.836242648801
1731.5903998976264 2159.7019658381155
1732.316561227657 2316.3973508714557
1733.0425470391274 2162.1613151249303
1733.7683573772065 2321.06760839053
1734.4939922870508 2220.546282572912
1735.2194518137949 2323.566769498047
1735.9447360025606 2173.124254508059
1736.669844898439 2264.5985605326323
1737.3947785465189 2133.2791610408945
1738.1195369918605 2009.926927757639
1738.8441202795093 2322.62732583335
1739.5685284544943 2353.3863907299447
1740.292761561821 2309.7986614657543
1741.0168196464838 2300.5076683876327
1741.7407027534518 2391.5456516200875
1742.464410927687 2248.0701658070893
1743.187944214118 2218.804024451105
1743.9113026576688 2157.3697134934023
1744.634486303241 2238.136853033101
1745.3574951957125 2199.9916232823907
1746.0803293799509 2334.337530115604
1746.8029889008048 2330.3796846902283
1747.5254738031017 2223.164328020103
1748.2477841316504 2043.2097477065672
1748.969919931249 2223.7648492044723
1749.6918812466665 2123.8917257618364
1750.4136681226646 2307.213860370593
1751.1352806039777 2165.407558743264
1751.856718735331 1941.1278313563503
1752.5779825614281 1987.5192516180227
1753.2990721269507 2224.5974803653244
1754.0199874765676 2240.3658480931276
1754.7407286549314 2016.0848244244455
1755.4612957066693 2112.6468566687845
1756.1816886763954 2063.176386958057
1756.9019076087097 2215.8259762468583
1757.6219525481865 2319.963163006907
1758.3418235393856 2117.1407497899677
1759.061520626854 2106.544003704506
1759.7810438551096 2286.976270288812
1760.5003932686614 2105.36071682461
1761.2195689119999 2255.3199564531064
1761.938570829594 2268.1928036939435
1762.657399065898 2159.530251875921
1763.376053665348 1977.8338983923793
1764.0945346723602 2018.5182238049606
1764.812842131334 2352.065734591345
1765.5309760866512 1947.7729561199867
1766.2489365826787 2047.2520475897122
1766.9667236637597 2087.853314937064
1767.684337374223 1892.5338943373422
1768.401777758383 1972.7498965223233
1769.1190448605284 1978.0398477462008
1769.836138724937 1960.4308023110348
1770.5530593958665 2141.8823122504537
1771.2698069175603 2392.02680291014
1771.9863813342326 2263.5530822067885
1772.702782690094 1914.281952496798
1773.4190110293293 2199.758965168385
1774.1350663961111 2147.5726979507153
1774.8509488345844 2032.869151753719
1775.5666583888924 2138.2117032986453
1776.2821951031437 2245.1962675818118
1776.9975590214362 2109.2007562213284
1777.7127501878585 2265.1012052671913
1778.4277686464684 2195.4957616592656
1779.1426144413108 2219.6748777816692
1779.8572876164162 2219.972206716505
1780.571788215797 1896.8786445362489
1781.2861162834415 2185.5944444920087
1782.0002718633277 2018.0453608801013
1782.7142549994132 2305.0810829748393
1783.4280657356376 2032.4571837584263
1784.141704115922 2045.5718075289326
1784.855170184177 2044.0317233533071
1785.5684639842839 2161.123336283197
1786.2815855601148 1770.5391472183157
1786.9945349555237 2247.5586555725795
1787.707312214343 1846.004074331901
1788.4199173803918 1881.1441900954874
1789.132350497468 1916.5084667343672
1789.8446116093583 2008.5405797621338
1790.556700759822 1948.9164921398751
1791.2686179926077 2005.5996340200793
1791.9803633514493 2024.1584247506446
1792.6919368800554 1924.484009155753
1793.4033386221236 2101.315365969692
1794.1145686213295 2195.1151363249637
1794.8256269213307 2295.6212484470916
1795.536513565774 2092.4547648711623
1796.247228598284 1912.6316027387536
1796.9577720624693 1961.4000536647468
1797.6681440019165 2156.482218975121
1798.3783444602013 2061.5882028604387
1799.0883734808776 2072.612621557092
1799.7982311074884 2116.498566266021
1800.5079173835475 2042.4122440972528
1801.2174323525633 2129.0025790170844
1801.9267760580187 1941.4190952953304
1802.635948543386 2085.696577162344
1803.3449498521113 1946.4537815370427
1804.0537800276325 2100.738604812542
1804.7624391133668 2062.2921830516348
1805.47092715271 1722.253405224163
1806.1792441890484 1900.786059094235
1806.8873902657433 2048.9124441967974
1807.5953654261448 2064.4684739021027
1808.3031697135812 1939.6773736183573
1809.0108031713662 1968.5025512912423
1809.71826584279 2022.2827438714583
1810.425557771141 1922.0509521727552
1811.1326789996747 2259.740750475352
1811.839629571632 2035.1205171257188
1812.5464095302468 2040.3015705021176
1813.2530189187182 1964.4773072171752
1813.959457780249 1999.5314606026827
1814.6657261580076 2191.5588356936014
1815.371824095153 2069.6900400997883
1816.0777516348262 2043.8613434226572
1816.78350882015 1666.0908904263865
1817.4890956942272 1844.2674687775427
1818.1945123001533 1832.707324483768
1818.8997586809928 1940.9159830642202
1819.6048348798067 1951.221952912919
1820.3097409396287 1898.6290287172196
1821.0144769034796 2268.638180239089
1821.7190428143622 2090.0982527351207
1822.423438715261 2041.4008082485532
1823.1276646491478 1869.1086006957175
1823.8317206589727 1940.2120158071896
1824.5356067876692 1971.7910602545155
1825.2393230781581 1940.3074196493876
1825.942869573335 1794.4646123208768
1826.646246316086 1783.9207137365315
1827.3494533492758 1961.7568751915674
1828.052490715756 1945.4056294727598
1828.7553584583547 2002.2918650525367
1829.458056619891 2108.922869915509
1830.1605852431585 1862.1045173579714
1830.8629443709433 1763.4206539270715
1831.5651340460063 1933.5217271670128
1832.2671543110919 1730.4500380006623
1832.9690052089318 2049.353776453954
1833.6706867822395 1762.8321998638432
1834.3721990737104 2008.1588150510702
1835.0735421260233 2002.2439161721354
1835.774715981841 1945.8979258757925
1836.4757206838058 2090.6327046134656
1837.1765562745459 1846.8915412245562
1837.8772227966747 1748.2324928759358
1838.5777202927839 1812.3751370116508
1839.2780488054523 1838.8194978088468
1839.9782083772352 1913.5901933800392
1840.6781990506806 2138.089367364912
1841.378020868313 1934.2558193267228
1842.0776738726418 1972.0885600172837
1842.777158106157 1904.013162230649
1843.4764736113375 1849.5935437218893
1844.1756204306403 2099.7306117953062
1844.8745986065078 1861.7026590189714
1845.5734081813607 1740.5455684921483
1846.2720491976124 1764.2498721210134
1846.970521697649 1812.5429545018226
1847.6688257238511 1878.5980676906079
1848.3669613185684 1899.44682882655
1849.0649285241452 1694.1020373976146
1849.7627273829057 2006.6343516317952
1850.460357937156 1908.7213156622554
1851.1578202291857 1685.485200328345
1851.8551143012664 1913.9672026987155
1852.5522401956569 1878.4354009462418
1853.2491979545957 1993.1185518573875
1853.9459876203055 1714.6259178590979
1854.6426092349902 1819.6536124058835
1855.3390628408451 1850.889029585031
1856.0353484800362 2092.8519019130754
1856.7314661947203 1888.9257893949339
1857.4274160270397 1650.1859546270584
1858.123198019115 1834.8185845309738
1858.8188122130487 1696.9392627126751
1859.5142586509319 1813.4654516615506
1860.209537374838 1884.2212154099138
1860.9046484268183 1798.056787710288
1861.599591848917 2063.3202272476055
1862.294367683151 1776.4321986372256
1862.988975971528 1725.5612185370614
1863.6834167560355 1849.4669520233722
1864.3776900786452 2037.9601221666076
1865.0717959813119 1814.623317337449
1865.7657345059724 1723.513695255472
1866.4595056945564 1876.6170499625914
1867.1531095889586 1782.0307301477922
1867.846546231076 1579.8653158402535
1868.5398156627743 1923.1938643311137
1869.2329179259123 1776.0316051552297
1869.9258530623283 2010.6194394932215
1870.618621113843 1693.9975464021886
1871.3112221222636 1719.944911981184
1872.0036561293764 1692.3037702733805
1872.695923176956 1874.6518392607989
1873.3880233067594 1935.8691109761207
1874.0799565605212 1668.842453660654
1874.7717229799673 1877.150860652636
1875.4633226068036 1890.9747527632346
1876.1547554827175 1937.5046092073703
1876.8460216493859 1865.7870880566013
1877.5371211484617 1839.026174558913
1878.2280540215852 1957.2678805955788
1878.9188203103804 1729.5486389570008
1879.6094200564548 1882.3939752305173
1880.299853301396 1640.0302179573926
1880.9901200867826 2002.3895217198703
1881.6802204541673 1796.9983134124075
1882.3701544450942 1894.2790911338238
1883.059922101087 1591.5253601120394
1883.7495234636517 1956.582651125189
1884.4389585742792 1629.3467475232223
1885.1282274744517 1711.5249557707775
1885.8173302056166 1770.1748246062045
1886.506266809225 1828.9057515688921
1887.195037326701 1602.475719533886
1887.8836417994517 1763.5237509845406
1888.5720802688702 2045.5457665932092
1889.260352776333 1937.0144462387157
1889.9484593632042 1942.9836075194155
1890.63640007082 1696.2843332347588
1891.3241749405151 1635.7747762092665
1892.0117840135954 1839.9933373157776
1892.6992273313572 1641.1875050251576
1893.3865049350788 1726.1653860368729
1894.0736168660223 2094.702556233579
1894.7605631654333 1921.6137310599959
1895.4473438745408 1619.3015876017157
1896.133959034556 1979.3154603266453
1896.820408686679 1910.1695319524752
1897.506692872088 2000.690749369052
1898.192811631945 1727.1958893944698
1898.8787650073991 1644.138596000042
1899.5645530395832 1897.5172437589495
1900.2501757696118 1878.880942009712
1900.9356332385796 1616.689245700398
1901.620925487574 1710.4869812789373
1902.3060525576602 1804.5808980195802
1902.9910144898859 1874.4553410226993
1903.6758113252872 1715.465825863109
1904.3604431048789 1895.7039464226134
1905.0449098696663 1862.2564599554862
1905.7292116606295 1616.2098470358546
1906.4133485187394 1808.8540130872072
1907.0973204849488 1540.2267777027412
1907.7811276001976 1640.7112495534752
1908.4647699053967 1751.428160125306
1909.1482474414588 1677.5185944015386
1909.8315602492694 1603.3836642707538
1910.5147083696957 1869.4035328170753
1911.1976918436012 1675.1213087728788
1911.880510711815 1634.112932894664
1912.5631650151681 1971.4598513646768
1913.2456547944657 1709.3145151176068
1913.927980090495 1750.1775078763803
1914.6101409440362 1708.9654028006848
1915.2921373958416 1751.7516196998918
1915.9739694866603 1764.1303095182334
1916.655637257214 1987.4324999600321
1917.3371407482136 1888.9762899330422
1918.0184800003572 1984.878013445111
1918.6996550543154 1862.1062084814162
1919.3806659507554 1709.3978406160568
1920.0615127303208 1677.0633980105217
1920.7421954336423 1877.7162272116025
1921.4227141013343 1901.9686325248354
1922.103068773993 1853.696627609535
1922.783259492202 1938.4190494791242
1923.4632862965227 1541.1692248800484
1924.1431492275078 1598.0133706266222
1924.8228483256917 1731.4367380869685
1925.5023836315922 1654.3526807088704
1926.1817551857057 1830.6299848928102
1926.8609630285227 2007.2592633567613
1927.5400072005123 1961.2876201409022
1928.218887742125 1649.5811089907697
1928.8976046938005 1543.4618996713982
1929.5761580959588 1835.7328067939675
1930.2545479890086 1722.304391071004
1930.9327744133352 1494.0533048891816
1931.6108374093164 1705.6367669843687
1932.2887370173066 1980.836091868608
1932.9664732776473 1873.7409964253075
1933.6440462306673 1766.3319467242031
1934.3214559166754 1608.520766988387
1934.9987023759659 1968.8264213442774
1935.675785648813 1772.918609474665
1936.3527057754836 1846.822903599211
1937.029462796223 1920.9019359539805
1937.70605675126 1641.7199203404707
1938.3824876808085 1585.5075892190823
1939.058755625072 1625.3859461791267
1939.7348606242267 1671.1011910524842
1940.4108027184448 1673.027696940415
1941.0865819478713 1864.1615223388367
1941.7621983526478 1693.1431522670628
1942.4376519728921 1620.3661803073092
1943.1129428487038 1651.9105648431319
1943.7880710201734 1695.0064300199288
1944.4630365273733 1827.5142247398235
1945.1378394103576 1488.8933675102066
1945.8124797091714 1481.7298082379607
1946.4869574638324 1474.5002068615174
1947.161272714353 1583.94851925196
1947.8354255007234 1819.0959087704541
1948.5094158629272 1621.6397461282368
1949.1832438409183 1722.7370771550952
1949.8569094746435 1714.5981999038365
1950.530412804037 1924.4920855893524
1951.2037538690092 1904.8686885894313
1951.8769327094578 1589.079264806936
1952.5499493652678 1531.1642850394628
1953.222803876306 1905.831873194546
1953.895496282421 1705.841309783496
1954.5680266234522 1738.2258849313353
1955.2403949392155 1632.1936482926444
1955.9126012695142 1581.5572624082022
1956.5846456541403 1633.3018398984723
1957.2565281328643 1551.3626512992284
1957.9282487454457 1943.2531136549521
1958.5998075316202 1688.471988520927
1959.27120453112 1663.3401932360528
1959.9424397836501 1748.8849930814438
1960.613513328908 1703.255050208528
1961.2844252065697 1880.2025354466145
1961.9551754563017 1458.562586114287
1962.6257641177453 1632.5291123858876
1963.29619123054 1439.984713429912
1963.966456834296 1518.6064867955695
1964.6365609686181 1480.1397659138916
1965.306503673086 1468.6589441079877
1965.976284987275 1457.12695291517
1966.645904950734 1691.5077610211254
1967.315363603002 1430.9366012837993
1967.9846609836077 1604.221455557708
1968.6537971320486 1529.806909905296
1969.3227720878222 1685.3418953809312
1969.9915858904042 1492.277437829691
1970.660238579252 1808.9567730820836
1971.3287301938108 1664.3711698545744
1971.997060773514 1537.617493716966
1972.665230357772 1523.7188188477414
1973.3332389859843 1453.5308787715308
1974.0010866975335 1423.0074216746475
1974.6687735317864 1714.8838858227537
1975.3362995280932 1647.8715275969112
1976.003664725793 1703.882786654415
1976.6708691642052 1665.8955748051715
1977.3379128826364 1627.7201852244505
1978.004795920373 1640.6650348465505
1978.6715183166925 1450.8254720901057
1979.3380801108524 1696.8645143935719
1980.0044813420973 1489.9224289609072
1980.6707220496555 1315.242706255809
1981.3368022727373 1580.8833938538123
1982.0027220505417 1594.1690728737733
1982.66848142225 1236.4191865830867
1983.3340804270283 1299.6954344051271
1983.999519104027 1551.6072856214907
1984.6647974923835 1582.2799344019372
1985.329915631215 1596.9258291899253
1985.99487355963 1610.5459538627301
1986.6596713167146 1732.8114038240242
1987.3243089415428 1442.2392864280494
1987.9887864731754 1682.4144152811245
1988.6531039506553 1363.9872526569745
1989.3172614130071 1417.16123570824
1989.9812588992481 1470.4493313788755
1990.645096448372 1281.5671761920785
1991.3087740993633 1567.2599303459735
1991.9722918911848 1486.610135942444
1992.635649862792 1580.3122318731916
1993.2988480531185 1564.55868778958
1993.9618865010852 1518.8427346211129
1994.6247652455968 1473.101700757549
1995.287484325545 1511.3718904357133
1995.9500437798033 1507.992204929
1996.6124436472292 1491.3927696708022
1997.2746839666706 1745.6599377173184
1997.936764776954 1493.973992387876
1998.598686116895 1540.8544553429754
1999.2604480252903 1779.6419924797895
1999.9220505409212 1672.8117073206565
2000.5834937025593 1392.9237335809098
2001.2447775489582 1576.5107545223877
2001.9059021188514 1556.363133584103
2002.5668674509616 1388.6055371500104
2003.2276735839987 1506.2735315439731
2003.8883205566508 1450.5522271447376
2004.5488084075987 1394.7061083647138
2005.2091371755014 1493.8897343862388
2005.8693068990033 1299.4172749598808
2006.5293176167397 1349.1358046942469
2007.1891693673224 1399.0608380228357
2007.848862189354 1265.5670596056284
2008.5083961214223 1572.284844356313
2009.1677712020955 1479.4682987560225
2009.8269874699254 1365.7085111741694
2010.4860449634598 1366.4134796097276
2011.1449437212177 1367.2008458288683
2011.8036837817108 1754.8141301670319
2012.4622651834325 1522.8773517285442
2013.1206879648653 1598.5344854059442
2013.7789521644736 1447.6724618963428
2014.4370578207036 1712.772009305662
2015.0950049719922 1516.3280093304593
2015.7527936567585 1588.2059288636322
2016.4104239134067 1499.691804202417
2017.067895780323 1795.8971175208237
2017.725209295886 1774.5829098780778
2018.3823644984514 1753.1661501821
2019.0393614263648 1480.4555601657419
2019.6962001179545 1469.6935828396877
2020.3528806115355 1670.8404080942134
2021.0094029454067 1474.7439133762734
2021.6657671578487 1400.9504242313426
2022.321973287133 1549.4462218446408
2022.9780213715148 1427.4702934641073
2023.6339114492293 1433.9288846336735
2024.2896435585026 1482.3924116871517
2024.9452177375442 1567.6754760651158
2025.600634024544 1628.5181601161032
2026.2558924576842 1682.0450462561062
2026.9109930751292 1700.084789371794
2027.565935915025 1744.1866433145537
2028.2207210155066 1788.4184983215607
2028.8753484146964 1921.9032659798777
2029.529818150695 1793.862216971947
2030.1841302615903 1665.2898354288961
2030.8382847854573 1376.1480724025575
2031.4922817603601 1593.5758195792073
2032.1461212243357 1446.6694629858443
2032.7998032154192 1356.240013379215
2033.4533277716218 1546.4539306302502
2034.1066949309443 1529.2112806379
2034.7599047313688 1391.9410451940835
2035.4129572108704 1606.5239156298433
2036.0658524074006 1536.1490516313656
2036.7185903589016 1665.1765307606445
2037.3711711032956 1782.350020521575
2038.023594678496 1617.2232230404607
2038.675861122394 1491.7326470838887
2039.3279704728757 1412.5994527513567
2039.9799227678031 1333.4157946407527
2040.6317180450278 1480.3724347003517
2041.2833563423865 1500.0430206910692
2041.9348376977014 1707.6603119866609
2042.5861621487784 1619.5991630509523
2043.2373297334088 1761.9281540628933
2043.8883404893695 1614.3216939630413
2044.5391944544208 1455.0844023766251
2045.1898916663158 1641.940830099269
2045.8404321627804 1556.537002941052
2046.4908159815368 1470.8653547371298
2047.1410431602853 1376.5592074522035
2047.7911137367173 1297.7413821338569
2048.441027748504 1347.1752222761693
2049.090785233302 1396.6066970052384
2049.7403862287592 1394.9860865568503
2050.389830772503 1332.7368233762622
2051.0391189021466 1270.4665926192858
2051.688250655294 1492.5928717408153
2052.337226069527 1411.3798705373988
2052.986045182417 1608.184115594186
2053.634708031521 1184.7591504323595
2054.283214654375 1623.1490693922474
2054.931565088511 1221.75511571786
2055.579759371436 1409.1561332012343
2056.2277975406523 1437.4437837677613
2056.8756796336384 1303.3387055633732
2057.5234056878617 1608.0053411570648
2058.1709757407752 1458.1625818347106
2058.8183898298194 1630.80231931169
2059.465647992416 1647.013691403965
2060.1127502659747 1521.473463122158
2060.759696687888 1247.404720175042
2061.4064872955405 1460.6055370305244
2062.053122126292 1644.4506088591766
2062.699601217497 1572.8097944995814
2063.345924606485 1501.2352728188614
2063.992092330587 1498.3368015802496
2064.638104427102 1413.793163117418
2065.283960933324 1698.1902813377978
2065.92966188653 1430.8602022338587
2066.5752073239855 1385.4543017876692
2067.2205972829397 1340.018472656659
2067.86583180062 1556.6892094323796
2068.5109109142522 1474.3386678674703
2069.15583466104 1439.736323212846
2069.8006030781708 1405.103242539864
2070.445216202821 1295.2341051294807
2071.089674072153 1683.3775033386967
2071.7339767233116 1706.949501956844
2072.3781241934303 1511.5007302007602
2073.0221165196253 1545.3338394817908
2073.6659537390024 1429.6447882916038
2074.3096358886505 1538.997170643098
2074.953163005637 1461.0227363317285
2075.596535127028 1383.563158565452
2076.2397522898664 1306.0289070171307
2076.882814531182 1471.83132137794
2077.5257218879924 1622.9419190528974
2078.1684743973 1381.9504992832467
2078.8110720960885 1333.4550535824842
2079.453515021336 1431.8690582440884
2080.095803209997 1530.3582091729622
2080.7379366990135 1481.7443313829606
2081.37991552532 1627.4391439847982
2082.0217397258275 1520.0713616443713
2082.6634093374414 1488.6101753543119
2083.3049243970418 1457.1763688518383
2083.9462849415067 1469.6106907801925
2084.587491007689 1519.0937223221786
2085.2285426324324 1485.6423142270255
2085.869439852564 1526.1725830626233
2086.510182704902 1299.671285225239
2087.1507712262483 1498.7378507069484
2087.791205453381 1255.579008874694
2088.4314854230743 1546.486953374297
2089.0716111720867 1504.8191879995723
2089.7115827371617 1226.1790704769724
2090.351400155023 1281.868314405862
2090.991063462385 1337.721707614371
2091.6305726959527 1254.0102496344753
2092.2699278924047 1283.2710513362956
2092.9091290884153 1312.6425669646933
2093.548176320641 1259.1612223569148
2094.187069625721 1254.6942514377004
2094.8258090402887 1250.2170371348025
2095.464394600951 1480.1530686581377
2096.102826344313 1451.2773103181237
2096.741104306955 1693.7037495083434
2097.379228525453 1423.9316080348426
2098.017199036358 1278.3505532680833
2098.6550158762147 1412.3552708975474
2099.2926790815527 1546.6395984267613
2099.9301886888825 1434.9137072407493
2100.5675447347076 1436.4425572387777
2101.2047472555114 1529.1096597331575
2101.841796287761 1511.7760873563027
2102.47869186792 1457.639337778382
2103.1154340324265 1344.0272861707442
2103.752022817709 1495.279650707314
2104.388458260184 1400.5230602778097
2105.024740396251 1466.414104970617
2105.660869262292 1341.630399930328
2106.296844894685 1337.7900748807926
2106.93266732978 1333.9732808111485
2107.5683366039284 1382.2479115832546
2108.2038527534532 1422.2834221602284
2108.8392158146726 1606.4330493333557
2109.4744258238843 1321.3240724552347
2110.1094828173755 1487.8156096352552
2110.744386831422 1615.0123267892245
2111.3791379022787 1490.4956562301325
2112.01373606619 1671.2087092234292
2112.648181359389 1508.9569521906644
2113.28247381809 1491.5515388646654
2113.916613478492 1507.9924672319369
2114.550600376786 1519.5421825694311
2115.1844345491445 1448.3938192274422
2115.818116031729 1324.6826184487725
2116.451644860679 1432.0277215874335
2117.085021072133 1201.8200580811283
2117.718244702204 1329.8633116335548
2118.3513157869984 1227.238002253303
2118.984234362604 1261.2847744938513
2119.617000465092 1328.3697583481087
2120.249614130529 1607.3437424115295
2120.8820753949585 1428.4916579702149
2121.5143842944162 1245.7193448801263
2122.14654086492 1394.1203970832569
2122.7785451424734 1648.5995410157448
2123.4103971630702 1581.5434915397664
2124.042096962681 1514.505517782218
2124.6736445772767 1470.864084297286
2125.305040042802 1290.1182719090789
2125.936283395191 1368.5346278815634
2126.567374670365 1471.8513708600763
2127.198313904233 1412.9083212345422
2127.8291011326855 1328.842105543455
2128.4597363916037 1244.4420943714354
2129.0902197168507 1353.6958712527598
2129.720551144279 1491.0002752747996
2130.3507307097225 1628.3971582491845
2130.980758449008 1646.8854626820005
2131.6106343979427 1679.021402080352
2132.2403585923203 1711.1066161517174
2132.8699310679276 1431.1735128716996
2133.499351860526 1495.5424461315058
2134.1286210058715 1497.5181887036892
2134.7577385397053 1539.531233079863
2135.3867044977487 1581.6607029565437
2136.0155189157176 1567.628632612897
2136.644181829308 1627.557578613451
2137.2726932742025 1359.363227552746
2137.901053286074 1528.5035654969797
2138.5292619005777 1182.1200043204522
2139.1573191533535 1362.802240183333
2139.7852250800315 1488.5118670994434
2140.4129797162295 1506.2445927328988
2141.0405830975433 1249.4140537050073
2141.6680352595613 1309.8662886766556
2142.2953362378576 1370.4492544896734
2142.9224860679915 1431.1624358114411
2143.549484785508 1293.4558909242417
2144.1763324259373 1189.6498214575051
2144.803029024799 1278.1995479684542
2145.429574617594 1313.58564160845
2146.0559692398165 1239.790173523554
2146.682212926942 1165.7765319194623
2147.308305714432 1362.2924023365829
2147.9342476377333 1655.635020266393
2148.5600387322847 1760.9501769462618
2149.185679033506 1795.1214442267842
2149.8111685768017 1215.304030598441
2150.4365073975678 1237.9012537075214
2151.061695531187 1375.5292009198242
2151.686733013021 1430.5064249714728
2152.311619878423 1470.3422076738557
2152.9363561627342 1338.746479126319
2153.560941901278 1128.664595747549
2154.1853771293663 1436.2365109029265
2154.809661882293 1402.7282909645246
2155.433796195348 1326.5965103544424
2156.0577801037944 1250.2057064418082
2156.681613642895 1455.184380610774
2157.3052968478896 1310.3965659356322
2157.928829754006 1488.438309846841
2158.552212396462 1459.4284066071334
2159.1754448104566 1411.1802178060086
2159.7985270311783 1254.7838291427493
2160.4214590938027 995.1705040961197
2161.0442410334927 1122.3969688503416
2161.6668728853874 1201.490600685497
2162.289354684628 1280.7771482901378
2162.911686466332 1235.369543606592
2163.533868265602 1417.776759568841
2164.1559001175337 1704.1410106059325
2164.7777820572046 1477.2340049218315
2165.399514119681 1430.360925608407
2166.021096340013 1369.1076377913123
2166.6425287532384 1756.3647771444225
2167.263811394385 1684.9895764711814
2167.8849442984574 1613.6250053424994
2168.505927500455 1288.0223497445124
2169.126761035366 1527.0911916041173
2169.7474449381552 1228.3808971306275
2170.367979243778 1095.2048217649524
2170.9883639871823 1670.7373820455218
2171.608599203293 1249.1445321251338
2172.2286849270276 1730.524740246878
2172.8486211932886 1795.9929633309916
2173.4684080369625 1578.273333175605
2174.0880454929265 1173.921632826702
2174.7075335960417 1129.1503555666002
2175.3268723811543 1156.3490954770452
2175.9460618831 1183.633054688432
2176.565102136701 1486.1494522356372
2177.1839931767627 1498.0577343944674
2177.802735038078 1510.0190040736375
2178.421327755432 1378.9018466999694
2179.0397713635866 1358.048578208607
2179.658065897298 1325.0794590020316
2180.276211391305 1467.019074865157
2180.8942078803357 1262.7125334589039
2181.5120553991 1375.3180500835472
2182.129753982299 1159.6243636551458
2182.7473036646206 1413.2935043814707
2183.3647044807367 1416.2572172030405
2183.9819564653044 1189.1961773952157
2184.599059652968 1344.2268702390295
2185.216014078367 1492.9107332116726
2185.832819776113 1579.1279381616218
2186.4494767808137 1665.4594446389187
2187.065985127063 1408.7298999819895
2187.682344849436 1534.0724046784358
2188.298555982501 1304.914936910463
2188.9146185608097 1441.0305689982297
2189.530532618901 1450.3388576051798
2190.1462981912937 1603.7561326763087
2190.761915312507 1497.6271140974973
2191.377384017036 1202.105511770762
2191.9927043393654 1407.6667947855447
2192.6078763139667 1529.0916414084609
2193.2228999753006 1650.7975788502154
2193.837775357808 1353.1009234772464
2194.452502495922 1183.4297532850317
2195.0670814240602 1307.9178959213743
2195.6815121766285 1163.8916671170323
2196.2957947880186 1121.8269596823561
2196.9099292926057 1079.6812404125415
2197.523915724758 1399.8803031136795
2198.137754118825 1391.7287080027734
2198.7514445091456 1664.7996533812225
2199.3649869300443 1682.57587754841
2199.9783814158327 1700.4642844136204
2200.5916280008096 1584.9653766427869
2201.2047267192593 1539.8513643000156
2201.8176776054515 1308.8212244235024
2202.430480693649 1177.1927714944052
2203.0431360180955 1562.4337813015175
2203.6556436130195 1703.7028730460413
2204.268003512645 1049.4268896106817
2204.8802157511727 1264.4759031911622
2205.492280362796 1318.027143356502
2206.1041973816937 1371.7667713942624
2206.715966842032 1476.1338554282818
2207.3275887779655 1401.0058719711321
2207.93906322363 1581.413127539475
2208.550390213153 1321.4688661139662
2209.1615697806465 1418.6196095491687
2209.7726019602105 1340.866187335184
2210.3834867859277 1121.6472335791618
2210.9942242918787 1139.2161118826502
2211.6048145121167 1458.99859564472
2212.2152574806914 1913.252615825846
2212.825553231638 1334.3979195099455
2213.435701798975 1835.8013829206798
2214.045703216707 1437.768153309017
2214.655557518832 933.1643081339207
2215.2652647393297 1119.716236749779
2215.874824912169 1222.3502358241687
2216.4842380713 1325.35383778936
2217.09350425067 1159.1286630976367
2217.7026234842033 1512.4223560451287
2218.311595805819 1488.6537494011038
2218.9204212494133 1291.9741815123311
2219.52909984888 1527.8879759446468
2220.137631638092 1457.2487150464399
2220.7460166509154 1386.3708246679105
2221.354254921198 1209.9004685783707
2221.9623464827764 1449.2699418259242
2222.5702913694713 1289.7232780978654
2223.178089615096 1303.863936047733
2223.7857412534486 1318.0313557331042
2224.39324631831 1023.9437954002208
2225.000604843457 1120.0277845759483
2225.607816862641 1480.3133025204916
2226.214882409611 1364.5183731478317
2226.8218015180973 1452.2380056959441
2227.4285742218217 1327.370603283916
2228.0352005544864 1238.4417187790937
2228.6416805497847 1160.936214764261
2229.248014241399 1281.7841937688836
2229.8542016629945 1208.5404775958868
2230.460242848223 1387.5760042139043
2231.0661378307304 1317.275913309949
2231.671886644139 1246.9298100611695
2232.277489322065 1151.8236914409706
2232.8829458981127 899.6061584146597
2233.48825640587 1319.1407850704559
2234.0934208789095 1745.0521741478708
2234.6984393507955 1580.166248938605
2235.3033118550793 1400.5191944808987
2235.9080384252975 1280.4703690299582
2236.5126190949723 1084.3779208867268
2237.1170538976166 1222.577713472555
2237.721342866729 1206.02999174442
2238.32548603579 1180.676727707462
2238.9294834382763 1287.0794069747153
2239.533335107646 1393.6345207892143
2240.1370410773434 1261.2417373870996
2240.740601380803 1180.018045897003
2241.3440160514474 1358.724760683466
2241.9472851226783 1524.5090389297043
2242.550408627896 1469.8517625117388
2243.1533866004793 1550.6291108003402
2243.756219073799 1326.428700843134
2244.3589060812064 1191.854553033485
2244.961447656049 1281.5247311347634
2245.5638438316564 1380.2552910916438
2246.166094641343 1239.5305058705285
2246.7682001184166 1222.9646179447814
2247.3701602961664 1301.2577679460817
2247.971975207871 1360.4165250391727
2248.5736448867974 1522.1496780753373
2249.175169366197 1252.9907286528733
2249.7765486793123 1173.7351210058018
2250.3777828593684 1301.2619772867174
2250.9788719395783 1291.793298956309
2251.579815953146 1373.207348091694
2252.1806149332606 1375.5776368588995
2252.781268913097 1377.914014233284
2253.381777925817 1172.5638669675188
2253.9821420045737 1379.5817064167618
2254.5823611825035 1431.3045956685887
2255.1824354927303 1288.5289698452923
2255.782364968365 1176.3094962652629
2256.38214964251 1063.9713573194235
2256.9817895482483 1190.766196918645
2257.5812847186553 1292.2734023626745
2258.180635186791 1203.175696134517
2258.779840985704 1258.3271481764268
2259.37890214843 1322.636313786007
2259.97781870799 1311.7615102064638
2260.5765906973957 1300.8780167790678
2261.175218149645 1599.3280238432567
2261.773701097718 1333.3937410698
2262.3720395745895 927.8889113671419
2262.970233613216 1096.5825733403883
2263.568283246548 1304.8701629179595
2264.1661885075137 1134.6161460542974
2264.763949429038 1188.4913342281534
2265.3615660440246 1576.2386144001139
2265.959038385374 1079.302014450556
2266.5563664859637 1583.0400586166445
2267.153550378669 1150.8693895322851
2267.7505900963424 1463.835861335733
2268.3474856718312 1142.2204385213736
2268.9442371379664 1265.324247083236
2269.5408445275643 1222.362722652561
2270.1373078734377 1350.4871355283433
2270.7336272083758 1205.0799644282924
2271.32980256516 1093.041399795165
2271.925833976562 1454.392748334096
2272.5217214753357 1511.1026999243645
2273.117465094223 1305.2523000828628
2273.7130648659586 1201.9878832476152
2274.308520823257 1120.0595057560436
2274.903832998827 1453.8866058521876
2275.4990014253563 1202.416697246547
2276.094026135528 1082.4021524640575
2276.6889071620117 1313.570353530366
2277.2836445374614 1167.0574031246183
2277.878238294519 1270.1410463184473
2278.472688465812 1122.4545512613417
2279.066995083962 974.5071374475625
2279.6611581815705 1283.8464322158038
2280.255177791232 1578.1472867399527
2280.8490539455233 1386.791322803027
2281.442786677013 1680.2427900720982
2282.0363760182554 1392.369410970623
2282.6298220017943 935.8202687105011
2283.223124660155 1038.159323933609
2283.816284025859 1140.776401436833
2284.4093001314086 1495.279351854504
2285.002173009292 1155.9537473648772
2285.5949026919952 1519.1643855086181
2286.1874892119777 1370.366626191698
2286.7799326016993 1307.5224880992835
2287.3722328936 1055.860271865806
2287.964390120109 986.1037142511198
2288.556404313642 1416.8778932593564
2289.1482755066027 1585.133008779075
2289.7400037313873 1400.29550750942
2290.3315890203703 1283.009329215241
2290.9230314059205 1519.4092112535745
2291.5143309203904 1259.79289209987
2292.1054875961236 1303.620265314498
2292.6965014654506 1464.8130046960878
2293.287372560684 1161.8604948954128
2293.878100914131 1157.5260706712118
2294.468686558086 1153.2196615165522
2295.059129524827 1321.5067002698956
2295.649429846617 1345.247194408345
2296.239587555716 1166.5548009739837
2296.8296026843636 1330.499916754901
2297.419475264791 1537.82000938449
2298.0092053292137 1508.829962305565
2298.598792909839 1479.693120666539
2299.1882380388597 1325.5163451590613
2299.777540748455 1347.2817482819619
2300.3667010707904 1368.990207358876
2300.9557190380256 1344.1227635888292
2301.544594682302 1571.1887617430443
2302.1333280357503 1523.8400536459844
2302.721919130485 1476.467552863804
2303.3103679986198 1673.5309891642257
2303.898674672242 1534.7226757849553
2304.486839183437 1394.2743674032176
2305.0748615642697 1253.7437470122682
2305.6627418468015 1209.870075716865
2306.2504800630704 978.6033491600141
2306.8380762451143 1351.6781838056258
2307.425530424949 1413.9477413861134
2308.012842634582 1476.34920906015
2308.6000129060103 1583.506177255367
2309.187041271214 1640.5488566217336
2309.773927762164 1514.771396201712
2310.3606724108213 1388.737995968188
2310.9472752491274 1186.6227282315435
2311.5337363090184 1364.3889982775602
2312.120055622414 1248.407218554482
2312.706233221221 1091.2269516224824
2313.2922691373424 828.7784889946577
2313.8781634026564 1012.7142697145937
2314.463916049037 1197.0839320676885
2315.049527108342 1237.9878902590565
2315.6349966124235 1721.8530233014578
2316.2203245931123 1529.3507767422634
2316.8055110822315 1166.39387429935
2317.3905561115935 1098.313888381149
2317.9754597129977 1016.8418788030879
2318.560221918229 1006.3933711123085
2319.1448427590603 995.9430811391687
2319.729322267256 929.0795367410285
2320.313660474563 1096.3984233193046
2320.8978574127195 1323.269531421179
2321.481913113452 1550.8070036079125
2322.0658276084705 1172.5687594922485
2322.6496009294806 1077.325298026501
2323.233233108165 1120.6871657217048
2323.8167241762058 1164.1509990315403
2324.4000741652617 1056.68682110996
2324.983283106987 1412.5306070022011
2325.5663510330232 1584.1143101333216
2326.1492779749933 1326.5330094857825
2326.7320639645204 1348.037307836212
2327.3147090332004 1263.134039672176
2327.897213212629 1247.171135813315
2328.4795765343843 1231.0911949586198
2329.0617990300307 971.5563019948506
2329.643880731124 1533.6706174177077
2330.22582166921 1070.987875727579
2330.807621875816 986.2607942943839
2331.3892813824623 901.4824722223468
2331.9708002206517 1015.9823303492715
2332.5521784218818 1281.9195665000746
2333.133416017634 1257.7373206202533
2333.7145130393765 1223.3265674233796
2334.295469518571 1200.793964951938
2334.876285486658 1601.2074220478166
2335.456960975076 1586.7602914962615
2336.037496015242 1572.3083516024046
2336.6178906385667 1218.1529842963246
2337.198144876451 1120.2022581680803
2337.778258760278 1332.507152624085
2338.3582323214214 1358.9724231443104
2338.938065591243 1385.4650851005367
2339.517758601087 1426.605197800279
2340.0973113822965 1417.8081304286648
2340.676723966193 1246.798819750556
2341.255996384094 1267.0688977602142
2341.835128667295 1589.8498010098378
2342.4141208470883 1563.782106434886
2342.992972954751 1239.7677246671635
2343.5716850215467 1364.1167063054313
2344.1502570787306 903.8333243771834
2344.7286891575386 989.7930592775589
2345.3069812892045 1158.4243405645896
2345.885133504944 1327.2508247436579
2346.4631458359618 1262.0454778655492
2347.04101831345 1114.7814630486173
2347.6187509685915 1326.4331192723712
2348.196343832553 1189.420029616143
2348.7737969364935 1338.514926858857
2349.351110311558 1141.9841135096956
2349.9282839888765 1158.4663058922254
2350.5053179995757 914.4177802102931
2351.0822123747585 979.8720067688939
2351.658967145526 934.2443813377682
2352.2355823429643 888.5946503048635
2352.812057998144 1205.3031073856682
2353.3883941421263 1034.3320449905018
2353.9645908059647 1143.535540198532
2354.540648020693 1253.0126819164993
2355.116565817336 1088.7292945987485
2355.6923442269126 1143.7382803868506
2356.2679832804224 1198.86101263849
2356.8434830088518 1198.379122536203
2357.41884344318 1286.339037909907
2357.994064614377 1385.0486148140785
