#exp_cfg={"servo_angle": 0.0, "laser_lim": 100.0, "servo_angle_to": 18.0, "laser_wup": 0.0, "bt_dev": "EnSpectr-25AE3", "laser_wdn_max": 0.0, "frames": 10.0, "servo_used": 0, "servo_calib_use": 0, "laser_wdn_min": 0.0, "servo_pix_from": 90.0, "cooler_tout": 300.0, "servo_angle_from": 0.0, "servo_calib": "[-1.9174921013161362e-09, 3.9322238269163779e-05, -0.27385609119055809, 653.59552119713567]", "laser_autoctl": 0, "servo_pix_to": 3682.0, "laser_pw": 100.0, "cooler_on": 0, "laser_volt": 4.0, "cooler_autoctl": 0, "cooler_curr": 70.0, "cooler_startup": 10.0, "laser_fixed_pw": 0, "gain": 1.3, "offset": 2.53059635486, "servo_calib_degree": 3.0, "laser_curr": 55.0, "shutter": 8200.0, "servo_calib_step": 1.0, "laser_fixed_curr": 0, "exp": 2000.0, "ccd_volt": 4.7, "bt_addr": "00:06:66:62:5A:E3", "servo_delay": 500.0, "laser_autooff": 1}
#proc_cfg={"flat_auto_wnd": 200.0, "flat_auto_fr": 200.0, "flat_auto_shift": 5.0, "yconv": 1, "flatten": 1, "flatten_strength": 100.0, "xfrom": 300.0, "auto_max_frame": 2000.0, "auto_signal": 48000.0, "flat_auto_tol": 0.1, "autoclip": 1, "xrel_range": 0.0, "flat_auto_to": 4000.0, "intensity_adj": 1.0, "xrel": 7852.0, "rmhot": 1, "flat_auto_slit": 4.999999999999997, "auto_ini_exp": 300.0, "auto_off": 0, "xto": 2860.0, "flat_auto_ref": "", "flat_auto_rank": 1, "autobackg": 0, "xrel_adj": 0.0, "auto_black_lvl": 1, "base_wnd": 100.0, "sub_baseline": 0, "xconv": 2, "auto_max_exp": 1000.0, "auto_total_exp": 10000.0, "auto_exp": 0, "rmripple": 0, "black_lvl": 8249.7125, "shutter_clip_adj": 0.0, "auto_bckg": 0, "flat_auto_thr": 0.9, "subbackg": 1}
316.8218498245369 17539.50922474228
317.89969571804795 17298.644805921045
318.977263876126 17332.216093559742
320.05455438786703 17209.70545463079
321.1315673423287 17167.180400518955
322.2083028285215 17213.877780991097
323.2847609354267 17053.47665371178
324.3609417519747 17027.539178281724
325.43684536705587 16986.667837183624
326.5124718695279 16948.513554047997
327.58782134820103 16837.901746228446
328.66289389184385 16836.043800943513
329.7376895891921 16714.15454759149
330.8122085289342 16764.995661449422
331.88645079971866 16734.149443371924
332.9604164901575 16617.389542028413
334.03410568881554 16626.415398611913
335.1075184842266 16686.772290873363
336.18065496487543 16524.576805499797
337.2535152192122 16521.842094912543
338.32609933564163 16501.227191774346
339.39840740253203 16469.542852347597
340.4704395082099 16420.58389054323
341.5421957409617 16275.074812140287
342.6136761890357 16337.645756082435
343.6848809406365 16334.888407940865
344.75581008392874 16208.59071371335
345.82646370703696 16192.08114839338
346.8968418980512 16172.962216824177
347.96694474501055 16198.015927337812
349.0367723359268 16158.495452393914
350.106324758759 16118.655737235153
351.1756021014353 15951.360230395494
352.2446044518383 15962.244309570142
353.31333189781435 16109.27319134086
354.38178452716966 15986.979248715026
355.449962427665 15966.255563621186
356.51786568702846 15942.19991716154
357.58549439294256 15994.350316843897
358.6528486330535 15988.310331818726
359.71992849496564 15941.264120027126
360.7867340662433 15935.615307890064
361.8532654344144 15920.077437662441
362.9195226869597 15955.206332354865
363.9855059113288 15861.766264230604
365.05121519492604 15836.930207793126
366.11665062511565 15900.588927068093
367.1818122892273 15858.037911988034
368.2467002745434 15857.246628047791
369.31131466831175 15811.525927581612
370.375655557742 15879.213184694032
371.4397230299983 15852.341353593982
372.5035171722102 15806.044093099481
373.5670380714637 15718.140602302654
374.6302858148101 15866.53046257906
375.6932604892554 15859.463477013172
376.7559621817709 15828.154616284775
377.81839097928605 15748.19371387165
378.8805469686886 15767.800384657836
379.94243023683157 15718.802561701217
381.0040408705263 15701.940912469325
382.0653789565458 15585.417000754562
383.1264445816196 15691.379565734373
384.1872378324406 15574.620442677046
385.2477587956637 15591.041476560029
386.3080075579037 15455.28294774307
387.3679842057336 15381.217583183961
388.4276888256918 15450.325057321985
389.48712150426945 15495.193898216045
390.54628232792857 15424.136063020565
391.6051713830857 15345.482644015874
392.66378875611736 15339.318251996927
393.7221345333637 15301.592159751634
394.7802088011249 15252.921540784504
395.838011645661 15261.757690401002
396.89554315319765 15213.713962762544
397.9528034099112 15071.021531777626
399.00979250194723 15001.308388674064
400.06651051541485 15046.320804823768
401.1229575363741 14918.134862004172
402.17913365085224 14914.7599499998
403.23503894483656 14993.20551663551
404.2906735042761 14813.810551514607
405.3460374150818 14733.779259543782
406.401130763119 14808.596511706835
407.455953634224 14780.568488445095
408.5105061141876 14705.62940575412
409.56478828876243 14609.746827038243
410.6188002436629 14585.691457850417
411.6725420645689 14573.553081059106
412.72601383711117 14589.434625848251
413.77921564689314 14568.481513932766
414.8321475794728 14480.443617906809
415.88480972036814 14442.427963562135
416.93720215506437 14431.132403165693
417.9893249690049 14382.813630213606
419.04117824759123 14308.924510340057
420.09276207619223 14216.647193983565
421.144076540133 14211.178510613187
422.1951217247042 14238.756122276274
423.24589771515275 14223.19717282196
424.2964045966928 14140.260847728428
425.34664245449494 14161.433049402123
426.3966113736933 14158.915819067639
427.4463114393875 14068.21944558795
428.49574273662984 14056.578910579712
429.5449053504417 13964.430222745917
430.5937993658026 13962.786209070857
431.6424248676558 13885.569190849372
432.6907819409007 13962.24732028676
433.73887067040596 13915.51343514273
434.7866911409965 13910.96841328174
435.8342434374608 13916.224373480374
436.88152764455117 13803.647237366877
437.9285438469724 13805.367842441623
438.9752921294057 13766.019680533136
440.02177257648145 13787.042565787891
441.06798527279716 13612.945371733676
442.1139303029122 13730.71458295346
443.1596077513459 13737.335340478527
444.2050177025794 13804.619609817786
445.25016024105753 13679.459696548529
446.2950354511886 13681.93874429273
447.33964341733736 13651.055283180282
448.383984223834 13594.129703080436
449.4280579549686 13477.675587725058
450.471864694995 13590.366254975623
451.5154045281306 13500.4379510818
452.5586775385509 13551.960744740372
453.60168381039693 13463.783827470575
454.64442342776783 13531.259362970988
455.6868964747264 13450.650517402693
456.7291030353008 13473.847287513965
457.77104319347563 13501.27440627218
458.8127170332027 13373.256084734454
459.854124638392 13426.080055359073
460.895266092919 13555.285447189468
461.93614148061897 13516.426638846897
462.97675088529104 13491.561923827054
464.01709439069236 13481.404492176789
465.0571720805492 13373.149965256187
466.0969840385442 13406.218519906066
467.1365303483253 13505.323272937962
468.17581109350067 13467.358661950526
469.2148263576437 13365.582557198673
470.2535762242878 13392.497511886444
471.29206077693016 13443.369262676988
472.33028009902773 13531.496267541163
473.3682342740012 13493.522079210778
474.40592338523857 13543.795141721213
475.4433475160804 13495.997206836575
476.4805067498364 13554.817541446977
477.51740116978 13510.362827718549
478.5540308591426 13606.676793252374
479.59039590112116 13745.604772966817
480.6264963788726 13727.693488182238
481.6623323755193 13876.979832201314
482.6979039741436 13847.039151811501
483.7332112577915 14032.16818917853
484.76825430947247 14248.905638511022
485.80303321215797 14292.393653917625
486.837548048783 14369.997109447222
487.8717989022425 14551.778374307387
488.90578585539697 14535.731828517328
489.9395089910686 14803.088932798226
490.97296839203955 14588.682210572379
492.00616414106116 14639.743024714542
493.0390963208429 14603.89399022346
494.0717650140559 14582.010282566844
495.10417030333883 14434.692907070095
496.1363122712901 14355.875694507786
497.16819100046814 14152.655378578818
498.1998065734024 14054.389026129338
499.2311590725767 13934.787728067746
500.26224858044407 13842.294119879898
501.2930751794156 13659.468557350328
502.3236389518679 13567.994624502884
503.35393998014115 13389.904364743177
504.38397834653733 13318.889835191596
505.4137541333221 13221.560687931167
506.4432674227228 13121.732562325647
507.4725182969323 13038.820321697754
508.5015068381035 13125.699594427924
509.53023312835467 13056.382620197077
510.55869724976765 12952.781158316033
511.58689928438434 12872.640459294395
512.6148393142121 12782.004957570645
513.6425174212218 12889.4315539516
514.6699336873462 12847.568839005668
515.6970881944835 12910.003736373896
516.7239810244901 12717.455641303673
517.7506122591931 12771.81882259699
518.7769819803761 12730.603336998076
519.8030902697901 12741.093225210987
520.8289372091476 12757.809453639937
521.8545228801249 12784.572869568688
522.8798473643619 12663.626232478337
523.9049107434621 12692.062223305464
524.9297130989908 12775.261581430952
525.9542545124805 12631.997978214305
526.9785350654201 12578.162887971226
528.0025548392696 12692.955472802318
529.0263139154504 12509.495433953083
530.0498123753423 12652.9823766738
531.073050300296 12519.85700103863
532.0960277716204 12474.335654818638
533.1187448705896 12506.89546823432
534.1412016784416 12399.93041276726
535.1633982763833 12317.231015202682
536.1853347455726 12387.392545986193
537.2070111671401 12382.785603322718
538.2284276221817 12268.570221927355
539.2495841917516 12262.750378049157
540.2704809568677 12103.905598202455
541.2911179985167 12233.709675293288
542.3114953976419 12050.590328722345
543.3316132351592 12046.079158264602
544.3514715919409 11966.889032232504
545.3710705488247 12049.175122061783
546.3904101866156 11946.646258701647
547.4094905860784 12004.830549617238
548.4283118279418 11975.413841798923
549.4468739929034 11937.879564163144
550.4651771616191 11916.81043992555
551.4832214147063 11904.86396656997
552.501006832761 11959.093742677136
553.5185334963226 11791.033362447466
554.5358014859103 11904.528369710311
555.5528108820035 11866.904110630747
556.5695617650363 11911.37313058304
557.5860542154242 11941.46257478656
558.6022883135283 11842.345100081508
559.6182641396881 11787.24984542328
560.6339817741991 11840.994228005036
561.6494412973225 11874.487105423992
562.6646427892883 11927.699123955674
563.6795863302796 11718.029323142095
564.694272000459 11817.971294659463
565.7086998799423 11859.871931877804
566.7228700488104 11799.659081111593
567.7367825871115 11832.906242121666
568.7504375748576 11704.565905023208
569.7638350920224 11765.407319287506
570.7769752185486 11712.880823135018
571.7898580343353 11727.399314468637
572.802483619258 11608.991484990187
573.8148520531431 11748.996944623836
574.8269634157932 11711.006415205698
575.8388177869692 11762.878415082912
576.8504152463938 11740.76847250109
577.8617558737587 11849.12277585202
578.8728397487175 11712.658962050522
579.883666950891 11817.317498392713
580.8942375598654 11923.329680624574
581.9045516551851 11997.703405781664
582.9146093163617 12103.188242326738
583.924410622878 12097.650108558993
584.9339556541727 12102.495251779541
585.9432444896538 12169.461935021305
586.9522772086875 12085.120994938286
587.9610538906127 12195.03052042873
588.9695746147318 12057.308341822802
589.9778394603054 12167.299377771742
590.985848506567 11980.824297247276
591.9936018327098 11905.508725992362
593.0010995178891 11745.200356945597
594.0083416412344 11839.228295073171
595.0153282818283 11566.102678093604
596.0220595187293 11599.728235662802
597.0285354309508 11477.576460191929
598.0347560974806 11469.614310828954
599.0407215972609 11491.7597986406
600.0464320092051 11400.217310566146
601.0518874121954 11359.975068478565
602.0570878850685 11313.745019762806
603.062033506636 11337.215791937622
604.0667243556636 11288.334201838165
605.0711605108936 11185.125783113313
606.0753420510264 11387.874495996435
607.0792690547278 11324.544295731832
608.082941600629 11175.550759366331
609.0863597673306 11287.619774403993
610.0895236333909 11339.612645956671
611.0924332773357 11443.249524927076
612.0950887776617 11414.39322083275
613.0974902128219 11481.29895431468
614.0996376612384 11525.189467517337
615.1015312013005 11666.370579163786
616.1031709113595 11774.099621776691
617.1045568697336 11746.53010795713
618.1056891547069 11906.058744717071
619.1065678445229 12065.741696925465
620.1071930173985 12245.655747592853
621.1075647515099 12297.929425190301
622.1076831250048 12425.384661104039
623.1075482159849 12492.894999518261
624.1071601025305 12646.454109685803
625.1065188626781 12673.61074019016
626.105624574433 12984.202547098674
627.1044773157682 13026.587612966605
628.1030771646128 13099.79770659998
629.1014241988742 13319.66240296213
630.0995184964158 13345.86501198948
631.0973601350688 13471.004524178064
632.0949491926294 13623.762254175042
633.0922857468631 13375.83387922497
634.089369875499 13571.362767682082
635.0862016562278 13562.55447121418
636.0827811667077 13331.251987195594
637.0791084845641 13381.423959533462
638.0751836873878 13218.184169746393
639.0710068527369 13188.363270196269
640.0665780581294 12987.911483442807
641.0618973810506 12853.843301934532
642.0569648989604 12834.412805630102
643.0517806892676 12588.574484826693
644.0463448293649 12511.999608618546
645.040657396592 12268.354406998184
646.0347184682723 12160.971660936613
647.0285281216875 11950.29782296514
648.0220864340772 11905.327176872193
649.0153934826558 11769.224665628888
650.0084493446047 11623.77778261562
651.0012540970674 11490.240519729601
651.9938078171526 11337.451250813314
652.9861105819346 11313.950965141757
653.9781624684565 11273.363894078688
654.9699635537254 11091.659899213755
655.9615139147136 11165.747640735313
656.9528136283589 10903.312309742749
657.9438627715699 10991.121251594306
658.9346614212154 10864.023824305616
659.925209654135 10714.888369550568
660.9155075471263 10771.06567366283
661.9055551769616 10682.529887166867
662.895352620375 10742.719548034844
663.8848999540678 10551.869887642013
664.8741972547068 10452.278258883627
665.863244598926 10465.454315735487
666.8520420633213 10493.988130703015
667.8405897244611 10348.493430427969
668.8288876588758 10323.32038693563
669.8169359430613 10385.249390087023
670.8047346534822 10334.325030266627
671.7922838665672 10290.020302706162
672.7795836587156 10304.448120445102
673.766634106285 10394.673981548534
674.7534352856092 10223.665631147189
675.7399872729766 10205.231607501704
676.7262901446538 10276.546433183936
677.712343976862 10180.609411634037
678.6981488457986 10242.819240781662
679.6837048276229 10179.436591636997
680.6690119984596 10161.289639091072
681.6540704344043 10232.103967849367
682.6388802115107 10114.6128660986
683.6234414058108 10178.582245457535
684.6077540932874 10134.992098082821
685.591818349907 10192.372644286956
686.575634251587 10166.702196769078
687.5592018742263 10007.178197036363
688.5425212936734 10022.939614175377
689.5255925857564 10171.561313938106
690.5084158262707 10059.734169688756
691.4909910909646 9954.987323054738
692.4733184555644 9960.897805664918
693.4553979957618 9937.542232018097
694.4372297872123 9946.2502881863
695.4188139055404 9919.563672432527
696.4001504263324 9836.114501511322
697.3812394251509 9946.579017813352
698.3620809775111 9851.853693478457
699.3426751589104 9833.441206867134
700.3230220448004 9818.538389090976
701.3031217106054 9848.286239894896
702.2829742317172 9998.873867510973
703.2625796834873 9730.970528346252
704.2419381412474 9838.598615112405
705.22104968028 9890.093026458131
706.1999143758458 9798.009689557075
707.178532303169 9835.921325503576
708.1569035374378 9958.04133783044
709.1350281538107 9980.552745109195
710.1129062274158 10004.996965285518
711.0905378333373 10187.339351337967
712.0679230466376 10262.354710042464
713.0450619423427 10416.499580774798
714.0219545954424 10641.30280511581
714.9986010808989 10647.788292979007
715.9750014736292 10871.065617352171
716.9511558485392 11185.884841868437
717.9270642804786 11392.919610502637
718.9027268442787 11493.941677473875
719.8781436147328 11593.654320604395
720.8533146666014 11699.272192462571
721.828240074612 11715.770758824889
722.8029199134635 11744.652490208833
723.7773542578125 11608.859266230389
724.751543182294 11500.684159502549
725.7254867615029 11417.311259198008
726.6991850700015 11080.170536623384
727.6726381823228 11114.737627076898
728.6458461729599 10967.395267837444
729.6188091163858 10751.967292237485
730.5915270870246 10841.603269122521
731.5640001592856 10657.551484807034
732.536228407529 10684.046904588196
733.5082119060917 10742.656701404012
734.4799507292755 10651.373759849483
735.4514449513481 10679.173717392652
736.4226946465496 10795.43932479987
737.3936998890786 10781.94741849709
738.3644607531078 10559.305292339577
739.3349773127793 10537.582793679501
740.3052496421951 10552.750951105138
741.27527781543 10353.504849773451
742.2450619065221 10212.956443399264
743.2146019894826 10122.672374658327
744.183898138288 10006.259908223425
745.1529504268801 9903.269873338191
746.1217589291682 9626.516970833654
747.0903237190341 9562.105111646875
748.058644870318 9490.091796932527
749.0267224568397 9406.366452421998
749.994556552374 9252.692393669326
750.9621472306771 9318.754078799233
751.9294945654583 9176.105832853786
752.8965986304011 9207.627248502304
753.8634594991636 9063.849014921037
754.8300772453586 9134.839122218964
755.7964519425768 9138.899996571421
756.762583664371 9164.59431402214
757.7284724842611 9095.351736229559
758.6941184757416 9086.00678440001
759.6595217122667 9011.550616439115
760.6246822672638 9080.469804380471
761.5896002141235 8966.615281585047
762.5542756262093 9031.922369649616
763.5187085768503 9025.35239421893
764.4828991393406 8984.699413699474
765.4468473869474 8968.671034226743
766.4105533929032 9016.70744496091
767.3740172304078 8898.617952770062
768.3372389726283 8911.710255156922
769.3002186926988 8866.211987644918
770.2629564637282 8749.98687649611
771.2254523587872 8759.5877064988
772.1877064509154 8718.804471465974
773.1497188131179 8650.863421485015
774.1114895183728 8648.550652480184
775.0730186396268 8560.752395547352
776.0343062497905 8600.675874932658
776.9953524217381 8554.437541675048
777.9561572283274 8624.776085095653
778.9167207423689 8566.85446668707
779.8770430366476 8473.857138648094
780.8371241839159 8514.301152824988
781.7969642568951 8466.427083858845
782.7565633282757 8651.956029247303
783.7159214707099 8472.167214519033
784.6750387568281 8462.750618807586
785.6339152592227 8419.293228496257
786.5925510504512 8429.496205367674
787.5509462030477 8461.339109783377
788.5091007895098 8430.419524087585
789.4670148823006 8427.59054280248
790.4246885538596 8434.648121367665
791.3821218765861 8371.93692961951
792.3393149228505 8356.161861010169
793.2962677649975 8452.709907720575
794.2529804753303 8462.434001414918
795.20945312613 8487.963451511077
796.1656857896378 8404.637877191268
797.1216785380675 8412.018138790272
798.0774314435985 8469.480741042957
799.0329445783846 8601.873902965272
799.9882180145414 8609.325940681305
800.9432518241574 8568.272968368112
801.89804607929 8595.429633157017
802.852600851962 8707.006980401962
803.8069162141637 8683.030339866384
804.760992237856 8689.170016370726
805.714828994971 8751.85183089632
806.6684265574077 8818.101961636876
807.6217849970271 8705.253806825027
808.574904385674 8710.665870804753
809.527784795142 8808.833766970889
810.4804262972102 8830.803933151965
811.4328289636178 8656.623959035016
812.3849928660748 8561.624902436824
813.3369180762638 8563.752253886678
814.2886046658241 8527.92200950925
815.2400527063783 8451.903137033698
816.1912622695108 8403.390068073153
817.1422334267718 8374.184430232533
818.0929662496856 8282.955395271676
819.0434608097457 8079.9326471762615
819.9937171784059 8203.257542738678
820.9437354271013 8037.264657000325
821.8935156272255 8170.516690984249
822.8430578501484 8003.985173856291
823.7923621672016 7887.899210056976
824.7414286496896 7983.440471356002
825.6902573688876 7965.931933139877
826.6388483960363 7897.757777569526
827.5872018023492 7776.121387109108
828.5353176590033 7902.384952216593
829.4831960371503 7827.767043251506
830.4308370079016 7818.067550800563
831.3782406423525 7834.414100412131
832.3254070115545 7816.444243278366
833.2723361865319 7713.734040663255
834.2190282382799 7650.128030908963
835.1654832377644 7767.929484216217
836.1117012559116 7695.638865151396
837.0576823636256 7761.990157466695
838.003426631778 7600.981511047239
838.9489341312074 7662.977578963939
839.8942049327197 7726.450339823107
840.8392391070975 7713.470868632989
841.7840367250865 7640.042307397611
842.7285978573982 7604.260404676577
843.672922574724 7646.397375886656
844.6170109477152 7703.713602256571
845.560863046996 7639.35513347785
846.5044789431595 7542.429954452933
847.4478587067697 7608.970342494062
848.3910024083561 7704.545118869163
849.333910118421 7649.747037821455
850.2765819074339 7522.368042353293
851.2190178458332 7659.42255599886
852.161218004032 7602.332493188081
853.1031824524016 7602.430507602667
854.0449112612987 7587.846846776452
854.9864045010327 7603.5885706708605
855.9276622418947 7527.192034410963
856.8686845541379 7593.554943944578
857.8094715079915 7562.446145849409
858.7500231736467 7664.217390325173
859.690339621271 7604.918751546718
860.6304209209939 7564.816083857084
861.5702671429244 7519.0185151675105
862.5098783571284 7568.944969665853
863.4492546336569 7617.640104765633
864.3883960425155 7603.4264628507135
865.3273026536863 7567.824010951847
866.2659745371238 7558.96446719829
867.2044117627465 7759.004403556384
868.1426144004472 7617.58517620589
869.0805825200823 7631.930182212776
870.0183161914847 7737.970402138975
870.9558154844526 7703.7403775648445
871.8930804687552 7650.476147194449
872.8301112141307 7645.068104266864
873.7669077902865 7788.882744773904
874.7034702669062 7906.702721812119
875.6397987136315 7772.702951199897
876.5758932000863 7878.510497446972
877.5117537958522 7871.971347877089
878.4473805704911 7859.113490069227
879.3827735935283 7851.541505691193
880.3179329344603 7938.3638466674165
881.2528586627541 8054.488493980405
882.1875508478479 8039.851592665645
883.1220095591489 7935.717289415217
884.0562348660296 7934.74502801752
884.9902268378391 8035.553450079552
885.9239855438955 7922.365375575273
886.8575110534839 7871.756848914307
887.7908034358588 7931.0479605629935
888.7238627602474 7877.4272025281025
889.6566890958475 7922.794827650088
890.5892825118208 7730.7759107229085
891.5216430773125 7798.214062742035
892.4537708614189 7757.582454838301
893.3856659332196 7699.001106246222
894.3173283617652 7577.7857188756
895.2487582160684 7646.137135145509
896.179955565116 7599.476364402073
897.110920477864 7523.171511816021
898.0416530232451 7476.681692645156
898.9721532701478 7455.495894294114
899.9024212874428 7509.72529584139
900.8324571439662 7271.5069547847625
901.7622609085302 7329.900561866978
902.6918326499072 7309.790003330694
903.6211724368477 7341.738857182134
904.5502803380696 7381.708585350175
905.4791564222614 7410.396978090221
906.4078007580792 7196.089780733858
907.3362134141571 7249.7667448241455
908.2643944590909 7420.088629070056
909.1923439614493 7192.489156266471
910.1200619897754 7205.203591620593
911.0475486125779 7378.749260788875
911.9748038983344 7277.569504472286
912.9018279155007 7168.927468279442
913.8286207324982 7160.521094903398
914.7551824177117 7296.9202777552255
915.6815130395116 7234.297846635587
916.6076126662283 7098.477272258458
917.533481366163 7052.3742511133605
918.4591192075914 7106.30854322786
919.3845262587565 7169.478152901947
920.3097025878706 7016.8783825464325
921.2346482631237 7011.905580460647
922.1593633526682 7093.142268651039
923.0838479246304 7132.509615676257
924.0081020471061 7156.106940050522
924.9321257881656 7006.2704871484475
925.8559192158464 6933.571847258827
926.7794823981512 7031.872125169699
927.7028154030686 6925.964299952696
928.6259182985414 6930.160211608099
929.5487911524906 7075.717079890191
930.4714340328119 7023.48256256148
931.3938470073608 6807.136575705714
932.3160301439748 6929.81132783499
933.2379835104548 6913.7850667823295
934.1597071745709 6995.278398802469
935.0812012040769 6964.143603432602
936.002465666681 7008.18965438189
936.9235006300696 6998.655456618467
937.8443061619055 6968.569003514215
938.7648823298077 6771.290621602374
939.6852292013809 6794.686628681981
940.6053468441951 6876.143114798625
941.5252353257874 6929.652257430673
942.4448947136698 6914.876537733768
943.364325075323 6835.335185772636
944.2835264782043 6936.466204038273
945.2024989897309 6907.112399050439
946.1212426773054 6836.889900155222
947.0397576082851 6925.174470641579
947.9580438500125 6986.368673466817
948.8761014697939 7047.980992937497
949.7939305349064 6932.300531281874
950.7115311125999 6910.693463572847
951.6289032700952 7009.528409823254
952.5460470745875 7013.152601990117
953.4629625932339 6905.755349316918
954.3796498931715 6961.8395734326505
955.2961090415029 6951.3101711683175
956.2123401053068 6958.574088202974
957.1283431516276 6922.259723429526
958.0441182474842 6862.934179400535
958.9596654598663 7002.991159428568
959.8749848557309 6931.0834348056
960.7900765020167 6831.207986746466
961.7049404656209 6889.936289283925
962.6195768134185 6906.181916170632
963.5339856122537 6893.725083790881
964.4481669289453 6846.96016752423
965.3621208302793 6793.502461979876
966.2758473830145 6758.63833178842
967.1893466538822 6836.171420061883
968.1026187095813 6753.330129201461
969.0156636167867 6746.05568067158
969.9284814421426 6801.966999476259
970.8410722522622 6720.567545916228
971.753436113735 6662.350819283509
972.6655730931161 6672.443824369044
973.5774832569368 6745.738644915534
974.4891666716958 6714.062971273214
975.4006234038698 6638.725483667404
976.3118535198955 6613.715394420549
977.2228570861935 6755.695361714073
978.1336341691494 6688.0942536477505
979.0441848351202 6535.252718306207
979.9545091504333 6654.417047063488
980.864607181391 6650.587830618359
981.7744789942699 6638.697554857425
982.6841246553086 6541.3994939272425
983.5935442307236 6599.501264067227
984.5027377867027 6572.151844009641
985.4117053894024 6586.368585030398
986.3204471049557 6544.57114696674
987.2289629994648 6625.939862560161
988.1372531390007 6719.559020651874
989.0453175896091 6650.138039373019
989.9531564173067 6624.300118901049
990.860769688079 6511.138333813711
991.7681574678918 6623.397937288796
992.6753198226706 6654.426363715759
993.582256818323 6601.824424746992
994.4889685207218 6543.864981932478
995.3954549957143 6787.20158296321
996.301716309119 6652.734269418377
997.2077525267232 6615.999667836704
998.1135637142943 6623.020276554741
999.0191499375615 6780.3765253243455
999.924511262232 6768.918920270055
1000.8296477539861 6739.950118615081
1001.7345594784656 6692.406204120394
1002.6392465012996 6701.583402408751
1003.5437088880753 6816.494381710941
1004.4479467043584 6748.631866747921
1005.3519600156869 6626.155527378866
1006.2557488875718 6777.691520717277
1007.1593133854858 6865.996279247078
1008.0626535748888 6672.839118063215
1008.9657695212009 6614.973096188747
1009.8686612898182 6835.798325015424
1010.7713289461135 6810.990571414996
1011.6737725554212 6665.098820793888
1012.5759921830577 6687.859489400376
1013.4779878943027 6760.976777520182
1014.379759754418 6719.960524528967
1015.2813078286254 6625.984387255349
1016.18263218213 6558.443151345606
1017.0837328801026 6615.514923318163
1017.9846099876886 6673.898332216295
1018.8852635700023 6541.744081919898
1019.7856936921362 6428.708814952262
1020.6859004191447 6646.841527211895
1021.5858838160675 6503.777380635539
1022.4856439479063 6403.388534859846
1023.3851808796389 6437.4349849167065
1024.2844946762143 6462.908315155792
1025.183585402554 6506.042147479369
1026.082453123554 6322.082837917374
1026.9810979040776 6354.035298090855
1027.8795198089647 6339.842809400356
1028.777718903024 6369.102454631177
1029.6756952510368 6264.915518106539
1030.5734489177648 6263.44358947601
1031.4709799679313 6267.521525919068
1032.3682884662358 6372.607200888322
1033.2653744773506 6166.929379287333
1034.1622380659192 6194.135166399257
1035.058879296559 6354.481015244133
1035.9552982338591 6370.589708514437
1036.8514949423825 6312.356818025698
1037.7474694866614 6372.139852325406
1038.6432219312028 6390.950696575551
1039.5387523404825 6525.388314913173
1040.4340607789582 6485.6860503965
1041.3291473110476 6531.449924192132
1042.2240120011465 6753.627057053636
1043.1186549136273 6828.674040359654
1044.0130761128294 6799.963374687499
1044.9072756630649 6868.28653832454
1045.8012536286205 7016.188473947067
1046.6950100737577 7138.3807572315445
1047.588545062701 7263.126254608474
1048.481858659663 7265.5285126768895
1049.3749509288118 7392.631935143303
1050.2678219343034 7361.116674663875
1051.1604717402515 7449.7311483674175
1052.0529004107575 7353.963149999389
1052.9451080098825 7431.705497783443
1053.8370946016694 7435.306488103897
1054.7288602501267 7363.042574060082
1055.6204050192446 7334.307935944191
1056.511728972977 7339.15980573992
1057.402832175254 7104.834964136056
1058.2937146899785 7019.025264174486
1059.1843765810263 6932.357901714381
1060.0748179122456 6959.922604461126
1060.9650387474576 6846.725014944558
1061.855039150456 6852.2931131933165
1062.7448191850071 6715.120483704469
1063.6343789148505 6632.643862957162
1064.5237184037014 6718.252894971802
1065.412837715241 6561.717036502547
1066.3017369131267 6478.251719229787
1067.190416060992 6425.315096797553
1068.0788752224398 6351.424520598016
1068.9671144610438 6354.350526192981
1069.8551338403558 6380.433847107635
1070.7429334239023 6349.984349648716
1071.6305132751695 6261.947941433824
1072.517873457633 6289.035097934657
1073.4050140347335 6249.339415346937
1074.2919350698776 6222.3755732384325
1075.1786366264623 6218.574219832471
1076.0651187678395 6166.4024646214475
1076.95138155735 6126.390882364222
1077.8374250582929 6180.23768928461
1078.7232493339507 6199.654587389143
1079.608854447577 6131.656548987053
1080.4942404623907 6124.194647069919
1081.3794074415982 6174.69942980725
1082.2643554483657 6102.171627021811
1083.149084545841 6096.908097956274
1084.033594797138 6106.615752604833
1084.9178862653516 6090.585559100426
1085.8019590135427 6203.295066155951
1086.6858131047484 6014.87469338402
1087.5694486019802 6134.609414886787
1088.4528655682225 6130.824939129097
1089.3360640664287 6279.622558283936
1090.2190441595321 6197.517588458624
1091.1018059104317 6207.192106084824
1091.98434938201 6217.61395121067
1092.866674637111 6339.857986985569
1093.748781738559 6191.712490642035
1094.6306707491512 6136.9743327504775
1095.5123417316554 6194.450447881324
1096.3937947488157 6138.6653587534565
1097.2750298633455 6170.943047373375
1098.156047137938 6064.903131007062
1099.0368466352556 6166.163161707397
1099.9174284179317 6157.024021149833
1100.7977925485757 5962.025148508903
1101.6779390897755 6039.243270258913
1102.5578681040806 6037.122874037533
1103.4375796540226 6035.340595975122
1104.3170738021054 5944.559587167637
1105.1963506108077 5809.9754009638045
1106.0754101425773 5794.878423232364
1106.9542524598382 5896.09055943043
1107.8328776249855 5756.81943500732
1108.7112857003904 5773.566666620869
1109.5894767483987 5792.770079039917
1110.4674508313292 5855.841576068589
1111.3452080114657 5695.91169372638
1112.2227483510815 5743.942938319544
1113.1000719124077 5775.735027845611
1113.9771787576592 5834.418401542721
1114.854068949022 5827.5422472682185
1115.7307425486542 5800.938489738984
1116.6071996186893 5912.106093981827
1117.483440221229 6097.018312232455
1118.3594644183577 5975.7110222576375
1119.235272272128 5916.323348132434
1120.1108638445658 6046.5832634790295
1120.9862391976712 6134.79622381192
1121.8613983934229 6139.124807339966
1122.7363414937627 6199.855362182365
1123.6110685606182 6168.944522617774
1124.485579655884 6386.585729699301
1125.359874841426 6342.261450864722
1126.2339541790916 6380.098294752961
1127.1078177306936 6512.302127856768
1127.9814655580267 6506.890302083319
1128.854897722851 6524.624376892332
1129.7281142869106 6417.498167539557
1130.6011153119125 6613.052346503212
1131.473900859548 6640.9040419203175
1132.3464709914697 6504.784765322431
1133.2188257693178 6496.670924691475
1134.0909652546961 6446.252017794268
1134.96288950919 6404.132425860287
1135.8345985943506 6514.133793015216
1136.7060925717087 6306.793454903085
1137.57737150277 6371.147275761784
1138.4484354490069 6347.809510088351
1139.3192844718778 6301.091473443864
1140.1899186327992 6074.659528676784
1141.060337993178 6243.705292866322
1141.930542614382 6150.4078243400145
1142.8005325577597 6001.088191439366
1143.670307884635 5920.475711299614
1144.5398686563003 6022.197112091844
1145.409214934025 5905.625531348439
1146.2783467790541 5797.787581289174
1147.1472642526023 5787.643945824539
1148.0159674158622 5818.963520099537
1148.8844563300026 5599.142575687447
1149.7527310561618 5602.2068149978895
1150.6207916554504 5610.415517583813
1151.4886381889592 5517.899595305406
1152.3562707177498 5618.959755609709
1153.2236893028585 5537.468749718412
1154.090894005296 5469.999159344271
1154.9578848860474 5444.690635025031
1155.8246620060709 5455.7359524913645
1156.6912254262988 5396.179528460476
1157.5575752076438 5345.913369952554
1158.42371141098 5444.175894001375
1159.2896340971656 5423.49383403269
1160.1553433270346 5296.53176906034
1161.0208391613887 5436.093759247483
1161.8861216610057 5286.106352759298
1162.75119088664 5411.169357629429
1163.6160468990201 5327.396403691259
1164.4806897588442 5251.882451851041
1165.3451195267917 5352.388339747571
1166.2093362635114 5314.7975101894
1167.0733400296285 5253.553622457687
1167.9371308857444 5248.342410955244
1168.8007088924278 5207.692678591086
1169.6640741102328 5236.39778244254
1170.5272265996773 5194.278070141056
1171.390166421259 5101.025410954608
1172.252893635452 5232.163979806641
1173.1154083026995 5369.599658015038
1173.977710483421 5242.277057026248
1174.8398002380145 5175.133614176206
1175.7016776268483 5199.928661725887
1176.563342710264 5206.445694138332
1177.4247955485826 5178.465537339713
1178.2860362020947 5241.151448879367
1179.147064731069 5142.230559547335
1180.0078811957483 5169.870758613825
1180.8684856563486 5102.866606773971
1181.7288781730604 5251.626970840547
1182.589058806052 5281.484076593531
1183.4490276154593 5355.437652626595
1184.3087846614017 5114.627339051034
1185.1683300039676 5310.184271982984
1186.027663703222 5385.771140581548
1186.8867858192025 5298.936338102437
1187.7456964119228 5359.063446841813
1188.6043955413716 5297.070756992487
1189.4628832675116 5460.707146877318
1190.3211596502842 5391.838216779063
1191.179224749596 5432.017333886741
1192.0370786253388 5340.970082478594
1192.8947213373758 5588.578864466871
1193.7521529455407 5640.172081353685
1194.6093735096438 5403.026317933016
1195.466383089477 5498.207395307936
1196.3231817447977 5467.604043157727
1197.1797695353398 5627.872984077627
1198.0361465208189 5498.235232661458
1198.8923127609214 5500.591836665585
1199.7482683153048 5613.014120973016
1200.6040132436028 5715.213251692537
1201.459547605431 5534.618266523381
1202.3148714603722 5545.902850883596
1203.1699848679855 5576.903968925664
1204.0248878878065 5672.083337933657
1204.8795805793507 5453.812403082619
1205.7340630020935 5534.36437653313
1206.5883352155033 5538.3177129816595
1207.4423972790064 5532.40646412699
1208.2962492520237 5372.493801702303
1209.1498911939307 5447.9615055346785
1210.0033231640937 5428.118972597362
1210.8565452218427 5364.36263567177
1211.7095574264913 5240.814717208137
1212.5623598373222 5228.848883419288
1213.4149525135963 5251.24951539478
1214.2673355145507 5273.138408232169
1215.1195088993936 5062.262139333971
1215.9714727273113 5111.567918087095
1216.8232270574663 5234.497831660819
1217.6747719489904 5005.616926286045
1218.5261074609934 4993.53565839711
1219.3772336525653 5140.70783735864
1220.2281505827668 5262.349298572735
1221.0788583106296 5188.384798106593
1221.9293568951707 4991.007634066342
1222.7796463953746 4932.267416516426
1223.629726870202 5089.273465977825
1224.4795983785934 5031.558119582108
1225.3292609794553 5008.911782669528
1226.1787147316809 4926.809455075051
1227.0279596941327 4965.496774130842
1227.8769959256424 5082.673482575876
1228.7258234850306 4986.561390727985
1229.5744424310833 4843.048927531347
1230.422852822563 5023.714714706584
1231.2710547182105 5099.57944762019
1232.119048176739 4885.326303057468
1232.9668332568417 4819.8051517410995
1233.8144100171812 5012.326930541159
1234.6617785163999 4952.299964654399
1235.508938813111 4785.601349369806
1236.3558909659114 4899.302316138708
1237.2026350333617 4990.82697981657
1238.049171074008 5044.268539768809
1238.8954991463652 4943.37623501528
1239.741619308932 4977.327364056492
1240.587531620169 4987.70739837459
1241.4332361385277 4996.813928937528
1242.2787329224248 4916.709654125492
1243.1240220302534 4811.65398198747
1243.9691035203869 4866.458926997749
1244.813977451171 5038.302250415948
1245.6586438809263 4965.418095516429
1246.5031028679496 4750.774690723438
1247.3473544705157 5035.905989867246
1248.1913987468706 4884.486831600205
1249.0352357552383 4839.995151022214
1249.8788655538228 4903.151918489034
1250.7222882007918 4963.292374619263
1251.565503754302 5000.585537733171
1252.4085122724755 4783.1524488122595
1253.2513138134182 5009.518036416431
1254.0939084352049 4929.28304086477
1254.9362961958905 4849.979335984025
1255.7784771535007 4824.831627347455
1256.6204513660432 4970.638753217541
1257.4622188915 5062.370515028722
1258.3037797878242 4933.747482652672
1259.1451341129468 4814.647246041986
1259.9862819247755 4956.8065844587845
1260.8272232811978 4946.440587908851
1261.6679582400666 5073.148636048922
1262.5084868592203 4867.83339981359
1263.34880919647 4862.478781247978
1264.1889253095997 4889.464557690726
1265.0288352563712 4965.91099839629
1265.8685390945266 4844.265509397066
1266.7080368817751 4994.880147938349
1267.5473286758115 4995.617780952347
1268.386414534294 5014.853995213823
1269.2252945148703 4830.171566126358
1270.0639686751547 4890.435115425652
1270.9024370727402 4851.888394343319
1271.7406997651997 4882.446944938207
1272.5787568100714 4857.0585468266845
1273.4166082648808 4823.467983011724
1274.2542541871244 4872.483087133061
1275.091694634275 5026.944064752204
1275.9289296637817 4760.844118453822
1276.7659593330663 4903.319333474618
1277.6027836995308 4865.466714720689
1278.4394028205552 4970.515394543824
1279.2758167534867 4893.930534205849
1280.112025555658 4830.655507848167
1280.9480292843746 4835.618112124195
1281.7838279969128 4741.453550010575
1282.6194217505326 4721.979607186965
1283.4548106024686 4698.576856408936
1284.289994609926 4798.875837766928
1285.1249738300921 4954.509144938634
1285.959748320127 4740.608076995011
1286.7943181371702 4799.435220363013
1287.6286833383328 4811.017183978788
1288.4628439807038 4816.779293224192
1289.2968001213521 4696.143925264621
1290.1305518173194 4878.298403910573
1290.9640991256183 4864.379848558207
1291.7974421032523 4699.511721070846
1292.630580807183 4679.83851378319
1293.463515294361 4811.692138618409
1294.29624562171 4899.407132713745
1295.12877184613 4842.278425744595
1295.961094024493 4771.210254641081
1296.79321221365 4804.254353710734
1297.6251264704333 4889.782049559127
1298.4568368516466 4974.467390371264
1299.2883434140658 4924.564934452435
1300.1196462144526 4751.595575648345
1300.9507453095375 4932.265637827132
1301.7816407560313 4962.267877021658
1302.6123326106172 4935.1613170138735
1303.4428209299622 4830.359696602939
1304.2731057707024 5112.515753243
1305.1031871894502 4956.771792364158
1305.933065242798 5000.86822160024
1306.7627399873181 5003.9919972956595
1307.5922114795467 5243.598166235681
1308.4214797760123 5105.586545074015
1309.2505449332057 5081.427100324578
1310.0794070076026 5123.288061777237
1310.9080660556538 5246.874317747348
1311.736522133786 5316.264078344754
1312.5647752983987 5078.526972286489
1313.3928256058734 4946.96435865119
1314.2206731125661 5222.859473866747
1315.048317874809 5220.066038750691
1315.8757599489109 5179.98617620098
1316.7029993911547 5198.375305572196
1317.5300362578055 5292.553792419809
1318.356870605101 5212.141132685198
1319.183502489257 5198.930985911461
1320.0099319664623 5290.030477886787
1320.836159092889 5288.254555222677
1321.66218392468 5273.958952530309
1322.4880065179532 5265.8967601131335
1323.3136269288134 5337.673095666964
1324.1390452133292 5389.8849097173415
1324.9642614275563 5423.952617698783
1325.7892756275214 5318.069225411273
1326.6140878692295 5326.068669208243
1327.4386982086617 5623.141137771042
1328.2631067017755 5335.482225047693
1329.0873134045069 5309.702735217232
1329.911318372764 5250.358404412315
1330.735121662441 5360.022662891247
1331.558723329399 5222.7974868242
1332.3821234294774 5191.2479497842205
1333.2053220185007 5194.912536563995
1334.0283191522612 5106.190678092937
1334.851114886529 5131.324293839756
1335.6737092770582 5039.458529898497
1336.4961023795695 5102.26912907035
1337.3182942497697 4967.323917674403
1338.1402849433325 5017.591723676354
1338.962074515921 4821.403487987511
1339.7836630231632 4849.7358187848
1340.6050505206676 5120.605489813436
1341.426237064028 4977.9801244704895
1342.2472227088037 4882.158148195986
1343.0680075105338 4746.900438681194
1343.888591524741 4888.210081515972
1344.7089748069138 4865.593972691265
1345.5291574125276 4774.017454315221
1346.3491393970307 4628.874915369517
1347.168920815846 4819.260734417074
1347.9885017243778 4909.142419174519
1348.8078821780036 4791.724068853324
1349.6270622320844 4773.404499305977
1350.4460419419447 4797.6805572216235
1351.2648213629054 4865.177633949844
1352.0834005502438 4641.380175107821
1352.90177955923 4738.107027992626
1353.7199584451064 4714.986764457196
1354.5379372630887 4821.4988175754315
1355.355716068374 4697.232961303281
1356.1732949161305 4571.356093355828
1356.9906738615155 4713.035062637578
1357.8078529596478 4683.195338078144
1358.6248322656375 4759.965591606334
1359.441611834567 4667.382398848558
1360.2581917214866 4751.34892406446
1361.0745719814367 4627.666633545609
1361.890752669433 4618.032343316077
1362.7067338404577 4491.2554936997185
1363.5225155494845 4810.073114828845
1364.3380978514506 4807.115575592125
1365.1534808012839 4644.863161631567
1365.9686644538815 4467.379108851885
1366.783648864117 4838.153628194326
1367.5984340868417 4818.23352141361
1368.413020176893 4763.121168895666
1369.2274071890715 4588.306166678466
1370.0415951781652 4771.629048486363
1370.8555841989346 4712.592493831041
1371.6693743061223 4527.224424086882
1372.48296555444 4419.71235721306
1373.2963579985844 4718.826225598371
1374.1095516932255 4682.024888436933
1374.9225466930166 4436.194395735411
1375.7353430525782 4658.463053083646
1376.5479408265164 4578.4140337482595
1377.36034006941 4602.451712901121
1378.1725408358216 4650.600392913105
1378.9845431802805 4407.963707471286
1379.796347157304 4698.9563955803005
1380.6079528213813 4586.670724182386
1381.4193602269788 4408.895042693075
1382.230569428546 4428.657785512641
1383.0415804805016 4526.199849994958
1383.852393437246 4563.203865006536
1384.6630083531563 4548.17919248201
1385.4734252825892 4479.916514680277
1386.2836442798798 4511.506300370578
1387.0936653993322 4540.900927916885
1387.9034886952395 4448.632448583455
1388.713114221864 4561.822932484369
1389.5225420334482 4594.789834242792
1390.331772184214 4514.532073496867
1391.1408047283585 4399.087382592856
1391.9496397200564 4515.3978333071045
1392.758277213461 4538.932120085894
1393.5667172627054 4606.1364696373
1394.3749599218918 4551.793613568891
1395.1830052451114 4453.0220951379315
1395.9908532864265 4458.423782577242
1396.7985040998774 4623.275030374365
1397.6059577394808 4475.092755033193
1398.4132142592352 4414.483770822811
1399.2202737131156 4481.120182956306
1400.027136155073 4576.706755306046
1400.8338016390353 4412.108273964959
1401.6402702189134 4491.653777004261
1402.446541948586 4513.192904100736
1403.2526168819204 4488.568109997681
1404.058495072757 4362.190589693437
1404.8641765749107 4391.967878766218
1405.6696614421799 4377.320183920444
1406.4749497283356 4680.361593404719
1407.280041487129 4363.134988973436
1408.084936772295 4238.991328989277
1408.8896356375335 4480.1288199795745
1409.6941381365323 4408.184705988801
1410.498444322955 4203.061847501752
1411.3025542504402 4270.003993794415
1412.106467972606 4267.503920218418
1412.9101855430508 4335.941696213894
1413.7137070153458 4123.716399530091
1414.5170324430437 4279.715361985471
1415.320161879672 4351.147006743453
1416.1230953787435 4535.052999738851
1416.925832993742 4199.343626198796
1417.7283747781275 4116.894549787839
1418.5307207853439 4321.06080574157
1419.3328710688093 4268.830904829844
1420.134825681922 4039.9504235020586
1420.9365846780584 4145.006516734143
1421.7381481105713 4333.689190463949
1422.539516032788 4202.611491868303
1423.3406884980232 4160.40897792165
1424.1416655595604 4127.159787275187
1424.942447270665 4189.1551717722705
1425.7430336845828 4236.2027555154855
1426.5434248545298 4098.457772575712
1427.3436208337116 4206.8195510447285
1428.143621675301 4230.285821866811
1428.9434274324558 4352.340248799189
1429.7430381583108 4067.01005128781
1430.5424539059713 4284.036635653847
1431.3416747285337 4479.664571835978
1432.1407006790632 4306.741737571669
1432.9395318106053 4223.544137535149
1433.7381681761835 4201.570684726798
1434.5366098288014 4299.638422561532
1435.3348568214424 4298.912337930983
1436.1329092070573 4186.655082342029
1436.9307670385879 4181.6267867676
1437.7284303689503 4427.5262325044805
1438.5258992510335 4510.0637516833385
1439.3231737377118 4285.25112827643
1440.1202538818306 4287.996697656898
1440.9171397362225 4248.835384055814
1441.7138313536925 4294.57906300602
1442.5103287870243 4228.201662445972
1443.3066320889775 4126.862255873968
1444.1027413122956 4313.788979911505
1444.8986565096966 4181.227140523494
1445.694377733882 4209.682704152723
1446.4899050375207 3977.170543798247
1447.2852384732687 4157.096151606778
1448.0803780937622 4160.833562101951
1448.8753239516063 3989.077981084454
1449.6700760993954 4065.375193649475
1450.464634589689 4021.348073528838
1451.2589994750397 4391.968696954393
1452.0531708079689 3943.213115105637
1452.8471486409799 3890.122439440176
1453.6409330265524 4167.1719313774565
1454.4345240171442 3980.0258341585113
1455.2279216651987 3968.372077301512
1456.0211260231263 3950.936604441869
1456.8141371433194 4452.332576174279
1457.6069550781594 4170.5112580805235
1458.3995798799897 3826.8609785139756
1459.1920116011424 3890.1136046581914
1459.98425029393 3924.420040007875
1460.7762960106338 3888.9868732449404
1461.5681488035225 3904.037602814997
1462.3598087248392 3888.7500509884508
1463.1512758268036 4124.39663999975
1463.942550161617 3894.042948901331
1464.7336317814625 3771.8352672606734
1465.524520738496 3885.2416816425816
1466.3152170848552 3823.6068206989366
1467.1057208726506 3885.177910948615
1467.8960321539817 3730.4018548995437
1468.6861509809169 3708.120626641142
1469.4760774055085 3756.476412191884
1470.265811479785 3819.909920982016
1471.055353255755 3605.447981855862
1471.844702785409 3601.1719886839273
1472.6338601207044 3670.2077733693027
1473.4228253135934 3817.4641546866324
1474.2115984159936 3571.7045863176704
1475.0001794798063 3547.982834997352
1475.7885685569145 3539.756720570526
1476.576765699172 3619.9363319688136
1477.3647709584238 3599.042283104951
1478.1525843864802 3708.268228899731
1478.9402060351367 3621.7697530441765
1479.7276359561693 3723.723130366049
1480.514874201328 3472.0310186331435
1481.3019208223468 3545.2887567643106
1482.0887758709323 3438.91059148149
1482.8754393987747 3658.69040449996
1483.6619114575406 3446.3976091046075
1484.4481920988783 3593.736879411237
1485.2342813744108 3586.8167669370205
1486.0201793357446 3661.7479474454367
1486.8058860344572 3498.594651700371
1487.591401522117 3509.713256555875
1488.3767258502594 3508.4553427908277
1489.1618590704056 3605.23033566365
1489.9468012340494 3305.1601623437955
1490.7315523926754 3644.566977464099
1491.5161125977356 3674.923057195926
1492.3004819006637 3584.360851516934
1493.084660352877 3485.8607562231496
1493.8686480057622 3580.9486542196596
1494.6524449106964 3677.893391817357
1495.4360511190262 3739.7051508754857
1496.219466682087 3585.391094944869
1497.0026916511779 3433.8775787039813
1497.7857260775945 3594.3033642059154
1498.5685700125996 3636.4475300629056
1499.3512235074395 3435.6176127624567
1500.133686613337 3446.0127696008362
1500.9159593814966 3500.8360945520117
1501.698041863101 3838.889359886352
1502.4799341093094 3483.8374535578273
1503.2616361712662 3299.61714164367
1504.043148100087 3483.159473076047
1504.8244699468742 3589.611744136756
1505.6056017626997 3400.2484930684623
1506.3865435986281 3466.2561169986575
1507.1672955056893 3571.1593383096997
1507.9478575348967 3491.5589264628397
1508.7282297372512 3571.3953908694484
1509.5084121637192 3490.9070198807844
1510.2884048652577 3570.5856265467155
1511.0682078927948 3416.6447369740554
1511.8478212972423 3379.18841787628
1512.6272451294917 3332.179982352713
1513.4064794404076 3465.786146451959
1514.1855242808433 3607.7411482924276
1514.9643797016215 3412.191126159398
1515.743045753552 3560.084842893165
1516.5215224874191 3478.1688127276334
1517.2998099539836 3312.338100437889
1518.077908203999 3499.8374462368593
1518.8558172881785 3454.4057368011972
1519.633537257234 3572.5961218248535
1520.4110681618404 3550.1819127645895
1521.1884100526604 3384.3557926476888
1521.9655629803365 3505.6146949159474
1522.7425269954856 3619.7268033203422
1523.5193021487103 3736.4228008194127
1524.2958884905856 3337.3684075661135
1525.0722860716687 3532.366796138467
1525.848494942502 3421.424646271299
1526.624515153595 3477.882277955681
1527.4003467554485 3504.277431105438
1528.175989798534 3629.062948635561
1528.9514443333064 3562.6375392816653
1529.726710410203 3739.2748171478534
1530.5017880796331 3431.247079526296
1531.276677391992 3500.659879351674
1532.0513783976457 3650.9064102684306
1532.825891146953 3588.2902240253184
1533.6002156902414 3639.166730702154
1534.3743520778207 3436.081839883517
1535.1483003599806 3567.9096805615277
1535.9220605869923 3453.7450665921256
1536.6956328091019 3512.935250593574
1537.4690170765407 3543.295108718982
1538.242213439511 3641.492547664219
1539.015221948208 3532.7596321700744
1539.78804265279 3528.8902294058134
1540.560675603405 3428.0484464247893
1541.3331208501804 3636.7011180597706
1542.1053784432224 3685.4903907697962
1542.8774484326168 3531.0699846251227
1543.649330868422 3509.0753164283587
1544.4210258006842 3554.37267438402
1545.1925332794308 3599.194587517327
1545.9638533546604 3556.210992194838
1546.7349860763552 3490.916499888218
1547.5059314944829 3775.531968872054
1548.27668965898 3565.5039203567444
1549.0472606197673 3545.747352043779
1549.817644426752 3484.5591503310447
1550.5878411298072 3632.989140265056
1551.3578507787988 3496.8282688155223
1552.1276734235635 3427.0760545176645
1552.8973091139233 3545.5021767137027
1553.6667578996767 3662.263747412104
1554.436019830604 3444.800980123262
1555.20509495646 3520.542922573909
1555.9739833269869 3499.548376676161
1556.7426849919011 3436.547573116455
1557.511200000903 3621.9855011824375
1558.2795284036674 3595.2268773726014
1559.0476702498509 3487.152590035172
1559.8156255890954 3671.964138138311
1560.5833944710157 3815.880240593329
1561.3509769452048 3560.113883166462
1562.1183730612447 3569.9674931549575
1562.8855828686865 3474.5453384241164
1563.6526064170703 3752.3966734766445
1564.4194437559127 3658.1063265051002
1565.1860949347047 3475.027708171217
1565.9525600029283 3825.644190291383
1566.7188390100328 3883.3698132331483
1567.4849320054564 3560.1346375627495
1568.250839038612 3622.4306737085853
1569.0165601588997 3685.249303729539
1569.7820954156887 3782.59765213035
1570.5474448583373 3478.430914258127
1571.31260853618 3536.8694106733296
1572.0775864985299 3468.6346171055366
1572.8423787946813 3680.371256023564
1573.6069854739108 3578.8676150777355
1574.371406585471 3621.903284286936
1575.1356421785986 3668.598007749234
1575.899692302506 3588.5125018701024
1576.6635570063845 3711.096206190408
1577.4272363394157 3635.478639220487
1578.190730350747 3565.7195246757483
1578.9540390895163 3639.9869699578257
1579.7171626048384 3432.1263297541723
1580.480100945806 3440.251050325419
1581.2428541614918 3586.173854570815
1582.0054223009538 3637.969949990794
1582.767805413223 3564.0225675184583
1583.5300035473156 3503.933836578958
1584.292016752228 3713.510464238243
1585.0538450769309 3579.6666386928205
1585.8154885703807 3485.5274424421323
1586.5769472815136 3430.5800134287156
1587.3382212592405 3479.1862706485686
1588.099310552463 3693.853770499878
1588.8602152100484 3690.326113547213
1589.6209352808564 3618.5242136951138
1590.3814708137234 3482.262630660426
1591.14182185746 3496.3913718679078
1591.9019884608679 3443.4012882103475
1592.6619706727215 3404.7959312088606
1593.4217685417734 3546.6271260615176
1594.1813821167616 3644.4259520136557
1594.9408114464022 3398.6389833507246
1595.7000565793933 3480.578522673536
1596.459117564409 3448.3695799460265
1597.2179944501113 3395.0084701894702
1597.9766872851324 3377.39625499225
1598.735196118092 3607.3979943286477
1599.4935209975883 3569.7202910266774
1600.2516619721973 3540.1397307533907
1601.0096190904787 3426.423927598736
1601.7673924009723 3436.742550390177
1602.524981952196 3406.525676644206
1603.2823877926476 3473.911939720744
1604.0396099708087 3325.5691960338772
1604.7966485351371 3210.1183301912242
1605.5535035340745 3317.6373729919424
1606.3101750160404 3495.198446204852
1607.0666630294363 3225.7376220896485
1607.822967622642 3194.9346006274245
1608.5790888440224 3425.919837955664
1609.3350267419137 3552.7145606742074
1610.0907813646445 3238.6719318798937
1610.8463527605145 3322.2707582548414
1611.601740977805 3364.2750442613806
1612.356946064785 3274.2993294728158
1613.1119680696902 3175.5460724605614
1613.8668070407512 3297.852034873505
1614.6214630261748 3282.90127325204
1615.375936074137 3401.3716269635124
1616.1302262328118 3210.0298255632324
1616.8843335503425 3404.8956775623155
1617.638258074854 3248.1205493292478
1618.391999854457 3311.3462851537174
1619.1455589372363 3409.5519028773315
1619.8989353712623 3342.098145564324
1620.65212920458 3145.92273839982
1621.4051404852235 3181.8957896935326
1622.1579692611976 3347.531655096903
1622.9106155804966 3090.4042103645343
1623.663079491087 3221.306134162622
1624.4153610409248 3281.152863754933
1625.1674602779385 3283.259352342046
1625.9193772500403 3208.8392485766353
1626.6711120051277 3475.6334697136494
1627.4226645910676 3210.93718863612
1628.174035055721 3126.3600157094756
1628.9252234469168 3335.5892305619104
1629.676229812474 3153.5033406447774
1630.4270542001905 3485.6091403322034
1631.1776966578382 3150.745449138869
1631.9281572331747 3228.7675863708355
1632.678435973945 3481.15273491435
1633.4285329278573 3306.7845447258833
1634.1784481426203 3099.5632864608465
1634.9281816659113 3158.450595877644
1635.677733545388 3376.963505869935
1636.4271038286934 3279.845826645355
1637.176292563452 3262.5519184130035
1637.9252997972635 3318.5180916977088
1638.674125577716 3450.0313419538506
1639.4227699523672 3642.283012046767
1640.171232968767 3181.9017466839477
1640.9195146744423 3371.774752875953
1641.6676151168977 3476.1304876719587
1642.4155343436178 3489.7550960901367
1643.1632724020765 3383.3736966185666
1643.9108293397167 3379.046474619303
1644.658205203974 3297.160647943423
1645.4054000422566 3729.7981715274
1646.1524139019566 3414.2290645464404
1646.8992468304423 3225.840689454437
1647.6458988750728 3363.0433838345552
1648.3923700831765 3398.2276985079493
1649.1386605020743 3334.156685718745
1649.8847701790564 3463.131223434519
1650.6306991614038 3339.4404447330176
1651.3764474963682 3462.2891927223127
1652.1220152311944 3240.6435546846574
1652.867402413096 3475.020619376359
1653.6126090892776 3424.0651981775745
1654.3576353069184 3575.2315781803727
1655.1024811131829 3409.7411188002525
1655.8471465552066 3288.587335172849
1656.5916316801213 3558.187197309138
1657.3359365350298 3471.4948856263813
1658.0800611670165 3331.7859962694515
1658.824005623148 3409.4120768511166
1659.5677699504722 3296.9856220717215
1660.3113541960192 3352.613434248108
1661.054758406799 3388.046295662078
1661.7979826297997 3213.320260433726
1662.5410269119966 3285.7705929623494
1663.283891300338 3394.178795874361
1664.0265758417645 3350.2688992410285
1664.7690805831826 3365.391787110873
1665.5114055714948 3387.4154162010104
1666.2535508535748 3518.9631221369846
1666.9955164762814 3115.5738180376184
1667.7373024864555 3226.029038945131
1668.478908930916 3217.885588056795
1669.220335856462 3233.643415499788
1669.9615833098778 3184.593264587344
1670.7026513379296 3097.7171835264917
1671.44353998736 3300.351395142033
1672.1842493048916 3237.0882645234187
1672.9247793372379 3235.947270728205
1673.6651301310812 3289.298687041604
1674.4053017330934 3209.5563049447555
1675.1452941899242 3277.7915557261977
1675.885107548207 2738.2946323761075
1676.6247418545518 2958.082040477996
1677.3641971555535 2998.3193663419293
1678.1034734977893 3181.9205811184606
1678.8425709278108 3110.7146775058995
1679.5814894921605 3100.2411933046546
1680.320229237359 3117.596706686508
1681.0587902098978 3178.710886496939
1681.7971724562685 3043.9447337764823
1682.5353760229264 2990.3561338036916
1683.2734009563173 3146.484442274337
1684.0112473028657 2994.048695056171
1684.7489151089794 3050.821754120937
1685.4864044210462 3047.073723005412
1686.2237152854377 2771.6673260151465
1686.960847748498 3108.006778095587
1687.6978018565642 2883.2188576648373
1688.434577655944 2877.0306597083463
1689.1711751929379 2804.9330739340826
1689.9075945138156 3003.5345915890316
1690.6438356648396 2939.4485373533626
1691.3798986922448 2634.439867780181
1692.1157836422499 2898.7255726656367
1692.851490561059 2823.779526667402
1693.587019494853 2837.433700358915
1694.3223704897991 2718.1357615061906
1695.0575435920364 2599.973975414182
1695.792538847696 3002.935772887633
1696.527356302886 2693.163731856593
1697.2619960036936 2585.529894303535
1697.9964579961907 2630.6662080620067
1698.730742326432 2330.5629178069394
1699.4648490404488 2495.7797062356235
1700.1987781842563 2707.3720889854403
1700.9325298038548 2731.6469321027644
1701.6661039452174 2752.337051428097
1702.3995006543082 2651.3364984228783
1703.1327199770658 2748.5617856839235
1703.865761959416 2512.462914205523
1704.598626647261 2740.8831270403707
1705.3313140864866 2488.500308096014
1706.0638243229587 2462.6523709265393
1706.7961574025303 2666.8219233889595
1707.528313371029 2515.6631861074356
1708.260292274268 2507.4157587754385
1708.9920941580403 2525.601435108192
1709.7237190681226 2479.2859190879767
1710.4551670502697 2417.1971653761075
1711.18643815022 2296.4172542702213
1711.9175324136959 2689.629707105811
1712.6484498863938 2482.888067457399
1713.379190614005 2304.9569652344558
1714.109754642188 2302.876890612924
1714.8401420165883 2312.863055915638
1715.570352782839 2567.6435277340724
1716.3003869865497 2491.80767440767
1717.0302446733076 2254.2400000177595
1717.7599258886876 2355.4377294872274
1718.4894306782444 2593.323797151577
1719.2187590875183 2226.6180212360196
1719.9479111620203 2523.0259855203576
1720.6768869472544 2335.1426441654303
1721.4056864887025 2617.932774541534
1722.1343098318284 2613.453433007229
1722.8627570220742 2323.2007918618665
1723.591028104871 2304.9305187876084
1724.3191231256242 2247.4875056860733
1725.0470421297232 2333.4399981355764
1725.7747851625427 2410.321968912022
1726.5023522694337 2484.097655112557
1727.2297434957363 2331.030245477069
1727.9569588867635 2069.1551647340607
1728.6839984878152 2389.915332108162
1729.4108623441734 2030.5673478437038
1730.1375505011038 2289.313070878295
1730.8640630038426 2263.12513489277
1731.5903998976264 2178.9862851443977
1732.316561227657 2302.3921296393955
1733.0425470391274 2059.4651659039678
1733.7683573772065 2173.4784214652254
1734.4939922870508 2318.1714970916737
1735.2194518137949 2282.1127067895686
1735.9447360025606 2258.0293960958998
1736.669844898439 2248.209485472711
1737.3947785465189 2113.8219840640613
1738.1195369918605 2131.737788135171
1738.8441202795093 2221.3548318334997
1739.5685284544943 2319.3493168466703
1740.292761561821 2331.612230682455
1741.0168196464838 2277.148858912733
1741.7407027534518 2306.1008066780605
1742.464410927687 2226.9835753243437
1743.187944214118 2227.627641570537
1743.9113026576688 2167.734992718319
1744.634486303241 2233.910781944872
1745.3574951957125 2281.1221120006453
1746.0803293799509 2421.697797085
1746.8029889008048 2205.9566604275765
1747.5254738031017 2204.2704436497206
1748.2477841316504 2235.0395891876246
1748.969919931249 2228.7875779332653
1749.6918812466665 2134.334004066631
1750.4136681226646 2242.561350408659
1751.1352806039777 2253.378300486799
1751.856718735331 2026.0876345124702
1752.5779825614281 2012.7631394283198
1753.2990721269507 2366.511373766822
1754.0199874765676 2216.6217166158895
1754.7407286549314 2155.981792598284
1755.4612957066693 2138.7836994887375
1756.1816886763954 2031.5471007495157
1756.9019076087097 2252.172615714364
1757.6219525481865 2218.663694611857
1758.3418235393856 2241.9863535393956
1759.061520626854 2190.733321881232
1759.7810438551096 2349.2668811067256
1760.5003932686614 2077.532897329663
1761.2195689119999 2274.533774785526
1761.938570829594 2189.3383720172988
1762.657399065898 2166.203192013042
1763.376053665348 1980.583276530892
1764.0945346723602 1857.7638942859187
1764.812842131334 2366.619562328014
1765.5309760866512 2135.557539646271
1766.2489365826787 2058.679028824906
1766.9667236637597 2081.9371800155204
1767.684337374223 1926.09208485468
1768.401777758383 1991.3248586111317
1769.1190448605284 2078.9274465511676
1769.836138724937 1883.1958589667106
1770.5530593958665 2184.310545867337
1771.2698069175603 2305.089120953941
1771.9863813342326 2166.980116294136
1772.702782690094 2079.387714123311
1773.4190110293293 2223.255451433281
1774.1350663961111 2108.1100966937383
1774.8509488345844 2081.939266934037
1775.5666583888924 2064.35119866842
1776.2821951031437 2230.4137399397487
1776.9975590214362 2082.414081530306
1777.7127501878585 2202.288693094988
1778.4277686464684 2182.283450435439
1779.1426144413108 2268.1584231862016
1779.8572876164162 2367.1515766819484
1780.571788215797 1884.4351607683616
1781.2861162834415 2107.245125067243
1782.0002718633277 2061.884217776727
1782.7142549994132 2113.0455101633124
1783.4280657356376 2184.378938107119
1784.141704115922 2004.0281413123885
1784.855170184177 1987.114302929635
1785.5684639842839 2114.666026906826
1786.2815855601148 1749.1129806395397
1786.9945349555237 2193.752773931693
1787.707312214343 2049.648025180698
1788.4199173803918 2273.3678945756965
1789.132350497468 1965.580816841466
1789.8446116093583 2033.3041734794201
1790.556700759822 1980.2088825779872
1791.2686179926077 2061.337575518824
1791.9803633514493 2150.830612309555
1792.6919368800554 1889.8242341146768
1793.4033386221236 2098.4578913941764
1794.1145686213295 2222.4946935602084
1794.8256269213307 2224.8498629782925
1795.536513565774 2094.50232683987
1796.247228598284 1873.6871950205634
1796.9577720624693 2002.8471139299643
1797.6681440019165 1995.8641657581252
1798.3783444602013 2055.4202459344806
1799.0883734808776 2194.0316556113244
1799.7982311074884 2076.5383977196975
1800.5079173835475 2079.932144011528
1801.2174323525633 2154.172849592958
1801.9267760580187 1988.9054847795967
1802.635948543386 2077.8457096818784
1803.3449498521113 2017.1568635885728
1804.0537800276325 2061.434763458131
1804.7624391133668 2024.6200201213262
1805.47092715271 1876.7648198295235
1806.1792441890484 1931.8742868564411
1806.8873902657433 1988.7677359631696
1807.5953654261448 2015.0735660844948
1808.3031697135812 1984.9539929880925
1809.0108031713662 1924.856196715958
1809.71826584279 1924.5301519274494
1810.425557771141 1966.5888806278563
1811.1326789996747 1975.2752865749412
1811.839629571632 1983.8635464110423
1812.5464095302468 2052.3925553128784
1813.2530189187182 1916.508543179704
1813.959457780249 1986.595248925291
1814.6657261580076 2105.142629014348
1815.371824095153 2035.025537977799
1816.0777516348262 2153.7502930703017
1816.78350882015 1592.1004654352068
1817.4890956942272 1743.4723989075676
1818.1945123001533 1851.5381215501307
1818.8997586809928 1891.0912017273688
1819.6048348798067 1842.7189098803763
1820.3097409396287 1941.8023134721109
1821.0144769034796 2187.6996366642297
1821.7190428143622 2004.92726027679
1822.423438715261 2031.7470585063925
1823.1276646491478 1974.4962420120069
1823.8317206589727 2001.1110589745554
1824.5356067876692 1984.8141549559223
1825.2393230781581 2052.4997438520645
1825.942869573335 1614.1618178867855
1826.646246316086 1872.6201795466372
1827.3494533492758 1981.5189806188155
1828.052490715756 2002.1827698546156
1828.7553584583547 1989.25070155402
1829.458056619891 1985.626653441762
1830.1605852431585 1968.6036991131082
1830.8629443709433 1822.7961501101624
1831.5651340460063 1886.759538161258
1832.2671543110919 1846.3577890617507
1832.9690052089318 2054.836009978949
1833.6706867822395 1639.1950053908815
1834.3721990737104 2032.2282175918324
1835.0735421260233 2116.775585791966
1835.774715981841 1946.3209816522692
1836.4757206838058 1999.5629755534392
1837.1765562745459 1923.67522584637
1837.8772227966747 1782.6563482159222
1838.5777202927839 1935.4537481666205
1839.2780488054523 1919.4989638918676
1839.9782083772352 1803.6094414836548
1840.6781990506806 2208.020103903171
1841.378020868313 1890.8195973758043
1842.0776738726418 1962.1755892470835
1842.777158106157 1864.720660541052
1843.4764736113375 1812.8405671948772
1844.1756204306403 2073.330474249739
1844.8745986065078 1934.8782846547433
1845.5734081813607 1802.466274103835
1846.2720491976124 1784.5951551118892
1846.970521697649 1848.4509570613955
1847.6688257238511 1975.86475895605
1848.3669613185684 1886.0571351410667
1849.0649285241452 1694.5335870329968
1849.7627273829057 2026.9006632763078
1850.460357937156 1927.2499758927438
1851.1578202291857 1623.899232422132
1851.8551143012664 1909.2313918218006
1852.5522401956569 1833.235431402719
1853.2491979545957 2064.153368080401
1853.9459876203055 1766.7327174851175
1854.6426092349902 1707.2076464789995
1855.3390628408451 1878.9091261055764
1856.0353484800362 2086.3813320465465
1856.7314661947203 1968.7889566083181
1857.4274160270397 1699.8692048890898
1858.123198019115 1753.965286865112
1858.8188122130487 1827.1859635258625
1859.5142586509319 1951.6095020672183
1860.209537374838 1758.1044565624318
1860.9046484268183 1763.792596851464
1861.599591848917 1947.4283551131587
1862.294367683151 1778.6040752746153
1862.988975971528 1841.6237799501407
1863.6834167560355 1915.1523099172432
1864.3776900786452 1937.4034162748526
1865.0717959813119 1884.7578959640246
1865.7657345059724 1740.5150633960934
1866.4595056945564 1891.886069635085
1867.1531095889586 1875.0261781670197
1867.846546231076 1668.5671748869113
1868.5398156627743 1969.1130492899872
1869.2329179259123 1743.2039361649604
1869.9258530623283 1929.5747797865472
1870.618621113843 1713.7276935018938
1871.3112221222636 1760.7536313903752
1872.0036561293764 1656.7329491913747
1872.695923176956 1940.1341833603994
1873.3880233067594 1988.2062419689148
1874.0799565605212 1684.247322517179
1874.7717229799673 1799.1863043306894
1875.4633226068036 1942.5512999143953
1876.1547554827175 1945.0046982078031
1876.8460216493859 1778.8034924116612
1877.5371211484617 1803.2321950102337
1878.2280540215852 1980.707552432114
1878.9188203103804 1627.3060400384588
1879.6094200564548 1788.9304040274965
1880.299853301396 1700.761816392413
1880.9901200867826 2112.853946856706
1881.6802204541673 1834.7352224986134
1882.3701544450942 1867.1774992820162
1883.059922101087 1685.3373798022694
1883.7495234636517 1994.4006836644894
1884.4389585742792 1709.931988169929
1885.1282274744517 1711.079434681194
1885.8173302056166 1796.9238853904317
1886.506266809225 1882.8857121603698
1887.195037326701 1653.813869827133
1887.8836417994517 1685.3459462482006
1888.5720802688702 2000.3934382389593
1889.260352776333 1909.7238884604874
1889.9484593632042 1956.8632611376663
1890.63640007082 1817.7155511463636
1891.3241749405151 1663.1301818084619
1892.0117840135954 1961.6235338368192
1892.6992273313572 1705.4222891692875
1893.3865049350788 1660.9782958977717
1894.0736168660223 2031.2625110347203
1894.7605631654333 1835.6108084432103
1895.4473438745408 1639.5787649482886
1896.133959034556 2086.1805716054937
1896.820408686679 1866.4040958074718
1897.506692872088 1992.1130551286747
1898.192811631945 1821.6047137126086
1898.8787650073991 1732.2749559107003
1899.5645530395832 2026.4116074047238
1900.2501757696118 1949.933676275337
1900.9356332385796 1663.3381212285392
1901.620925487574 2009.194701485057
1902.3060525576602 1845.8660522811765
1902.9910144898859 1923.95490364563
1903.6758113252872 1642.27625404186
1904.3604431048789 1825.1661251603769
1905.0449098696663 1899.1587622108043
1905.7292116606295 1772.6485157813618
1906.4133485187394 1818.44248606858
1907.0973204849488 1629.359610481473
1907.7811276001976 1517.6221573785028
1908.4647699053967 1783.9500207598862
1909.1482474414588 1416.167513378237
1909.8315602492694 1741.5262762985178
1910.5147083696957 1844.13899510047
1911.1976918436012 1727.071964477386
1911.880510711815 1653.8973572397088
1912.5631650151681 1899.1697286509284
1913.2456547944657 1758.6177878520703
1913.927980090495 1757.0940664452974
1914.6101409440362 1723.2697471894448
1915.2921373958416 1924.9123452295523
1915.9739694866603 1761.819801925793
1916.655637257214 1957.3733132005073
1917.3371407482136 1727.459069417529
1918.0184800003572 2050.1818605842705
1918.6996550543154 1805.097636590507
1919.3806659507554 1777.5766386680996
1920.0615127303208 1762.9208759258968
1920.7421954336423 1904.1850083055615
1921.4227141013343 1926.593344735606
1922.103068773993 1851.3723159859376
1922.783259492202 1768.6525870311161
1923.4632862965227 1684.9721284358359
1924.1431492275078 1714.8971665038764
1924.8228483256917 1671.324283462721
1925.5023836315922 1657.616968440793
1926.1817551857057 1790.0283957310435
1926.8609630285227 1922.7209598361947
1927.5400072005123 1892.5709735958194
1928.218887742125 1541.5000634522146
1928.8976046938005 1500.8432665228763
1929.5761580959588 1927.1531796143531
1930.2545479890086 1745.3020857026022
1930.9327744133352 1530.2343339339486
1931.6108374093164 1648.7136023423805
1932.2887370173066 1523.9691555363033
1932.9664732776473 1893.5458652415302
1933.6440462306673 1776.2455459975693
1934.3214559166754 1716.7439865382319
1934.9987023759659 1908.7438921613925
1935.675785648813 1879.4748716889092
1936.3527057754836 1967.2382458136694
1937.029462796223 2055.206682039642
1937.70605675126 1657.397766568356
1938.3824876808085 1580.2758719499204
1939.058755625072 1676.3336326535245
1939.7348606242267 1669.6711169364116
1940.4108027184448 1749.863484911863
1941.0865819478713 1899.9958514133664
1941.7621983526478 1707.9716828939734
1942.4376519728921 1498.2505865348421
1943.1129428487038 1654.3076779428498
1943.7880710201734 1747.3210729597006
1944.4630365273733 1846.2524165344544
1945.1378394103576 1608.6541423166
1945.8124797091714 1549.6145904845152
1946.4869574638324 1490.403628629358
1947.161272714353 1645.210527533965
1947.8354255007234 1837.9260047704665
1948.5094158629272 1632.754728929041
1949.1832438409183 1791.905336596552
1949.8569094746435 1882.590456386844
1950.530412804037 2024.7960824966624
1951.2037538690092 1759.8559295077368
1951.8769327094578 1719.6569339758437
1952.5499493652678 1620.0717737674117
1953.222803876306 1939.3816130932414
1953.895496282421 1702.4351014273586
1954.5680266234522 1659.8270706374121
1955.2403949392155 1706.7469574507663
1955.9126012695142 1631.7789736195923
1956.5846456541403 1665.9910518840436
1957.2565281328643 1637.7766206253646
1957.9282487454457 1817.696770307019
1958.5998075316202 1828.7858502475203
1959.27120453112 1603.1597781114333
1959.9424397836501 1696.4912803429245
1960.613513328908 1767.452543199664
1961.2844252065697 1886.578389360549
1961.9551754563017 1617.1006638713777
1962.6257641177453 1597.6546704800173
1963.29619123054 1467.0186031730175
1963.966456834296 1540.7391265772142
1964.6365609686181 1572.1679064652894
1965.306503673086 1760.1626010919965
1965.976284987275 1569.947906287411
1966.645904950734 1695.9440178525651
1967.315363603002 1544.854269795946
1967.9846609836077 1703.386799829295
1968.6537971320486 1572.7453947741947
1969.3227720878222 1711.5085424072415
1969.9915858904042 1702.1704295403165
1970.660238579252 1772.8924998604969
1971.3287301938108 1686.611384440063
1971.997060773514 1629.0945162961
1972.665230357772 1455.9347613140676
1973.3332389859843 1594.6443726441767
1974.0010866975335 1473.057045002603
1974.6687735317864 1717.3637439418712
1975.3362995280932 1710.9146978359618
1976.003664725793 1663.6409218094225
1976.6708691642052 1478.952322090605
1977.3379128826364 1647.1237193164548
1978.004795920373 1760.642360360836
1978.6715183166925 1584.8187091158948
1979.3380801108524 1795.547680336936
1980.0044813420973 1625.0695703352117
1980.6707220496555 1412.5525768633054
1981.3368022727373 1635.3169701397164
1982.0027220505417 1690.6301399473755
1982.66848142225 1310.9557602141513
1983.3340804270283 1467.438452185322
1983.999519104027 1657.3659409063312
1984.6647974923835 1714.2358970632272
1985.329915631215 1633.5891418544263
1985.99487355963 1671.3758139173217
1986.6596713167146 1786.6531607543434
1987.3243089415428 1437.7065163978073
1987.9887864731754 1792.8069120255361
1988.6531039506553 1457.3203301886367
1989.3172614130071 1899.8784285420093
1989.9812588992481 1551.8145734124705
1990.645096448372 1316.4690007151444
1991.3087740993633 1716.6131883963067
1991.9722918911848 1594.547571352812
1992.635649862792 1729.9425976593798
1993.2988480531185 1768.1486878069804
1993.9618865010852 1656.0588585402063
1994.6247652455968 1543.8156697298086
1995.287484325545 1557.7169785211859
1995.9500437798033 1601.2976691112433
1996.6124436472292 1503.1335076855812
1997.2746839666706 1794.2126020417527
1997.936764776954 1643.902281044689
1998.598686116895 1449.1498886146123
1999.2604480252903 1757.586408468079
1999.9220505409212 1771.9184674642845
2000.5834937025593 1390.3534079203832
2001.2447775489582 1666.5640025672426
2001.9059021188514 1751.5765130168172
2002.5668674509616 1569.5514904804309
2003.2276735839987 1580.049141429074
2003.8883205566508 1844.473604307681
2004.5488084075987 1545.0453138225578
2005.2091371755014 1608.1431864083384
2005.8693068990033 1445.8304890398674
2006.5293176167397 1697.6005287275318
2007.1891693673224 1570.5991581175
2007.848862189354 1496.4129238366083
2008.5083961214223 1481.405079602635
2009.1677712020955 1475.828930219658
2009.8269874699254 1361.0236280065799
2010.4860449634598 1422.1827991417892
2011.1449437212177 1483.5861256379394
2011.8036837817108 1826.415198134087
2012.4622651834325 1616.5646983657946
2013.1206879648653 1696.5550449078212
2013.7789521644736 1804.1276005129482
2014.4370578207036 1705.4111841246547
2015.0950049719922 1606.3717093245587
2015.7527936567585 1640.4144166260526
2016.4104239134067 1520.2888831702012
2017.067895780323 1886.336552704644
2017.725209295886 1823.8382609300938
2018.3823644984514 1761.1215269271124
2019.0393614263648 1589.3272304348698
2019.6962001179545 1625.510750426473
2020.3528806115355 1719.2995060222875
2021.0094029454067 1667.2438194477168
2021.6657671578487 1467.6973118501592
2022.321973287133 1599.1760863480017
2022.9780213715148 1504.0483012354057
2023.6339114492293 1617.887969183433
2024.2896435585026 1558.1336192961162
2024.9452177375442 1553.1481302832262
2025.600634024544 1665.706015342351
2026.2558924576842 1708.4988740648282
2026.9109930751292 1627.0762573219495
2027.565935915025 1509.6149722177017
2028.2207210155066 1838.8862913331764
2028.8753484146964 1880.0474267773461
2029.529818150695 1371.3446071164306
2030.1841302615903 1775.995582399158
2030.8382847854573 1385.4329926707894
2031.4922817603601 1600.6860295940617
2032.1461212243357 1545.7929846062248
2032.7998032154192 1505.9205525282475
2033.4533277716218 1463.5775565474082
2034.1066949309443 1451.7515687262942
2034.7599047313688 1360.6012379256044
2035.4129572108704 1609.275166074044
2036.0658524074006 1505.862472668342
2036.7185903589016 1594.086381431021
2037.3711711032956 1647.2242695363013
2038.023594678496 1518.410932414786
2038.675861122394 1524.3342958973162
2039.3279704728757 1499.4478013076102
2039.9799227678031 1474.6425337024389
2040.6317180450278 1621.7761789897518
2041.2833563423865 1458.4002218008345
2041.9348376977014 1782.713139762903
2042.5861621487784 1721.4633712696486
2043.2373297334088 1547.3731896650875
2043.8883404893695 1604.8375801620573
2044.5391944544208 1626.5253854534776
2045.1898916663158 1648.089112855268
2045.8404321627804 1860.8382040011777
2046.4908159815368 1604.650358222092
2047.1410431602853 1466.738153548457
2047.7911137367173 1449.6174046151632
2048.441027748504 1671.265447956675
2049.090785233302 1403.899316199321
2049.7403862287592 1499.9344992040237
2050.389830772503 1743.1768119540907
2051.0391189021466 1448.541167254919
2051.688250655294 1611.185329613185
2052.337226069527 1392.8211074840606
2052.986045182417 1679.655838679077
2053.634708031521 1300.2149117199626
2054.283214654375 1212.2359568908112
2054.931565088511 1124.155746012029
2055.579759371436 1376.9710494677124
2056.2277975406523 1677.618183728958
2056.8756796336384 1705.9973412898457
2057.5234056878617 1628.3768512196712
2058.1709757407752 1550.4432907263613
2058.8183898298194 1862.4290584178173
2059.465647992416 1713.2879193027704
2060.1127502659747 1628.546671232035
2060.759696687888 1336.3583526362838
2061.4064872955405 1573.3684493506155
2062.053122126292 1408.6891120133
2062.699601217497 1590.9491515024147
2063.345924606485 1457.5753451451717
2063.992092330587 1476.2158967350767
2064.638104427102 1449.540504421345
2065.283960933324 1738.4932972488775
2065.92966188653 1559.7703638281778
2066.5752073239855 1729.7406545000904
2067.2205972829397 1381.5099517951717
2067.86583180062 1674.395128377634
2068.5109109142522 1505.6273870041937
2069.15583466104 1485.837481360888
2069.8006030781708 1466.0306715259399
2070.445216202821 1527.093044395058
2071.089674072153 1618.9747244221878
2071.7339767233116 1754.2756729576934
2072.3781241934303 1601.0626926073346
2073.0221165196253 1722.8321356191204
2073.6659537390024 1665.4801460486292
2074.3096358886505 1684.6909025151995
2074.953163005637 1530.1971070223187
2075.596535127028 1430.4708763813048
2076.2397522898664 1458.8628381730282
2076.882814531182 1581.232413904354
2077.5257218879924 1578.8094764564826
2078.1684743973 1354.9954031723114
2078.8110720960885 1336.3243957818117
2079.453515021336 1423.255880290843
2080.095803209997 1510.2493209769686
2080.7379366990135 1497.2652457701738
2081.37991552532 1641.8177201564183
2082.0217397258275 1578.18983323897
2082.6634093374414 1362.5262968326413
2083.3049243970418 1466.9691240113902
2083.9462849415067 1564.7171334840143
2084.587491007689 1610.8060586833637
2085.2285426324324 1602.8254274576188
2085.869439852564 1576.4359681859655
2086.510182704902 1378.890445928585
2087.1507712262483 1550.2463388907272
2087.791205453381 1356.9463240482462
2088.4314854230743 1565.6178542547998
2089.0716111720867 1627.2412222828282
2089.7115827371617 1685.4971997600055
2090.351400155023 1743.9075594963288
2090.991063462385 1462.7899979387023
2091.6305726959527 1228.9722598571082
2092.2699278924047 1522.8324671538019
2092.9091290884153 1480.1053293001346
2093.548176320641 1403.4408730021605
2094.187069625721 1599.1229908944115
2094.8258090402887 1345.6389286433646
2095.464394600951 1656.555374489803
2096.102826344313 1572.7243377518905
2096.741104306955 1630.8570543945916
2097.379228525453 1319.8544306757688
2098.017199036358 1161.2070500848226
2098.6550158762147 1602.113116713647
2099.2926790815527 1599.1455534203174
2099.9301886888825 1599.6884870195913
2100.5675447347076 1331.7966416628087
2101.2047472555114 1383.5153972940045
2101.841796287761 1435.3467079337925
2102.47869186792 1541.2676971199219
2103.1154340324265 1371.933534975217
2103.752022817709 1429.3015970512597
2104.388458260184 1493.9458104880666
2105.024740396251 1356.2077943345273
2105.660869262292 1473.4302858600283
2106.296844894685 1384.360842341078
2106.93266732978 1295.1189646725838
2107.5683366039284 1305.044910838874
2108.2038527534532 1663.762265334939
2108.8392158146726 1663.4280130368873
2109.4744258238843 1479.3092885969527
2110.1094828173755 1382.5580497035073
2110.744386831422 1660.1811794472924
2111.3791379022787 1520.044753344491
2112.01373606619 1718.9122413235696
2112.648181359389 1682.4888911954108
2113.28247381809 1616.875469473011
2113.916613478492 1588.61675672165
2114.550600376786 1563.8485700386282
2115.1844345491445 1474.5224821785273
2115.818116031729 1495.6192194632285
2116.451644860679 1430.200864344139
2117.085021072133 1260.9471971840862
2117.718244702204 1326.8126416521739
2118.3513157869984 1351.2060631887614
2118.984234362604 1282.6767265720075
2119.617000465092 1384.0339029447484
2120.249614130529 1433.4858522539957
2120.8820753949585 1483.018332525235
2121.5143842944162 1478.1085071071946
2122.14654086492 1395.961528956365
2122.7785451424734 1646.756586570527
2123.4103971630702 1392.7391939058937
2124.042096962681 1431.3797384863499
2124.6736445772767 1596.0243291439608
2125.305040042802 1382.109716553191
2125.936283395191 1486.6170103652173
2126.567374670365 1588.8504388765018
2127.198313904233 1411.0489255165169
2127.8291011326855 1366.0710911654046
2128.4597363916037 1320.8368177391749
2129.0902197168507 1390.372551766582
2129.720551144279 1405.1470283179656
2130.3507307097225 1498.2810268946976
2130.980758449008 1591.441590658284
2131.6106343979427 1331.8257378885078
2132.2403585923203 1543.3403653904757
2132.8699310679276 1605.2636148243746
2133.499351860526 1639.7512872716584
2134.1286210058715 1481.9035889570266
2134.7577385397053 1562.6527128602495
2135.3867044977487 1643.5609488794366
2136.0155189157176 1778.4705779121919
2136.644181829308 1679.521719220237
2137.2726932742025 1514.1193338870332
2137.901053286074 1673.3512445410502
2138.5292619005777 1422.4820517846415
2139.1573191533535 1324.4864313909457
2139.7852250800315 1432.5580922525608
2140.4129797162295 1547.1473651085375
2141.0405830975433 1285.3163039091464
2141.6680352595613 1307.9748988127342
2142.2953362378576 1330.6917903635701
2142.9224860679915 1247.3419585386669
2143.549484785508 1385.1399015244322
2144.1763324259373 1292.8155704220983
2144.803029024799 1452.4166971866312
2145.429574617594 1267.2974611523264
2146.0559692398165 1618.6524083913312
2146.682212926942 1482.683574168185
2147.308305714432 1425.2077666523198
2147.9342476377333 1703.327228829446
2148.5600387322847 1729.7730634751929
2149.185679033506 1784.2983508892462
2149.8111685768017 1382.8552841453331
2150.4365073975678 1353.2995035863917
2151.061695531187 1476.988936702371
2151.686733013021 1704.519822889768
2152.311619878423 1460.7514556533708
2152.9363561627342 1263.8605229641105
2153.560941901278 1254.8815405356095
2154.1853771293663 1470.2245826014723
2154.809661882293 1398.2357096494538
2155.433796195348 1325.3120598754306
2156.0577801037944 1252.133424845573
2156.681613642895 1473.8271977901709
2157.3052968478896 1303.3224663219685
2157.928829754006 1646.055635866605
2158.552212396462 1591.3650466399706
2159.1754448104566 1432.4288106024947
2159.7985270311783 1219.349332972875
2160.4214590938027 931.345494844834
2161.0442410334927 1006.907103261947
2161.6668728853874 1156.9341471028033
2162.289354684628 1307.2765430191587
2162.911686466332 1476.6697149833067
2163.533868265602 1545.3337712192658
2164.1559001175337 1630.910822195619
2164.7777820572046 1664.675145330112
2165.399514119681 1302.4893039192102
2166.021096340013 1364.560456264931
2166.6425287532384 1639.9943352404382
2167.263811394385 1609.5119336191633
2167.8849442984574 1579.107221059909
2168.505927500455 1561.1922906710295
2169.126761035366 1539.4926374086706
2169.7474449381552 1162.3749275302055
2170.367979243778 1063.1396720053094
2170.9883639871823 1605.863919939327
2171.608599203293 1336.4181405157792
2172.2286849270276 1721.9825895522233
2172.8486211932886 1800.5987061503595
2173.4684080369625 1679.0720057457559
2174.0880454929265 1164.0269502433487
2174.7075335960417 1214.3505578730073
2175.3268723811543 1254.220089046623
2175.9460618831 1294.2081026615629
2176.565102136701 1437.752012872139
2177.1839931767627 1418.3958817927564
2177.802735038078 1399.0089677867072
2178.421327755432 1311.6748695604306
2179.0397713635866 1194.7595031034682
2179.658065897298 1312.4000710405392
2180.276211391305 1279.2673595052438
2180.8942078803357 1375.7638112045126
2181.5120553991 1469.7461199900686
2182.129753982299 1506.9166497711335
2182.7473036646206 1544.1773195690691
2183.3647044807367 1496.2214465356597
2183.9819564653044 1266.5641487694888
2184.599059652968 1456.7158836207611
2185.216014078367 1453.1200128956802
2185.832819776113 1522.4079651836641
2186.4494767808137 1591.773279144721
2187.065985127063 1279.4715509053979
2187.682344849436 1246.8519158188424
2188.298555982501 1572.0508647627578
2188.9146185608097 1525.8519574847933
2189.530532618901 1567.8260673754792
2190.1462981912937 1396.4580999523487
2190.761915312507 1507.830671338836
2191.377384017036 1377.0810113955895
2191.9927043393654 1327.9345031111563
2192.6078763139667 1441.778317324244
2193.2228999753006 1555.8858934316
2193.837775357808 1450.843390892664
2194.452502495922 1394.8511849624615
2195.0670814240602 1338.7387666768693
2195.6815121766285 1094.6460690734007
2196.2957947880186 1086.8261644272975
2196.9099292926057 1078.9942564052797
2197.523915724758 1455.583246707027
2198.137754118825 1432.345535442167
2198.7514445091456 1607.5977403232596
2199.3649869300443 1380.369415150049
2199.9783814158327 1721.8787536430204
2200.5916280008096 1757.182200418079
2201.2047267192593 1489.2991580629473
2201.8176776054515 1389.945432493193
2202.430480693649 1497.2434122073698
2203.0431360180955 1604.8378570078264
2203.6556436130195 1744.770630365776
2204.268003512645 1214.6168757212547
2204.8802157511727 1245.6304747022855
2205.492280362796 1394.2167137248725
2206.1041973816937 1543.2704310187282
2206.715966842032 1422.1535375331307
2207.3275887779655 1415.7486835271077
2207.93906322363 1473.859109197067
2208.550390213153 1469.9702605617645
2209.1615697806465 1608.132887825276
2209.7726019602105 1227.342513550413
2210.3834867859277 1136.4649370659356
2210.9942242918787 1329.1295887415442
2211.6048145121167 1204.0159666449044
2212.2152574806914 1252.5661486093127
2212.825553231638 1301.1727279507281
2213.435701798975 1680.9097853826577
2214.045703216707 1292.69095085859
2214.655557518832 1016.0256867899637
2215.2652647393297 1185.639231142581
2215.874824912169 1286.2129576726122
2216.4842380713 1387.1592830892862
2217.09350425067 1219.5879321707666
2217.7026234842033 1580.0803106389424
2218.311595805819 1416.6321800629748
2218.9204212494133 1444.044638464532
2219.52909984888 1451.4086994456925
2220.137631638092 1149.5745249181791
2220.7460166509154 1178.6614082501158
2221.354254921198 1207.7496937286646
2221.9623464827764 1604.9877495259802
2222.5702913694713 1551.8877035796454
2223.178089615096 1664.0463508026653
2223.7857412534486 1459.791911021125
2224.39324631831 1108.2145588306794
2225.000604843457 1312.511439564622
2225.607816862641 1346.1083312080873
2226.214882409611 1379.6826971994847
2226.8218015180973 1577.254949148279
2227.4285742218217 1487.1793350922892
2228.0352005544864 1430.1817643360703
2228.6416805497847 1343.3703412717634
2229.248014241399 1256.4328075814649
2229.8542016629945 1383.1950043033953
2230.460242848223 1510.1184797313906
2231.0661378307304 1621.2696387085684
2231.671886644139 1207.0019215212587
2232.277489322065 1299.2861805935238
2232.8829458981127 1003.5501484385331
2233.48825640587 1167.1245611654451
2234.0934208789095 1401.5186248239377
2234.6984393507955 1636.2463554861754
2235.3033118550793 1300.6708215445126
2235.9080384252975 1364.3459645805144
2236.5126190949723 1220.8717677227844
2237.1170538976166 1324.116769218427
2237.721342866729 1127.8029952351205
2238.32548603579 1185.7985726800873
2238.9294834382763 1431.339213915342
2239.533335107646 1266.8488653121701
2240.1370410773434 1354.388615717062
2240.740601380803 1254.153383824441
2241.3440160514474 1275.7155572193954
2241.9472851226783 1295.1296573413902
2242.550408627896 1314.5980377686178
2243.1533866004793 1567.566822666607
2243.756219073799 1198.917599782712
2244.3589060812064 1207.3463568949649
2244.961447656049 1180.368727870543
2245.5638438316564 1441.5958649009503
2246.166094641343 1411.89043596696
2246.7682001184166 1257.7663054001086
2247.3701602961664 1299.034187566537
2247.971975207871 1500.6407929414993
2248.5736448867974 1586.7600443582207
2249.175169366197 1322.121251613032
2249.7765486793123 1394.6997551480874
2250.3777828593684 1330.300939944142
2250.9788719395783 1325.3245980856095
2251.579815953146 1430.6223841620454
2252.1806149332606 1295.7420915913413
2252.781268913097 1321.9202175153719
2253.381777925817 1183.7693829375835
2253.9821420045737 1298.1055636470078
2254.5823611825035 1662.4225629096072
2255.1824354927303 1361.1274219327058
2255.782364968365 1235.4760383774512
2256.38214964251 1109.6892425331139
2256.9817895482483 990.5082174982666
2257.5812847186553 1213.4590802843584
2258.180635186791 1164.8633817645114
2258.779840985704 1192.9155644038678
2259.37890214843 1240.6123563419135
2259.97781870799 1627.3449870034253
2260.5765906973957 1475.0194564753892
2261.175218149645 1470.3027990618934
2261.773701097718 1288.0819537626492
2262.3720395745895 1105.511470512873
2262.970233613216 1056.4902209133531
2263.568283246548 1120.9070331251892
2264.1661885075137 1185.3760370721677
2264.763949429038 1104.3369362698884
2265.3615660440246 1475.3350655329145
2265.959038385374 1154.4631149029294
2266.5563664859637 1585.31931720485
2267.153550378669 1134.9022529032138
2267.7505900963424 1615.2704374125728
2268.3474856718312 1138.4120849712483
2268.9442371379664 1232.5403696262326
2269.5408445275643 1323.8685321352991
2270.1373078734377 1268.73782586055
2270.7336272083758 1144.6586603807968
2271.32980256516 1256.121913344851
2271.925833976562 1324.8664328247291
2272.5217214753357 1257.9256276517033
2273.117465094223 1190.8255337594994
2273.7130648659586 1098.2108495992481
2274.308520823257 1377.8318952301695
2274.903832998827 1476.2229870559295
2275.4990014253563 1121.4653447028988
2276.094026135528 1506.835756495949
2276.6889071620117 1092.6626748183132
2277.2836445374614 1353.3691256736176
2277.878238294519 1239.966371343091
2278.472688465812 1120.1316307448055
2279.066995083962 1000.0781427438708
2279.6611581815705 1269.112973726049
2280.255177791232 1495.8884571157914
2280.8490539455233 1331.649742729375
2281.442786677013 1567.5335067503127
2282.0363760182554 1511.4069299360517
2282.6298220017943 1223.195846910168
2283.223124660155 1707.8515114931474
2283.816284025859 1127.5081562820046
2284.4093001314086 1658.5889786296514
2285.002173009292 1098.8454664697679
2285.5949026919952 1414.9953511475194
2286.1874892119777 1322.5346461057566
2286.7799326016993 1273.7673109205853
2287.3722328936 1210.6686994833062
2287.964390120109 1309.397064780353
2288.556404313642 1408.2173907514157
2289.1482755066027 1615.864475798218
2289.7400037313873 1331.6854636356745
2290.3315890203703 1166.9909538859733
2290.9230314059205 1302.1955999235424
2291.5143309203904 1151.4916128041245
2292.1054875961236 1468.9835217901707
2292.6965014654506 1490.9473990489814
2293.287372560684 1251.440186783298
2293.878100914131 1196.4111696259736
2294.468686558086 1141.3031576517467
2295.059129524827 1277.7646594876228
2295.649429846617 1240.9474933104723
2296.239587555716 1204.0152677231695
2296.8296026843636 1275.4488745505157
2297.419475264791 1200.807328327558
2298.0092053292137 1125.9522445680027
2298.598792909839 1347.6937343531085
2299.1882380388597 1206.2248779314582
2299.777540748455 1240.7250114818423
2300.3667010707904 1275.1921812928554
2300.9557190380256 1518.1919256619517
2301.544594682302 1557.5445709763594
2302.1333280357503 1100.6459514016346
2302.721919130485 1398.5314382442332
2303.3103679986198 1424.3052128400032
2303.898674672242 1450.248064182874
2304.486839183437 1237.2637550341265
2305.0748615642697 1140.1059047760416
2305.6627418468015 1223.5853653974095
2306.2504800630704 1042.40994326598
2306.8380762451143 1242.5170054230582
2307.425530424949 1246.3747463431446
2308.012842634582 1250.2316330893648
2308.6000129060103 1516.1617782482856
2309.187041271214 1629.9889085442032
2309.773927762164 1594.4694550314646
2310.3606724108213 1558.9080164342054
2310.9472752491274 1368.4119035999483
2311.5337363090184 1409.2802836467463
2312.120055622414 1298.2576990924565
2312.706233221221 1288.4230864737474
2313.2922691373424 1419.46109427344
2313.8781634026564 1217.779425068364
2314.463916049037 1311.2385785353388
2315.049527108342 1342.4126056183925
2315.6349966124235 1777.0082985354015
2316.2203245931123 1482.37307689757
2316.8055110822315 941.1392787144371
2317.3905561115935 1051.2300176373487
2317.9754597129977 1222.7531345289951
2318.560221918229 1180.248472754332
2319.1448427590603 1137.673044209842
2319.729322267256 983.0173908333958
2320.313660474563 1093.9059006178115
2320.8978574127195 1276.682124735388
2321.481913113452 1460.0057072172524
2322.0658276084705 1286.8538071048322
2322.6496009294806 1231.8703635571032
2323.233233108165 1236.1335248666858
2323.8167241762058 1240.3857680605013
2324.4000741652617 1210.2036918160213
2324.983283106987 1233.6149633292841
2325.5663510330232 1235.943456383135
2326.1492779749933 1238.1325550654688
2326.7320639645204 1446.6356449569978
2327.3147090332004 1653.6397139018513
2327.897213212629 1255.6115123351883
2328.4795765343843 1444.771717949465
2329.0617990300307 1138.042409632546
2329.643880731124 1568.341784452859
2330.22582166921 1208.9205364632594
2330.807621875816 1081.9546612088545
2331.3892813824623 954.8785429709733
2331.9708002206517 1050.7638984898165
2332.5521784218818 1163.8857370765352
2333.133416017634 1277.288192208842
2333.7145130393765 1375.6440741228214
2334.295469518571 1533.8686765214748
2334.876285486658 1583.2989707526942
2335.456960975076 1567.1245464135181
2336.037496015242 1550.9411116540127
2336.6178906385667 1340.5137722526856
2337.198144876451 1357.499667985542
2337.778258760278 1166.9756501981788
2338.3582323214214 1313.4622495866777
2338.938065591243 1460.2563438634293
2339.517758601087 1585.8221265948205
2340.0973113822965 1444.5165555214342
2340.676723966193 1225.2372318603607
2341.255996384094 1502.7624905298512
2341.835128667295 1690.9641187203226
2342.4141208470883 1476.4066868927111
2342.992972954751 1341.0881289532426
2343.5716850215467 1090.1881151909558
2344.1502570787306 838.7547218779262
2344.7286891575386 1002.8209376490962
2345.3069812892045 1141.908019415934
2345.885133504944 1281.1423159610845
2346.4631458359618 1309.9285519589218
2347.04101831345 1051.1854510899973
2347.6187509685915 1133.7826834822165
2348.196343832553 1268.7946543810667
2348.7737969364935 1334.1510343595212
2349.351110311558 1151.590709627548
2349.9282839888765 925.1344785102552
2350.5053179995757 981.7556585856119
2351.0822123747585 1255.5533126813211
2351.658967145526 1465.0327044041574
2352.2355823429643 1409.3249226255825
2352.812057998144 1353.594107584542
2353.3883941421263 1061.5599769677488
2353.9645908059647 1226.1822222003866
2354.540648020693 1194.042201847376
2355.116565817336 1331.036269623255
2355.6923442269126 1174.611385419948
2356.2679832804224 1355.1621998124244
2356.8434830088518 1151.5268636191581
2357.41884344318 1448.2790457781764
2357.994064614377 1513.4886494438917
