#exp_cfg={"servo_angle": 0.0, "laser_lim": 100.0, "servo_angle_to": 18.0, "laser_wup": 0.0, "bt_dev": "EnSpectr-25AE3", "laser_wdn_max": 0.0, "frames": 10.0, "servo_used": 0, "servo_calib_use": 0, "laser_wdn_min": 0.0, "servo_pix_from": 90.0, "cooler_tout": 300.0, "servo_angle_from": 0.0, "servo_calib": "[-1.9174921013161362e-09, 3.9322238269163779e-05, -0.27385609119055809, 653.59552119713567]", "laser_autoctl": 0, "servo_pix_to": 3682.0, "laser_pw": 100.0, "cooler_on": 0, "laser_volt": 4.0, "cooler_autoctl": 0, "cooler_curr": 70.0, "cooler_startup": 10.0, "laser_fixed_pw": 0, "gain": 1.3, "offset": 2.53059635486, "servo_calib_degree": 3.0, "laser_curr": 55.0, "shutter": 8200.0, "servo_calib_step": 1.0, "laser_fixed_curr": 0, "exp": 2000.0, "ccd_volt": 4.7, "bt_addr": "00:06:66:62:5A:E3", "servo_delay": 500.0, "laser_autooff": 1}
#proc_cfg={"flat_auto_wnd": 200.0, "flat_auto_fr": 200.0, "flat_auto_shift": 5.0, "yconv": 1, "flatten": 1, "flatten_strength": 100.0, "xfrom": 300.0, "auto_max_frame": 2000.0, "auto_signal": 48000.0, "flat_auto_tol": 0.1, "autoclip": 1, "xrel_range": 0.0, "flat_auto_to": 4000.0, "intensity_adj": 1.0, "xrel": 7852.0, "rmhot": 1, "flat_auto_slit": 4.999999999999997, "auto_ini_exp": 300.0, "auto_off": 0, "xto": 2860.0, "flat_auto_ref": "", "flat_auto_rank": 1, "autobackg": 0, "xrel_adj": 0.0, "auto_black_lvl": 1, "base_wnd": 100.0, "sub_baseline": 0, "xconv": 2, "auto_max_exp": 1000.0, "auto_total_exp": 10000.0, "auto_exp": 0, "rmripple": 0, "black_lvl": 8243.475, "shutter_clip_adj": 0.0, "auto_bckg": 0, "flat_auto_thr": 0.9, "subbackg": 1}
316.8218498245369 18228.537072523955
317.89969571804795 17996.705900915527
318.977263876126 18122.466622827582
320.05455438786703 17886.507302492893
321.1315673423287 17736.243391961696
322.2083028285215 17822.80524837756
323.2847609354267 17746.72306330593
324.3609417519747 17599.178435588816
325.43684536705587 17621.10154467209
326.5124718695279 17605.290000381116
327.58782134820103 17403.251344739263
328.66289389184385 17431.96646794307
329.7376895891921 17248.635483917566
330.8122085289342 17171.022265084302
331.88645079971866 17167.56391533384
332.9604164901575 16980.047039939414
334.03410568881554 16904.321091950413
335.1075184842266 16948.569643979565
336.18065496487543 16762.9482952981
337.2535152192122 16723.459195010386
338.32609933564163 16670.6789244089
339.39840740253203 16572.123144871228
340.4704395082099 16555.96803822458
341.5421957409617 16509.685250153994
342.6136761890357 16465.126348075864
343.6848809406365 16358.979291419231
344.75581008392874 16233.832713514852
345.82646370703696 16186.023944473136
346.8968418980512 16184.379556056942
347.96694474501055 16112.032450953386
349.0367723359268 16118.246617219495
350.106324758759 16073.176338478026
351.1756021014353 16002.728494759282
352.2446044518383 16033.529195922927
353.31333189781435 16005.579390142171
354.38178452716966 15918.903002746238
355.449962427665 15941.116710766792
356.51786568702846 15879.65160957669
357.58549439294256 15975.738670028202
358.6528486330535 15828.92229203726
359.71992849496564 15831.25422915963
360.7867340662433 15840.959267287219
361.8532654344144 15797.535044428994
362.9195226869597 15863.996432234208
363.9855059113288 15784.611670750155
365.05121519492604 15768.836763708145
366.11665062511565 15802.932858309272
367.1818122892273 15725.278824857396
368.2467002745434 15754.845202052817
369.31131466831175 15739.995600580325
370.375655557742 15719.104662336924
371.4397230299983 15709.12923074461
372.5035171722102 15728.199478401617
373.5670380714637 15648.30491197542
374.6302858148101 15675.132502550394
375.6932604892554 15688.001199441951
376.7559621817709 15719.631096677656
377.81839097928605 15549.031058828787
378.8805469686886 15559.60156676701
379.94243023683157 15657.117221257533
381.0040408705263 15482.780357246496
382.0653789565458 15456.217481670386
383.1264445816196 15518.596539605389
384.1872378324406 15433.115602246797
385.2477587956637 15421.592583673646
386.3080075579037 15295.458610338344
387.3679842057336 15268.85794048848
388.4276888256918 15243.079567597026
389.48712150426945 15253.479394398095
390.54628232792857 15164.786932738449
391.6051713830857 15077.956722439028
392.66378875611736 15130.392780169972
393.7221345333637 15152.000250020152
394.7802088011249 15038.276930236907
395.838011645661 15070.156529781441
396.89554315319765 14917.1584884802
397.9528034099112 14955.669932584467
399.00979250194723 14853.927651895918
400.06651051541485 14866.419883188884
401.1229575363741 14806.570014383644
402.17913365085224 14773.449875601062
403.23503894483656 14809.360042638922
404.2906735042761 14775.481644447034
405.3460374150818 14665.930636768197
406.401130763119 14585.467543602277
407.455953634224 14647.090506032113
408.5105061141876 14615.125575166949
409.56478828876243 14440.53970687754
410.6188002436629 14405.228100559882
411.6725420645689 14417.693599725855
412.72601383711117 14530.451953623337
413.77921564689314 14494.306091375885
414.8321475794728 14315.211111717708
415.88480972036814 14264.937221425245
416.93720215506437 14260.284864783584
417.9893249690049 14246.911993076534
419.04117824759123 14180.63395856917
420.09276207619223 14119.640665454204
421.144076540133 14165.205853654717
422.1951217247042 14026.595078724353
423.24589771515275 14137.222301243353
424.2964045966928 14017.788750064883
425.34664245449494 14012.764882611125
426.3966113736933 13932.947112648946
427.4463114393875 13844.698951599301
428.49574273662984 13896.552663123584
429.5449053504417 13848.40543189215
430.5937993658026 13886.80381397496
431.6424248676558 13785.230830030516
432.6907819409007 13808.00267951615
433.73887067040596 13818.135016147542
434.7866911409965 13805.494625868796
435.8342434374608 13831.509372948374
436.88152764455117 13731.192622461469
437.9285438469724 13705.867375137488
438.9752921294057 13653.899701062237
440.02177257648145 13690.272095756245
441.06798527279716 13595.608951939512
442.1139303029122 13682.266312856813
443.1596077513459 13613.315265515013
444.2050177025794 13562.386385999493
445.25016024105753 13540.300992250002
446.2950354511886 13619.564804060321
447.33964341733736 13556.245226902261
448.383984223834 13460.159744273686
449.4280579549686 13377.236438153861
450.471864694995 13499.157345396728
451.5154045281306 13458.850357333687
452.5586775385509 13484.034525515886
453.60168381039693 13495.360336839847
454.64442342776783 13550.886395324293
455.6868964747264 13489.234254929903
456.7291030353008 13387.211241132052
457.77104319347563 13501.97983259193
458.8127170332027 13394.150177924423
459.854124638392 13402.49459434062
460.895266092919 13584.152757107755
461.93614148061897 13639.727608765668
462.97675088529104 13645.55486255141
464.01709439069236 13621.754611452145
465.0571720805492 13648.507606143767
466.0969840385442 13649.165465832804
467.1365303483253 13803.066989623007
468.17581109350067 13740.650955089051
469.2148263576437 13714.838993180703
470.2535762242878 13741.529739109998
471.29206077693016 13893.742502567311
472.33028009902773 13879.099928406436
473.3682342740012 13832.876122090482
474.40592338523857 13908.887574899558
475.4433475160804 13973.872923640194
476.4805067498364 13929.856825716182
477.51740116978 13892.670602797163
478.5540308591426 13998.677378765666
479.59039590112116 14107.339628271377
480.6264963788726 14140.520603997891
481.6623323755193 14312.408308714008
482.6979039741436 14323.134450548674
483.7332112577915 14533.351367113317
484.76825430947247 14686.591061878786
485.80303321215797 14812.578590102046
486.837548048783 14903.124174770395
487.8717989022425 15115.458518354146
488.90578585539697 15066.646905077558
489.9395089910686 15248.602626612486
490.97296839203955 15101.20911556957
492.00616414106116 15069.48509165618
493.0390963208429 15101.460472822457
494.0717650140559 15038.906009623515
495.10417030333883 14945.819769757562
496.1363122712901 14764.504363260188
497.16819100046814 14508.032515077914
498.1998065734024 14408.80385337192
499.2311590725767 14296.8534556219
500.26224858044407 14130.047970241421
501.2930751794156 13960.49337005513
502.3236389518679 13998.170658191433
503.35393998014115 13765.364609469942
504.38397834653733 13727.43451521115
505.4137541333221 13673.352757988174
506.4432674227228 13513.500549054574
507.4725182969323 13445.925490960959
508.5015068381035 13293.73604639181
509.53023312835467 13295.857394163273
510.55869724976765 13307.165758851426
511.58689928438434 13185.6099783416
512.6148393142121 13063.682764355332
513.6425174212218 13147.973067854065
514.6699336873462 13025.773188177713
515.6970881944835 13062.972976416844
516.7239810244901 12957.179234365592
517.7506122591931 12982.581075767692
518.7769819803761 12930.063237414697
519.8030902697901 12906.026824164865
520.8289372091476 12904.397116173732
521.8545228801249 12971.77788153319
522.8798473643619 12924.296855537983
523.9049107434621 12873.589570713257
524.9297130989908 12838.90753890624
525.9542545124805 12726.05939281084
526.9785350654201 12773.25942342952
528.0025548392696 12827.660200098906
529.0263139154504 12671.240495295175
530.0498123753423 12673.613342532113
531.073050300296 12611.062790574371
532.0960277716204 12545.43564046374
533.1187448705896 12593.439918677162
534.1412016784416 12488.553541855743
535.1633982763833 12482.228973106074
536.1853347455726 12401.537717059055
537.2070111671401 12370.369872538218
538.2284276221817 12413.926464401276
539.2495841917516 12331.428003135352
540.2704809568677 12236.583765976582
541.2911179985167 12321.564847202852
542.3114953976419 12196.744463477908
543.3316132351592 12180.665380574179
544.3514715919409 12122.729412250445
545.3710705488247 12136.06886283689
546.3904101866156 12127.967369730413
547.4094905860784 12185.753551728869
548.4283118279418 12137.79606733835
549.4468739929034 12137.384699663238
550.4651771616191 12194.100103925179
551.4832214147063 12123.19994611206
552.501006832761 12202.826076382424
553.5185334963226 12084.473596511367
554.5358014859103 12138.419674090634
555.5528108820035 12081.657200862672
556.5695617650363 12036.566661765053
557.5860542154242 12210.641218052908
558.6022883135283 12087.79383772872
559.6182641396881 12038.700964679747
560.6339817741991 12078.719748862652
561.6494412973225 12025.864880754645
562.6646427892883 12133.845158970207
563.6795863302796 11958.963708048583
564.694272000459 11988.092974646275
565.7086998799423 12118.264328667343
566.7228700488104 12007.997964768434
567.7367825871115 11928.615002917624
568.7504375748576 11970.718810027542
569.7638350920224 11999.466869106183
570.7769752185486 12001.640326749384
571.7898580343353 11913.964730886813
572.802483619258 11862.155696740389
573.8148520531431 12005.37334219618
574.8269634157932 11988.408646810982
575.8388177869692 11951.33968879308
576.8504152463938 11952.30788715571
577.8617558737587 12068.767825037923
578.8728397487175 12037.618760835956
579.883666950891 12144.73171680943
580.8942375598654 12236.892573958654
581.9045516551851 12321.989268615218
582.9146093163617 12430.178104913086
583.924410622878 12424.49724810979
584.9339556541727 12479.205891215623
585.9432444896538 12468.029967379105
586.9522772086875 12441.08856838922
587.9610538906127 12505.20485865809
588.9695746147318 12425.170519122488
589.9778394603054 12487.780429814147
590.985848506567 12440.028359455684
591.9936018327098 12378.375268873791
593.0010995178891 12167.593794547553
594.0083416412344 12184.35698849341
595.0153282818283 12041.145915890593
596.0220595187293 12012.312676905032
597.0285354309508 11983.55281116423
598.0347560974806 11873.243927263697
599.0407215972609 11864.846571575106
600.0464320092051 11837.354376646781
601.0518874121954 11803.066860308081
602.0570878850685 11735.923173788346
603.062033506636 11718.09752727838
604.0667243556636 11763.700705168465
605.0711605108936 11634.068722071721
606.0753420510264 11859.506299465062
607.0792690547278 11764.983290877175
608.082941600629 11721.33016225199
609.0863597673306 11721.0247743139
610.0895236333909 11779.679197447309
611.0924332773357 11951.77183576007
612.0950887776617 11881.395005566119
613.0974902128219 12020.995673074183
614.0996376612384 12043.550029964339
615.1015312013005 12197.736314726488
616.1031709113595 12237.722218952806
617.1045568697336 12230.254256451775
618.1056891547069 12413.0593382728
619.1065678445229 12635.429832743597
620.1071930173985 12831.876177021652
621.1075647515099 12896.776121767802
622.1076831250048 12983.785159051356
623.1075482159849 13174.706461801
624.1071601025305 13276.808551151684
625.1065188626781 13481.326953734388
626.105624574433 13827.745417678268
627.1044773157682 13839.04658661726
628.1030771646128 13984.337235549106
629.1014241988742 14131.43860035182
630.0995184964158 14167.521812155072
631.0973601350688 14373.210979334684
632.0949491926294 14592.384213806687
633.0922857468631 14372.050191224474
634.089369875499 14427.357517384986
635.0862016562278 14504.991776863171
636.0827811667077 14279.762043854096
637.0791084845641 14300.628561564317
638.0751836873878 14172.122428289586
639.0710068527369 14100.93088909307
640.0665780581294 13910.725424508233
641.0618973810506 13737.86588390142
642.0569648989604 13687.332380141223
643.0517806892676 13461.34204506276
644.0463448293649 13364.564094828465
645.040657396592 13129.287747088738
646.0347184682723 12972.483506688872
647.0285281216875 12785.144024684872
648.0220864340772 12627.165122387423
649.0153934826558 12577.682723208894
650.0084493446047 12515.806321492735
651.0012540970674 12418.482484725018
651.9938078171526 12381.057222502774
652.9861105819346 12201.391227622913
653.9781624684565 12318.416236624798
654.9699635537254 12131.781572145213
655.9615139147136 12122.109128471526
656.9528136283589 11915.099419803071
657.9438627715699 12082.719735110884
658.9346614212154 11853.4332712734
659.925209654135 11771.405466888846
660.9155075471263 11698.301492089908
661.9055551769616 11644.86851340412
662.895352620375 11734.23021921782
663.8848999540678 11567.98291693757
664.8741972547068 11441.419264223332
665.863244598926 11419.727141803854
666.8520420633213 11438.139336842103
667.8405897244611 11328.837592515893
668.8288876588758 11222.14944794342
669.8169359430613 11285.087081515261
670.8047346534822 11262.712946727237
671.7922838665672 11099.655537048748
672.7795836587156 11331.14869414182
673.766634106285 11324.2742453226
674.7534352856092 11123.330141891438
675.7399872729766 11135.120741144841
676.7262901446538 11214.737451838064
677.712343976862 11064.890156311762
678.6981488457986 11255.726327416422
679.6837048276229 11013.94083623498
680.6690119984596 11133.879356006746
681.6540704344043 11076.955015159776
682.6388802115107 11082.081754533168
683.6234414058108 10975.644786978326
684.6077540932874 10928.349459242814
685.591818349907 10867.330397997337
686.575634251587 10892.380444327218
687.5592018742263 10745.90818825607
688.5425212936734 10639.192071552417
689.5255925857564 10866.419403112217
690.5084158262707 10700.906767344923
691.4909910909646 10571.11548885167
692.4733184555644 10657.97171274904
693.4553979957618 10707.36290511362
694.4372297872123 10655.409868781891
695.4188139055404 10540.34329102783
696.4001504263324 10546.318693500667
697.3812394251509 10653.842013823432
698.3620809775111 10558.10588559834
699.3426751589104 10617.653661678081
700.3230220448004 10611.47201070999
701.3031217106054 10614.720802796666
702.2829742317172 10771.260468100923
703.2625796834873 10563.473847250334
704.2419381412474 10537.085023725125
705.22104968028 10553.950132881802
706.1999143758458 10544.039740302203
707.178532303169 10506.415133832856
708.1569035374378 10577.976561174579
709.1350281538107 10650.469974839512
710.1129062274158 10655.800594843262
711.0905378333373 10760.689660450544
712.0679230466376 10810.361719113811
713.0450619423427 11018.465775923767
714.0219545954424 11133.781504430122
714.9986010808989 11093.021524054353
715.9750014736292 11244.654918701312
716.9511558485392 11405.696372810773
717.9270642804786 11633.055015028689
718.9027268442787 11732.28113227573
719.8781436147328 11788.668219224275
720.8533146666014 11775.919963744418
721.828240074612 11760.156329582205
722.8029199134635 11750.540943785749
723.7773542578125 11647.962562579742
724.751543182294 11561.502859569868
725.7254867615029 11609.2342228011
726.6991850700015 11301.562761842823
727.6726381823228 11300.721509480685
728.6458461729599 11296.14262544778
729.6188091163858 11231.871040675805
730.5915270870246 11317.0261253666
731.5640001592856 11322.351638588527
732.536228407529 11419.232809579162
733.5082119060917 11545.186024288862
734.4799507292755 11590.49978026532
735.4514449513481 11615.728682171984
736.4226946465496 11744.454034894048
737.3936998890786 11673.269368795332
738.3644607531078 11608.018689621507
739.3349773127793 11635.534634389844
740.3052496421951 11458.726693001405
741.27527781543 11304.464944627027
742.2450619065221 11115.532062660273
743.2146019894826 10934.628001186144
744.183898138288 10857.873568851097
745.1529504268801 10692.685647800034
746.1217589291682 10464.225753843832
747.0903237190341 10420.158208557647
748.058644870318 10235.745571136966
749.0267224568397 10104.446067740773
749.994556552374 9961.856364042378
750.9621472306771 9947.81769247235
751.9294945654583 9927.223237631712
752.8965986304011 9891.45672382403
753.8634594991636 9716.495266169253
754.8300772453586 9870.659993251476
755.7964519425768 9728.77028381779
756.762583664371 9814.682008034608
757.7284724842611 9773.482904928209
758.6941184757416 9674.082394012428
759.6595217122667 9704.36701075255
760.6246822672638 9597.739715514874
761.5896002141235 9515.403192999316
762.5542756262093 9611.416058447954
763.5187085768503 9693.144164012741
764.4828991393406 9565.910746813863
765.4468473869474 9613.753743959456
766.4105533929032 9607.8478888663
767.3740172304078 9451.984334676417
768.3372389726283 9577.327592130965
769.3002186926988 9424.920718351572
770.2629564637282 9322.864709791598
771.2254523587872 9293.394098636421
772.1877064509154 9261.539065661882
773.1497188131179 9185.631875352878
774.1114895183728 9168.338913273243
775.0730186396268 9078.3935515337
776.0343062497905 9118.803852124567
776.9953524217381 9040.278710507599
777.9561572283274 8977.784197429626
778.9167207423689 9026.654853081498
779.8770430366476 9057.679703015163
780.8371241839159 9068.126553432876
781.7969642568951 9024.890379703478
782.7565633282757 9153.529096238393
783.7159214707099 8975.947955751994
784.6750387568281 9023.862471010489
785.6339152592227 9035.443439093262
786.5925510504512 8878.368682542354
787.5509462030477 8972.009929321632
788.5091007895098 8946.187409417329
789.4670148823006 8937.217406082626
790.4246885538596 8967.453736336349
791.3821218765861 8993.174756548291
792.3393149228505 8855.964995096305
793.2962677649975 8974.28192409541
794.2529804753303 9003.437208624457
795.20945312613 8967.25711110792
796.1656857896378 8893.542807955248
797.1216785380675 8943.608172591703
798.0774314435985 9039.651747083057
799.0329445783846 9197.858789764014
799.9882180145414 9188.769123010059
800.9432518241574 9208.821177999369
801.89804607929 9279.521608235076
802.852600851962 9322.776723337676
803.8069162141637 9320.1815093584
804.760992237856 9392.942209278506
805.714828994971 9445.846046105215
806.6684265574077 9556.566657465162
807.6217849970271 9418.28570065019
808.574904385674 9447.762487726472
809.527784795142 9439.941800357703
810.4804262972102 9564.699108500601
811.4328289636178 9328.94533292697
812.3849928660748 9221.064800167413
813.3369180762638 9087.504583130027
814.2886046658241 9131.805805654276
815.2400527063783 9013.06777823686
816.1912622695108 8968.838476884888
817.1422334267718 8901.676813963468
818.0929662496856 8879.034362455199
819.0434608097457 8669.433745895674
819.9937171784059 8701.499472055868
820.9437354271013 8585.702142222637
821.8935156272255 8635.709997787288
822.8430578501484 8564.813968177526
823.7923621672016 8462.354109277634
824.7414286496896 8474.233278576463
825.6902573688876 8495.229673021813
826.6388483960363 8422.529706713598
827.5872018023492 8351.058193235931
828.5353176590033 8432.143693823857
829.4831960371503 8294.050245566094
830.4308370079016 8323.985374213413
831.3782406423525 8235.0222941162
832.3254070115545 8301.840733277617
833.2723361865319 8268.198548846536
834.2190282382799 8217.592494348979
835.1654832377644 8313.890363808603
836.1117012559116 8234.766746881203
837.0576823636256 8334.11286685886
838.003426631778 8133.217504677409
838.9489341312074 8155.25872057898
839.8942049327197 8273.639036511024
840.8392391070975 8251.70851632872
841.7840367250865 8181.312920652525
842.7285978573982 8143.322774443247
843.672922574724 8227.055131759224
844.6170109477152 8177.487442743953
845.560863046996 8128.461071467997
846.5044789431595 8189.586070690884
847.4478587067697 8163.5516620541075
848.3910024083561 8308.10287472467
849.333910118421 8213.58542366382
850.2765819074339 8103.280161196255
851.2190178458332 8298.198806241697
852.161218004032 8212.186276798277
853.1031824524016 8180.490156751557
854.0449112612987 8190.85208858666
854.9864045010327 8136.922608022937
855.9276622418947 8179.63534402014
856.8686845541379 8190.967073117473
857.8094715079915 8103.780971709088
858.7500231736467 8221.228805777346
859.690339621271 8264.685241685034
860.6304209209939 8197.679795022017
861.5702671429244 8066.659651140876
862.5098783571284 8136.47050745412
863.4492546336569 8117.333114971249
864.3883960425155 8152.3708890991375
865.3273026536863 8065.822438066532
866.2659745371238 8117.710906313085
867.2044117627465 8287.61887247091
868.1426144004472 8158.224607154583
869.0805825200823 8198.608402781869
870.0183161914847 8307.519929750262
870.9558154844526 8331.912987945838
871.8930804687552 8250.648326128747
872.8301112141307 8218.755997407448
873.7669077902865 8354.860655722403
874.7034702669062 8465.887324022082
875.6397987136315 8440.333290459004
876.5758932000863 8414.70056684716
877.5117537958522 8459.638973492174
878.4473805704911 8430.26690206362
879.3827735935283 8448.557419121544
880.3179329344603 8544.5512664397
881.2528586627541 8602.263312425679
882.1875508478479 8637.659094685618
883.1220095591489 8528.176760210163
884.0562348660296 8451.829988349988
884.9902268378391 8611.108235493772
885.9239855438955 8533.514372871534
886.8575110534839 8501.391538523041
887.7908034358588 8512.53996065861
888.7238627602474 8439.171676883785
889.6566890958475 8522.375289308253
890.5892825118208 8344.234439051757
891.5216430773125 8374.343594206728
892.4537708614189 8331.998324295502
893.3856659332196 8180.56744852611
894.3173283617652 8155.24877109923
895.2487582160684 8198.521671196073
896.179955565116 8147.556601146387
897.110920477864 8059.167508772922
898.0416530232451 8068.859308429564
898.9721532701478 7962.149691698918
899.9024212874428 8040.109953488715
900.8324571439662 7944.186011170018
901.7622609085302 7916.016480913468
902.6918326499072 7916.166304643113
903.6211724368477 7914.891365657209
904.5502803380696 7975.768133636276
905.4791564222614 7979.6455519727515
906.4078007580792 7872.173915170762
907.3362134141571 7793.127862309802
908.2643944590909 7949.646654464263
909.1923439614493 7798.870236524088
910.1200619897754 7856.055185376861
911.0475486125779 7960.779463663409
911.9748038983344 7854.293534259654
912.9018279155007 7763.303746493881
913.8286207324982 7735.197252281342
914.7551824177117 7867.6610994983075
915.6815130395116 7852.699692144402
916.6076126662283 7727.181175260182
917.533481366163 7741.102187355168
918.4591192075914 7825.895399220803
919.3845262587565 7804.026339197737
920.3097025878706 7686.6138909450865
921.2346482631237 7670.355383857213
922.1593633526682 7726.080626068341
923.0838479246304 7734.268165077451
924.0081020471061 7783.887147573865
924.9321257881656 7590.235050904822
925.8559192158464 7591.686858143841
926.7794823981512 7533.978323262347
927.7028154030686 7512.954064483885
928.6259182985414 7453.244112665117
929.5487911524906 7617.66945655463
930.4714340328119 7592.357384296818
931.3938470073608 7416.018475962213
932.3160301439748 7453.543487409724
933.2379835104548 7517.047504114098
934.1597071745709 7537.983586386241
935.0812012040769 7510.854174367376
936.002465666681 7553.551454628747
936.9235006300696 7517.804783470383
937.8443061619055 7488.020175654614
938.7648823298077 7410.626306480536
939.6852292013809 7475.270380610081
940.6053468441951 7471.439707749565
941.5252353257874 7444.859162582665
942.4448947136698 7486.545030858475
943.364325075323 7436.82773807183
944.2835264782043 7418.570209580187
945.2024989897309 7379.945773590533
946.1212426773054 7427.630415752661
947.0397576082851 7499.262680875714
947.9580438500125 7599.332887576436
948.8761014697939 7598.532174434586
949.7939305349064 7534.083124811266
950.7115311125999 7443.729502989753
951.6289032700952 7432.8879719183915
952.5460470745875 7575.203611852395
953.4629625932339 7454.711282752299
954.3796498931715 7491.810241979967
955.2961090415029 7540.676883499557
956.2123401053068 7567.470039355103
957.1283431516276 7516.2057022202625
958.0441182474842 7384.930426759618
958.9596654598663 7524.016412238523
959.8749848557309 7541.642834385541
960.7900765020167 7476.086469169003
961.7049404656209 7377.126657788949
962.6195768134185 7459.851201466229
963.5339856122537 7401.351391055125
964.4481669289453 7470.766623176203
965.3621208302793 7384.7840079688785
966.2758473830145 7386.444913477829
967.1893466538822 7420.966138249295
968.1026187095813 7384.749556290629
969.0156636167867 7377.1726104883655
969.9284814421426 7456.786846537123
970.8410722522622 7311.324707103675
971.753436113735 7240.957272931165
972.6655730931161 7360.967632089027
973.5774832569368 7369.1098964749735
974.4891666716958 7291.409035258956
975.4006234038698 7221.020001037514
976.3118535198955 7220.558699559891
977.2228570861935 7394.128864218573
978.1336341691494 7353.613192597704
979.0441848351202 7189.691588640157
979.9545091504333 7327.227724582894
980.864607181391 7327.058253488661
981.7744789942699 7257.354315297152
982.6841246553086 7355.303102962198
983.5935442307236 7300.374319428876
984.5027377867027 7336.943102498197
985.4117053894024 7320.384889711326
986.3204471049557 7279.861982087881
987.2289629994648 7389.33704147977
988.1372531390007 7445.772889767542
989.0453175896091 7425.027454913705
989.9531564173067 7323.77713683406
990.860769688079 7350.049331691009
991.7681574678918 7417.347916299145
992.6753198226706 7422.864808221342
993.582256818323 7370.2857102216685
994.4889685207218 7431.794160890463
995.3954549957143 7502.714798447365
996.301716309119 7495.01905646729
997.2077525267232 7574.956771641346
998.1135637142943 7467.276106598617
999.0191499375615 7563.997525243552
999.924511262232 7488.214173551848
1000.8296477539861 7567.288171297156
1001.7345594784656 7463.235246126695
1002.6392465012996 7491.108339626437
1003.5437088880753 7558.015082911343
1004.4479467043584 7566.03471356776
1005.3519600156869 7448.408415215583
1006.2557488875718 7475.196802025865
1007.1593133854858 7435.246495035319
1008.0626535748888 7381.744097108186
1008.9657695212009 7320.781349259776
1009.8686612898182 7562.044648410585
1010.7713289461135 7426.218748493605
1011.6737725554212 7362.414305486354
1012.5759921830577 7411.180013874201
1013.4779878943027 7385.235199195777
1014.379759754418 7415.0189370582175
1015.2813078286254 7294.275992843681
1016.18263218213 7221.815042195645
1017.0837328801026 7267.37460134962
1017.9846099876886 7242.418226303847
1018.8852635700023 7178.568883369953
1019.7856936921362 7091.787299703472
1020.6859004191447 7257.889149768016
1021.5858838160675 7036.485086699921
1022.4856439479063 7139.026161039203
1023.3851808796389 7095.035216401603
1024.2844946762143 7168.0247481532115
1025.183585402554 7123.567068085006
1026.082453123554 7005.706020916825
1026.9810979040776 7079.028179039701
1027.8795198089647 7064.646639643141
1028.777718903024 7102.272213092113
1029.6756952510368 6995.654939769318
1030.5734489177648 7042.5097384711535
1031.4709799679313 7010.1826345968675
1032.3682884662358 7089.245711119508
1033.2653744773506 6943.659020930511
1034.1622380659192 7012.727534026174
1035.058879296559 7071.1828745898
1035.9552982338591 7188.267475542329
1036.8514949423825 7128.856812233957
1037.7474694866614 7172.013219253332
1038.6432219312028 7161.3164264878
1039.5387523404825 7460.139124374678
1040.4340607789582 7397.405458514988
1041.3291473110476 7533.738633271135
1042.2240120011465 7652.300051383574
1043.1186549136273 7762.0964076983855
1044.0130761128294 7892.113059694768
1044.9072756630649 7975.908929513773
1045.8012536286205 8113.7589284917485
1046.6950100737577 8223.586225157556
1047.588545062701 8395.871961137835
1048.481858659663 8344.295078201669
1049.3749509288118 8479.652254697798
1050.2678219343034 8407.797913487124
1051.1604717402515 8366.352630557527
1052.0529004107575 8269.479456795478
1052.9451080098825 8464.283198635929
1053.8370946016694 8330.88449200248
1054.7288602501267 8325.471977698468
1055.6204050192446 8169.025704613559
1056.511728972977 8171.4376443728015
1057.402832175254 8005.517028490232
1058.2937146899785 7862.1024379018345
1059.1843765810263 7744.328652917997
1060.0748179122456 7724.890026519676
1060.9650387474576 7657.681142604338
1061.855039150456 7566.310609211934
1062.7448191850071 7555.534393157352
1063.6343789148505 7383.3618824566565
1064.5237184037014 7545.563894566088
1065.412837715241 7318.934086815602
1066.3017369131267 7245.053529941611
1067.190416060992 7203.210064539399
1068.0788752224398 7148.510193908856
1068.9671144610438 7081.8417699249985
1069.8551338403558 7175.913424807319
1070.7429334239023 7208.447967517537
1071.6305132751695 7047.706356304926
1072.517873457633 7062.613208818582
1073.4050140347335 6987.873233001499
1074.2919350698776 7046.238958401964
1075.1786366264623 6970.171295252611
1076.0651187678395 6994.145149432731
1076.95138155735 6834.41028077074
1077.8374250582929 6886.3011726257555
1078.7232493339507 6879.255080640578
1079.608854447577 6861.901394270814
1080.4942404623907 6824.108870105265
1081.3794074415982 6903.160553540239
1082.2643554483657 6959.540631308482
1083.149084545841 6836.1839258327
1084.033594797138 6736.235539969035
1084.9178862653516 6851.722350646545
1085.8019590135427 6960.318375439715
1086.6858131047484 6786.966709291055
1087.5694486019802 6925.701641997737
1088.4528655682225 6853.444158608909
1089.3360640664287 6978.410761223737
1090.2190441595321 6934.501762375883
1091.1018059104317 6908.111514427817
1091.98434938201 7035.0487972311985
1092.866674637111 7011.400466193794
1093.748781738559 6974.795117951149
1094.6306707491512 6872.126172083343
1095.5123417316554 6972.365747304194
1096.3937947488157 6919.184643252702
1097.2750298633455 6902.754788448295
1098.156047137938 6908.56032001905
1099.0368466352556 6867.751583396612
1099.9174284179317 7042.502044542938
1100.7977925485757 6799.6982508176125
1101.6779390897755 6914.83310600147
1102.5578681040806 6751.4509893396635
1103.4375796540226 6851.638822404655
1104.3170738021054 6804.446568581674
1105.1963506108077 6672.82722841624
1106.0754101425773 6653.498242092703
1106.9542524598382 6746.860589865576
1107.8328776249855 6656.978657943089
1108.7112857003904 6634.226146500808
1109.5894767483987 6667.220036673718
1110.4674508313292 6771.437516928301
1111.3452080114657 6596.046788978233
1112.2227483510815 6655.180957886451
1113.1000719124077 6712.643755843409
1113.9771787576592 6741.788289630995
1114.854068949022 6717.0476425391025
1115.7307425486542 6739.726167896598
1116.6071996186893 6734.19072537179
1117.483440221229 6933.145034901189
1118.3594644183577 6899.0372718973185
1119.235272272128 6915.68563039018
1120.1108638445658 6889.624216843552
1120.9862391976712 7297.026006188639
1121.8613983934229 7190.577122409241
1122.7363414937627 7206.47290770435
1123.6110685606182 7282.073454471627
1124.485579655884 7399.4572094259665
1125.359874841426 7383.8674606412005
1126.2339541790916 7412.652270759483
1127.1078177306936 7613.4758793943965
1127.9814655580267 7542.527210668961
1128.854897722851 7538.640759127115
1129.7281142869106 7578.977836130308
1130.6011153119125 7662.041344460034
1131.473900859548 7737.1331045463985
1132.3464709914697 7578.387005257801
1133.2188257693178 7620.465153895583
1134.0909652546961 7496.404489807387
1134.96288950919 7401.685796576591
1135.8345985943506 7600.190356207679
1136.7060925717087 7322.416257161026
1137.57737150277 7416.525547167257
1138.4484354490069 7387.266993923966
1139.3192844718778 7242.9573738672825
1140.1899186327992 7010.17186390731
1141.060337993178 7205.901092987493
1141.930542614382 7107.137930348462
1142.8005325577597 6956.10261031314
1143.670307884635 6821.298518904216
1144.5398686563003 6811.529886407092
1145.409214934025 6810.286788359476
1146.2783467790541 6606.207739837497
1147.1472642526023 6654.269102744211
1148.0159674158622 6775.099042867824
1148.8844563300026 6620.842686044452
1149.7527310561618 6601.599650441855
1150.6207916554504 6407.143233944708
1151.4886381889592 6398.68325183786
1152.3562707177498 6492.3327054762185
1153.2236893028585 6493.266711366859
1154.090894005296 6406.863909840754
1154.9578848860474 6353.222586799357
1155.8246620060709 6353.719616757861
1156.6912254262988 6292.093927603861
1157.5575752076438 6298.440150995352
1158.42371141098 6421.056106316141
1159.2896340971656 6343.467435981776
1160.1553433270346 6246.048503237168
1161.0208391613887 6293.748469931995
1161.8861216610057 6294.983430359325
1162.75119088664 6312.839683749959
1163.6160468990201 6229.419261136841
1164.4806897588442 6141.047490589575
1165.3451195267917 6233.843915847514
1166.2093362635114 6254.543123356378
1167.0733400296285 6256.854026185209
1167.9371308857444 6243.169414255914
1168.8007088924278 6151.447132509282
1169.6640741102328 6211.959930848594
1170.5272265996773 6130.617693352424
1171.390166421259 6065.682529435026
1172.252893635452 6254.48261432943
1173.1154083026995 6250.746611584522
1173.977710483421 6272.2804564849075
1174.8398002380145 6206.043074980821
1175.7016776268483 6268.589407477138
1176.563342710264 6222.47420147417
1177.4247955485826 6187.311015159674
1178.2860362020947 6244.104413734712
1179.147064731069 6093.204209950631
1180.0078811957483 6239.1889716494425
1180.8684856563486 6220.6259872419605
1181.7288781730604 6237.07114124476
1182.589058806052 6287.40707205344
1183.4490276154593 6423.764831058129
1184.3087846614017 6200.484762420013
1185.1683300039676 6334.481140908358
1186.027663703222 6334.399575396192
1186.8867858192025 6414.376547587544
1187.7456964119228 6391.723011145759
1188.6043955413716 6432.319890476548
1189.4628832675116 6500.64194526394
1190.3211596502842 6632.7717495135685
1191.179224749596 6699.633643948975
1192.0370786253388 6477.364825490562
1192.8947213373758 6712.840154300002
1193.7521529455407 6796.329620436333
1194.6093735096438 6679.708772022883
1195.466383089477 6687.106543495835
1196.3231817447977 6712.909459539762
1197.1797695353398 6791.534562342759
1198.0361465208189 6678.674928488249
1198.8923127609214 6776.0893906246565
1199.7482683153048 6796.530762252369
1200.6040132436028 6836.2399352700595
1201.459547605431 6678.967887043058
1202.3148714603722 6837.670285833492
1203.1699848679855 6875.149706518471
1204.0248878878065 6856.946630109187
1204.8795805793507 6604.637222162567
1205.7340630020935 6810.611296491683
1206.5883352155033 6764.156479669602
1207.4423972790064 6792.3604798708475
1208.2962492520237 6694.302909882814
1209.1498911939307 6642.9714622956935
1210.0033231640937 6596.51544482505
1210.8565452218427 6508.839198548783
1211.7095574264913 6349.75189541163
1212.5623598373222 6454.63494507594
1213.4149525135963 6391.833271613166
1214.2673355145507 6440.757314050795
1215.1195088993936 6362.283176892471
1215.9714727273113 6219.344913913197
1216.8232270574663 6451.448901537021
1217.6747719489904 6224.036058918229
1218.5261074609934 6131.989030953231
1219.3772336525653 6318.791992260936
1220.2281505827668 6397.210115547757
1221.0788583106296 6345.307504245983
1221.9293568951707 6160.9746571621
1222.7796463953746 6004.636887545749
1223.629726870202 6210.273117678811
1224.4795983785934 6159.61981231179
1225.3292609794553 6152.607792478858
1226.1787147316809 6029.996257477991
1227.0279596941327 6102.3998280731585
1227.8769959256424 6106.493866575897
1228.7258234850306 6156.153447943326
1229.5744424310833 5954.470238917955
1230.422852822563 6089.265144545884
1231.2710547182105 6172.997146361714
1232.119048176739 6091.572335327619
1232.9668332568417 5898.30895565283
1233.8144100171812 6015.465813210825
1234.6617785163999 6030.080324156997
1235.508938813111 5928.874976368132
1236.3558909659114 5908.140127281794
1237.2026350333617 6091.602938263818
1238.049171074008 6133.427346562598
1238.8954991463652 5935.136380329668
1239.741619308932 6035.869706114992
1240.587531620169 6066.107917250554
1241.4332361385277 6094.8366879025625
1242.2787329224248 5902.314876006815
1243.1240220302534 5862.472964120314
1243.9691035203869 5839.3207439053385
1244.813977451171 6123.293037520978
1245.6586438809263 6008.13815581092
1246.5031028679496 5835.872171144361
1247.3473544705157 5989.19248899819
1248.1913987468706 6071.999284450304
1249.0352357552383 5857.80245437833
1249.8788655538228 5963.723634653942
1250.7222882007918 6061.572784676283
1251.565503754302 6071.379290598128
1252.4085122724755 5854.572761564661
1253.2513138134182 6077.052266400332
1254.0939084352049 6090.811170622619
1254.9362961958905 5989.7380836728535
1255.7784771535007 5981.770845727255
1256.6204513660432 6022.8806817632885
1257.4622188915 6206.954191459315
1258.3037797878242 6057.555806539538
1259.1451341129468 5984.465562531432
1259.9862819247755 6077.99919559551
1260.8272232811978 5961.809632058122
1261.6679582400666 6069.390565095816
1262.5084868592203 6010.470805582425
1263.34880919647 6007.000562149419
1264.1889253095997 6063.876031146857
1265.0288352563712 6099.0816549837045
1265.8685390945266 5900.900703420932
1266.7080368817751 6078.509617460708
1267.5473286758115 6148.681732813127
1268.386414534294 6169.751939318697
1269.2252945148703 5863.679566929712
1270.0639686751547 6015.548694814357
1270.9024370727402 6004.230215474227
1271.7406997651997 6007.957848386761
1272.5787568100714 5823.70646358484
1273.4166082648808 5876.4360810088465
1274.2542541871244 5896.966228992964
1275.091694634275 6136.055965028893
1275.9289296637817 5805.667737911975
1276.7659593330663 6017.887073234532
1277.6027836995308 5880.171945955217
1278.4394028205552 6004.142813194892
1279.2758167534867 6016.713295565628
1280.112025555658 5971.463898029394
1280.9480292843746 5885.763354809504
1281.7838279969128 5839.679852644266
1282.6194217505326 5920.394980249808
1283.4548106024686 5753.563006638775
1284.289994609926 5876.268929327979
1285.1249738300921 6035.34946720853
1285.959748320127 5877.623231839327
1286.7943181371702 5907.269613933909
1287.6286833383328 5879.361324732488
1288.4628439807038 5924.851745059631
1289.2968001213521 5820.995404380429
1290.1305518173194 5887.539163321491
1290.9640991256183 6007.631375195553
1291.7974421032523 5894.466275949906
1292.630580807183 5955.593631110812
1293.463515294361 6051.220757565521
1294.29624562171 6138.602091720542
1295.12877184613 6025.8999064609
1295.961094024493 5974.18648432009
1296.79321221365 6100.732602068982
1297.6251264704333 6181.5188184809485
1298.4568368516466 6374.312690809282
1299.2883434140658 6261.2940500571885
1300.1196462144526 6129.239351950144
1300.9507453095375 6355.875209555663
1301.7816407560313 6335.053198645322
1302.6123326106172 6385.34460538962
1303.4428209299622 6275.954967439975
1304.2731057707024 6511.656832315569
1305.1031871894502 6370.707833630255
1305.933065242798 6472.545077345097
1306.7627399873181 6366.099424553211
1307.5922114795467 6648.9533692818395
1308.4214797760123 6537.718760485367
1309.2505449332057 6450.162410826297
1310.0794070076026 6504.702049525231
1310.9080660556538 6567.680871799766
1311.736522133786 6609.9777971708345
1312.5647752983987 6464.693520641991
1313.3928256058734 6427.202726495429
1314.2206731125661 6518.436670198863
1315.048317874809 6660.634642341441
1315.8757599489109 6623.612638465881
1316.7029993911547 6686.431320659694
1317.5300362578055 6771.101791955839
1318.356870605101 6493.256166631186
1319.183502489257 6505.797004560073
1320.0099319664623 6682.92268256431
1320.836159092889 6746.082648423602
1321.66218392468 6667.130985185611
1322.4880065179532 6482.7522597394
1323.3136269288134 6627.722614457666
1324.1390452133292 6739.06329452287
1324.9642614275563 6726.07892265986
1325.7892756275214 6560.834781722042
1326.6140878692295 6499.153599663203
1327.4386982086617 6845.230471666313
1328.2631067017755 6572.922541359787
1329.0873134045069 6685.594540772448
1329.911318372764 6533.7310567030045
1330.735121662441 6428.3814654282105
1331.558723329399 6451.109339627565
1332.3821234294774 6412.136015696019
1333.2053220185007 6426.795017572031
1334.0283191522612 6360.35233627072
1334.851114886529 6430.37952292658
1335.6737092770582 6309.0090583545525
1336.4961023795695 6245.68901239503
1337.3182942497697 6202.525863207179
1338.1402849433325 6277.320674935812
1338.962074515921 6041.358870306186
1339.7836630231632 5992.780849178425
1340.6050505206676 6419.25161779411
1341.426237064028 6220.854099776367
1342.2472227088037 6054.197661583405
1343.0680075105338 5867.640281698235
1343.888591524741 6003.613009035393
1344.7089748069138 6106.125141463717
1345.5291574125276 5951.774455129814
1346.3491393970307 5887.400215141355
1347.168920815846 5946.4178391729165
1347.9885017243778 5894.333751747671
1348.8078821780036 5933.059344390149
1349.6270622320844 5858.885336127254
1350.4460419419447 5788.173853977909
1351.2648213629054 5808.457917289512
1352.0834005502438 5731.804308365118
1352.90177955923 5684.306998222581
1353.7199584451064 5824.232285778426
1354.5379372630887 5899.72346494755
1355.355716068374 5733.964417962243
1356.1732949161305 5701.563312007033
1356.9906738615155 5744.188439480751
1357.8078529596478 5706.363556138562
1358.6248322656375 5776.74227546545
1359.441611834567 5657.301917311491
1360.2581917214866 5761.691913725876
1361.0745719814367 5653.219573541293
1361.890752669433 5647.762332313443
1362.7067338404577 5570.4973379188605
1363.5225155494845 5710.90838654497
1364.3380978514506 5777.452678591529
1365.1534808012839 5480.188426547332
1365.9686644538815 5394.972865494162
1366.783648864117 5634.124485083384
1367.5984340868417 5713.438749844701
1368.413020176893 5605.9810027974445
1369.2274071890715 5654.220654157074
1370.0415951781652 5635.367713337235
1370.8555841989346 5685.344410549142
1371.6693743061223 5512.282449142642
1372.48296555444 5436.749478902765
1373.2963579985844 5714.605362744234
1374.1095516932255 5630.40491644461
1374.9225466930166 5393.630842520826
1375.7353430525782 5570.5660686155215
1376.5479408265164 5451.012320917361
1377.36034006941 5533.235515687873
1378.1725408358216 5484.6847200945995
1378.9845431802805 5420.590019758563
1379.796347157304 5660.829255560935
1380.6079528213813 5558.753309661726
1381.4193602269788 5398.696181084631
1382.230569428546 5480.1428629636275
1383.0415804805016 5510.202970406686
1383.852393437246 5439.397762081004
1384.6630083531563 5501.665678153329
1385.4734252825892 5387.221403244271
1386.2836442798798 5527.37041106068
1387.0936653993322 5510.539392290453
1387.9034886952395 5467.220192259583
1388.713114221864 5508.253221863433
1389.5225420334482 5554.078666911204
1390.331772184214 5478.051243774662
1391.1408047283585 5332.321073091513
1391.9496397200564 5437.180729926631
1392.758277213461 5591.70157586703
1393.5667172627054 5610.756505116036
1394.3749599218918 5462.840912656326
1395.1830052451114 5369.815796125138
1395.9908532864265 5458.241082052984
1396.7985040998774 5576.408824030089
1397.6059577394808 5387.99964333344
1398.4132142592352 5493.2762222438105
1399.2202737131156 5390.374645492315
1400.027136155073 5551.325963407815
1400.8338016390353 5383.957829925148
1401.6402702189134 5368.126083480131
1402.446541948586 5514.48606783869
1403.2526168819204 5293.058434173224
1404.058495072757 5301.610286257079
1404.8641765749107 5405.174694000803
1405.6696614421799 5443.808166544086
1406.4749497283356 5686.339773498367
1407.280041487129 5249.004167772846
1408.084936772295 5133.898219734092
1408.8896356375335 5349.087373861262
1409.6941381365323 5362.7278315385165
1410.498444322955 5180.380411125257
1411.3025542504402 5284.95244070341
1412.106467972606 5322.919912763418
1412.9101855430508 5261.157201776065
1413.7137070153458 5050.407752007445
1414.5170324430437 5176.525378017379
1415.320161879672 5323.748238304991
1416.1230953787435 5379.037798734476
1416.925832993742 5110.876918886025
1417.7283747781275 5124.777603718493
1418.5307207853439 5203.776450084677
1419.3328710688093 5147.86548330798
1420.134825681922 4987.846039011133
1420.9365846780584 5062.720775739157
1421.7381481105713 5341.590807750583
1422.539516032788 5138.796448828223
1423.3406884980232 5168.747667733006
1424.1416655595604 5084.857301560607
1424.942447270665 5126.75236990634
1425.7430336845828 5247.348884536163
1426.5434248545298 5110.710014979421
1427.3436208337116 5255.3716210707835
1428.143621675301 5243.01551322746
1428.9434274324558 5420.462133626151
1429.7430381583108 5097.561304406821
1430.5424539059713 5255.6163061701
1431.3416747285337 5496.11158534875
1432.1407006790632 5401.348344858906
1432.9395318106053 5403.236449905806
1433.7381681761835 5238.777626167871
1434.5366098288014 5452.484242954356
1435.3348568214424 5403.782059242937
1436.1329092070573 5338.410189489124
1436.9307670385879 5415.424767494484
1437.7284303689503 5521.439807243382
1438.5258992510335 5533.017788639922
1439.3231737377118 5445.460813330732
1440.1202538818306 5415.317816197599
1440.9171397362225 5300.014088591693
1441.7138313536925 5319.026640686482
1442.5103287870243 5254.955447627124
1443.3066320889775 5249.535740375932
1444.1027413122956 5427.4407342979175
1444.8986565096966 5250.9082392701475
1445.694377733882 5214.06394327361
1446.4899050375207 5100.643390068226
1447.2852384732687 5290.817047298375
1448.0803780937622 5301.316516044496
1448.8753239516063 5042.594032696537
1449.6700760993954 4970.7612889798675
1450.464634589689 5109.35902861709
1451.2589994750397 5313.154001687278
1452.0531708079689 4945.799435930867
1452.8471486409799 4759.582492438888
1453.6409330265524 5133.1018662318465
1454.4345240171442 4954.728249388769
1455.2279216651987 4879.002038926464
1456.0211260231263 4955.3691068754215
1456.8141371433194 5259.462386596333
1457.6069550781594 4986.925677446339
1458.3995798799897 4894.978110959452
1459.1920116011424 4803.512119441994
1459.98425029393 4701.449182478056
1460.7762960106338 4857.80996378506
1461.5681488035225 4926.495079787142
1462.3598087248392 4826.370209492369
1463.1512758268036 4950.83397875152
1463.942550161617 4684.318641143821
1464.7336317814625 4802.340160529
1465.524520738496 4838.815977606438
1466.3152170848552 4728.180718742808
1467.1057208726506 4702.6968037199285
1467.8960321539817 4709.847517240243
1468.6861509809169 4591.6229612173465
1469.4760774055085 4725.371503009515
1470.265811479785 4687.966429319147
1471.055353255755 4498.52312780293
1471.844702785409 4489.9498979152695
1472.6338601207044 4549.991589834936
1473.4228253135934 4686.511694152452
1474.2115984159936 4498.748579250625
1475.0001794798063 4279.360269207706
1475.7885685569145 4615.524431322796
1476.576765699172 4505.865312485289
1477.3647709584238 4543.904487391212
1478.1525843864802 4656.167115956159
1478.9402060351367 4484.829308918488
1479.7276359561693 4533.048619585186
1480.514874201328 4424.65654849665
1481.3019208223468 4370.848329318497
1482.0887758709323 4267.2402932535315
1482.8754393987747 4514.019061303306
1483.6619114575406 4421.023195076498
1484.4481920988783 4519.159352047745
1485.2342813744108 4402.030989053219
1486.0201793357446 4543.187299775884
1486.8058860344572 4394.795327487231
1487.591401522117 4357.253569246781
1488.3767258502594 4415.309867116087
1489.1618590704056 4388.562904760278
1489.9468012340494 4275.041788746722
1490.7315523926754 4450.361471303596
1491.5161125977356 4463.987301499469
1492.3004819006637 4413.8227948219
1493.084660352877 4375.415330058974
1493.8686480057622 4471.034298524557
1494.6524449106964 4636.505759367827
1495.4360511190262 4614.112343567096
1496.219466682087 4534.958147137955
1497.0026916511779 4437.773505852743
1497.7857260775945 4406.245735298979
1498.5685700125996 4532.014297078183
1499.3512235074395 4327.5111134065255
1500.133686613337 4358.193721409725
1500.9159593814966 4402.181243257943
1501.698041863101 4710.820733130474
1502.4799341093094 4418.774377763415
1503.2616361712662 4247.249738705151
1504.043148100087 4426.7397675402935
1504.8244699468742 4366.16976936948
1505.6056017626997 4222.077757432287
1506.3865435986281 4322.037652975147
1507.1672955056893 4336.717501163302
1507.9478575348967 4272.414047074906
1508.7282297372512 4483.656665791009
1509.5084121637192 4297.583300996334
1510.2884048652577 4331.392316952258
1511.0682078927948 4349.083898985043
1511.8478212972423 4309.300464080945
1512.6272451294917 4207.639474373934
1513.4064794404076 4408.5361689370175
1514.1855242808433 4495.005185130983
1514.9643797016215 4342.975246288962
1515.743045753552 4356.2030330708585
1516.5215224874191 4385.350201818259
1517.2998099539836 4253.410255758081
1518.077908203999 4352.480542986507
1518.8558172881785 4306.342414549561
1519.633537257234 4444.620133338737
1520.4110681618404 4461.289870156939
1521.1884100526604 4469.620108872032
1521.9655629803365 4347.2449171542
1522.7425269954856 4591.708536167951
1523.5193021487103 4722.019914336737
1524.2958884905856 4437.0607248428805
1525.0722860716687 4426.86824570248
1525.848494942502 4412.905735133163
1526.624515153595 4443.050349686179
1527.4003467554485 4507.600680121819
1528.175989798534 4566.677515847131
1528.9514443333064 4471.361028846834
1529.726710410203 4637.527336434922
1530.5017880796331 4389.242299891632
1531.276677391992 4405.638235447046
1532.0513783976457 4704.5040307198415
1532.825891146953 4559.192141693226
1533.6002156902414 4652.012873949116
1534.3743520778207 4532.932153724376
1535.1483003599806 4631.384432788689
1535.9220605869923 4462.178148666715
1536.6956328091019 4581.453539649975
1537.4690170765407 4471.314799357803
1538.242213439511 4643.384472151661
1539.015221948208 4492.029932870752
1539.78804265279 4445.49265543635
1540.560675603405 4449.839576645325
1541.3331208501804 4640.029559639062
1542.1053784432224 4680.854873926974
1542.8774484326168 4531.487252274694
1543.649330868422 4503.915252532881
1544.4210258006842 4576.674393537411
1545.1925332794308 4581.608796093527
1545.9638533546604 4547.458983838753
1546.7349860763552 4417.943951710262
1547.5059314944829 4757.180448033881
1548.27668965898 4518.008919663842
1549.0472606197673 4547.439295223448
1549.817644426752 4486.595894730317
1550.5878411298072 4529.214653899903
1551.3578507787988 4544.772657475575
1552.1276734235635 4338.815696843126
1552.8973091139233 4524.216502615321
1553.6667578996767 4587.670030809108
1554.436019830604 4566.671333322113
1555.20509495646 4466.588423984721
1555.9739833269869 4424.283126259693
1556.7426849919011 4485.379188014118
1557.511200000903 4663.344415828558
1558.2795284036674 4568.854146151519
1559.0476702498509 4462.648871881959
1559.8156255890954 4678.504653867401
1560.5833944710157 4870.6747921658025
1561.3509769452048 4528.650635526149
1562.1183730612447 4600.304423914395
1562.8855828686865 4629.227959159721
1563.6526064170703 4761.731158480348
1564.4194437559127 4613.0237600640485
1565.1860949347047 4480.103440948336
1565.9525600029283 4758.327882911553
1566.7188390100328 4866.9127488345775
1567.4849320054564 4513.934320920527
1568.250839038612 4561.7484569975295
1569.0165601588997 4698.501467062318
1569.7820954156887 4667.662842536339
1570.5474448583373 4535.669971641562
1571.31260853618 4599.372509416784
1572.0775864985299 4443.126480337002
1572.8423787946813 4645.9170191477315
1573.6069854739108 4514.885339639946
1574.371406585471 4675.425515348425
1575.1356421785986 4673.429781282106
1575.899692302506 4471.659121370727
1576.6635570063845 4645.732775913994
1577.4272363394157 4570.649082273396
1578.190730350747 4537.149393475308
1578.9540390895163 4593.887998612771
1579.7171626048384 4345.011055521972
1580.480100945806 4492.276395464495
1581.2428541614918 4543.564998112483
1582.0054223009538 4656.321005247069
1582.767805413223 4518.5993240346015
1583.5300035473156 4591.865739473312
1584.292016752228 4737.424061631074
1585.0538450769309 4548.586356354561
1585.8154885703807 4445.194138406167
1586.5769472815136 4453.6909257000025
1587.3382212592405 4532.4089073698115
1588.099310552463 4625.094977064529
1588.8602152100484 4494.197291560748
1589.6209352808564 4513.541029075926
1590.3814708137234 4308.216277539288
1591.14182185746 4351.820999210557
1591.9019884608679 4378.346032665488
1592.6619706727215 4360.094242118974
1593.4217685417734 4461.68517143861
1594.1813821167616 4500.723698395347
1594.9408114464022 4271.293147871325
1595.7000565793933 4442.8704312035825
1596.459117564409 4510.317655540901
1597.2179944501113 4314.213714955906
1597.9766872851324 4372.590944273041
1598.735196118092 4415.351581414442
1599.4935209975883 4497.487469684721
1600.2516619721973 4511.740547322595
1601.0096190904787 4275.473907794689
1601.7673924009723 4327.703771571128
1602.524981952196 4242.447480740937
1603.2823877926476 4194.150200636845
1604.0396099708087 4308.625771151483
1604.7966485351371 4148.604077866603
1605.5535035340745 4292.094670374498
1606.3101750160404 4536.983935728443
1607.0666630294363 4321.561566200406
1607.822967622642 4107.767095504201
1608.5790888440224 4350.626287141425
1609.3350267419137 4332.833503180272
1610.0907813646445 4249.8973627059
1610.8463527605145 4305.800067379338
1611.601740977805 4198.891020288274
1612.356946064785 4310.7179056508885
1613.1119680696902 4126.564793809232
1613.8668070407512 4261.911704476114
1614.6214630261748 4239.92021332055
1615.375936074137 4360.735003940211
1616.1302262328118 4268.973734407514
1616.8843335503425 4273.635700263056
1617.638258074854 4140.583034566216
1618.391999854457 4355.054040190766
1619.1455589372363 4230.6256119539285
1619.8989353712623 4290.357263214739
1620.65212920458 4031.41031511321
1621.4051404852235 4097.437114521703
1622.1579692611976 4065.2532723104423
1622.9106155804966 4005.9751166661467
1623.663079491087 4091.2293635687665
1624.4153610409248 4187.686803922767
1625.1674602779385 4014.509076599159
1625.9193772500403 4067.224975920114
1626.6711120051277 4127.782514123952
1627.4226645910676 4101.258465330182
1628.174035055721 3973.2369062832854
1628.9252234469168 4168.035360925198
1629.676229812474 4014.1894410777845
1630.4270542001905 4230.692502279804
1631.1776966578382 4110.121870024886
1631.9281572331747 4086.1402646250217
1632.678435973945 4226.928891771009
1633.4285329278573 4131.343910851771
1634.1784481426203 3952.659174590239
1634.9281816659113 4003.3302745888495
1635.677733545388 4229.291246116194
1636.4271038286934 4087.76925409289
1637.176292563452 4367.483842899279
1637.9252997972635 4248.010724216862
1638.674125577716 4177.85015565616
1639.4227699523672 4442.687424909222
1640.171232968767 4029.0294852931415
1640.9195146744423 4193.009390125916
1641.6676151168977 4432.118955225362
1642.4155343436178 4317.412381964286
1643.1632724020765 4163.58327473861
1643.9108293397167 4261.754961200763
1644.658205203974 4176.992022568017
1645.4054000422566 4728.676598264762
1646.1524139019566 4165.95863536426
1646.8992468304423 4264.8973221983
1647.6458988750728 4239.599414930343
1648.3923700831765 4219.894392503363
1649.1386605020743 4380.719458865125
1649.8847701790564 4392.752888713474
1650.6306991614038 4333.279845984191
1651.3764474963682 4349.566497368007
1652.1220152311944 4071.8342298264783
1652.867402413096 4443.5130301109375
1653.6126090892776 4251.185838013981
1654.3576353069184 4558.021962706587
1655.1024811131829 4328.127724285773
1655.8471465552066 4315.767943864164
1656.5916316801213 4332.160512924859
1657.3359365350298 4364.902317861557
1658.0800611670165 4274.4412632088915
1658.824005623148 4199.439901890418
1659.5677699504722 4109.756965155003
1660.3113541960192 4276.546148389932
1661.054758406799 4188.27649711739
1661.7979826297997 4058.2001763276976
1662.5410269119966 4053.6220074209705
1663.283891300338 4166.514026219891
1664.0265758417645 4074.140063747386
1664.7690805831826 4189.687397143106
1665.5114055714948 4067.6386619541554
1666.2535508535748 4265.704784154689
1666.9955164762814 3939.5356417683915
1667.7373024864555 4101.044375271963
1668.478908930916 4102.805233638693
1669.220335856462 4041.066683880728
1669.9615833098778 3829.8086221787353
1670.7026513379296 3866.3577868046464
1671.44353998736 4015.4060362761848
1672.1842493048916 3936.9643610323997
1672.9247793372379 3774.596370512926
1673.6651301310812 3983.1549774216555
1674.4053017330934 3901.202951440614
1675.1452941899242 3930.116599726532
1675.885107548207 3518.614499290789
1676.6247418545518 3653.2879299324013
1677.3641971555535 3686.338536969956
1678.1034734977893 3904.303762720652
1678.8425709278108 3743.251044911379
1679.5814894921605 3846.8159569011614
1680.320229237359 3674.1482819607677
1681.0587902098978 3842.1397853850694
1681.7971724562685 3700.600079379224
1682.5353760229264 3651.7424832830206
1683.2734009563173 3669.8546294031294
1684.0112473028657 3524.2349552047367
1684.7489151089794 3755.315649369432
1685.4864044210462 3666.7999315854913
1686.2237152854377 3442.435305759672
1686.960847748498 3642.563507520881
1687.6978018565642 3421.110198453982
1688.434577655944 3390.752167352136
1689.1711751929379 3375.693006282193
1689.9075945138156 3444.874546154745
1690.6438356648396 3467.6636928258536
1691.3798986922448 3163.855143588725
1692.1157836422499 3502.109242177138
1692.851490561059 3335.120328395874
1693.587019494853 3377.565314241326
1694.3223704897991 3230.159758713148
1695.0575435920364 3119.585596270419
1695.792538847696 3508.20959907483
1696.527356302886 3292.1975732330816
1697.2619960036936 3114.677954549093
1697.9964579961907 3135.9395011475654
1698.730742326432 2931.209320738248
1699.4648490404488 3105.529768473284
1700.1987781842563 3159.2492958364446
1700.9325298038548 3134.681312698237
1701.6661039452174 3365.3373688618767
1702.3995006543082 3164.195129904778
1703.1327199770658 3304.350138019222
1703.865761959416 3031.17589773568
1704.598626647261 3221.756748420108
1705.3313140864866 3047.0456074658946
1706.0638243229587 3026.098099671794
1706.7961574025303 3112.8051187253063
1707.528313371029 3018.1132844161216
1708.260292274268 2856.6769653406245
1708.9920941580403 3025.8993509348984
1709.7237190681226 2968.8382275515514
1710.4551670502697 3010.661829828392
1711.18643815022 2893.1867771297866
1711.9175324136959 3219.3133469368063
1712.6484498863938 2952.0927075727413
1713.379190614005 2823.418130272912
1714.109754642188 2811.312691411261
1714.8401420165883 2861.0728425415373
1715.570352782839 3415.2219452379495
1716.3003869865497 2976.2341005730123
1717.0302446733076 2882.8722612316915
1717.7599258886876 2948.8520301661697
1718.4894306782444 3086.524033728826
1719.2187590875183 2771.7779103372013
1719.9479111620203 3005.8604186349376
1720.6768869472544 2794.446746879373
1721.4056864887025 3051.42361829796
1722.1343098318284 3093.0338710336646
1722.8627570220742 2965.2137233256008
1723.591028104871 2825.8800058125207
1724.3191231256242 2774.128661873142
1725.0470421297232 2867.255577029541
1725.7747851625427 2903.1275395562584
1726.5023522694337 3028.4072191635323
1727.2297434957363 2963.024811819324
1727.9569588867635 2705.9886006370716
1728.6839984878152 3010.476084200851
1729.4108623441734 2655.9920879670417
1730.1375505011038 2906.078558221911
1730.8640630038426 2794.2334998826286
1731.5903998976264 2752.1748641328386
1732.316561227657 2872.39517079691
1733.0425470391274 2692.2686056838766
1733.7683573772065 2844.2219531762094
1734.4939922870508 2789.156177447511
1735.2194518137949 2852.533920595798
1735.9447360025606 2822.239291568908
1736.669844898439 2773.3745272910523
1737.3947785465189 2788.289763435026
1738.1195369918605 2640.3172228227113
1738.8441202795093 2750.2169927166783
1739.5685284544943 2787.406887620745
1740.292761561821 2770.1319434225725
1741.0168196464838 2802.482740033689
1741.7407027534518 2850.907483368396
1742.464410927687 2810.459118795774
1743.187944214118 2753.927630080141
1743.9113026576688 2689.0221604047492
1744.634486303241 2581.168964206053
1745.3574951957125 2739.403634470171
1746.0803293799509 2868.8418948165718
1746.8029889008048 2819.9342077855763
1747.5254738031017 2763.326986537638
1748.2477841316504 2572.3339608662145
1748.969919931249 2683.103050546284
1749.6918812466665 2705.1302075143813
1750.4136681226646 2743.473124821815
1751.1352806039777 2736.975169884218
1751.856718735331 2594.765495021499
1752.5779825614281 2553.322160135354
1753.2990721269507 2714.054610655215
1754.0199874765676 2707.804108547698
1754.7407286549314 2568.219968662071
1755.4612957066693 2673.174857070577
1756.1816886763954 2677.3605048007603
1756.9019076087097 2706.261344008002
1757.6219525481865 2737.236793678602
1758.3418235393856 2735.0579993820625
1759.061520626854 2620.6372646406408
1759.7810438551096 2798.180426207206
1760.5003932686614 2565.842539770053
1761.2195689119999 2756.006574477762
1761.938570829594 2871.125165301127
1762.657399065898 2786.345033138613
1763.376053665348 2516.270149197126
1764.0945346723602 2454.353082351238
1764.812842131334 2779.584424355999
1765.5309760866512 2579.5775336603347
1766.2489365826787 2627.614633340935
1766.9667236637597 2623.805837704563
1767.684337374223 2414.8079094035
1768.401777758383 2593.578483144817
1769.1190448605284 2559.1820896859867
1769.836138724937 2535.880639805319
1770.5530593958665 2606.164163055767
1771.2698069175603 2864.7752595292645
1771.9863813342326 2720.933379098655
1772.702782690094 2474.000430540896
1773.4190110293293 2739.331877509921
1774.1350663961111 2616.6893530447032
1774.8509488345844 2596.527192285358
1775.5666583888924 2696.706910945165
1776.2821951031437 2820.0667935540573
1776.9975590214362 2555.728626303963
1777.7127501878585 2854.368586576959
1778.4277686464684 2657.8766078597705
1779.1426144413108 2788.204551218493
1779.8572876164162 2711.1883668974924
1780.571788215797 2480.8694008848115
1781.2861162834415 2618.2735386230074
1782.0002718633277 2556.5293014990884
1782.7142549994132 2533.299458944513
1783.4280657356376 2584.886189044274
1784.141704115922 2474.268159275624
1784.855170184177 2520.71511940156
1785.5684639842839 2617.1624243027672
1786.2815855601148 2302.1001053365753
1786.9945349555237 2652.4681426953075
1787.707312214343 2605.8733392411173
1788.4199173803918 2759.544978680233
1789.132350497468 2430.298000138753
1789.8446116093583 2450.5808766295186
1790.556700759822 2501.968853665402
1791.2686179926077 2533.2284141747136
1791.9803633514493 2476.624554507894
1792.6919368800554 2356.253059704218
1793.4033386221236 2651.124090097893
1794.1145686213295 2741.429249442397
1794.8256269213307 2684.6081915548593
1795.536513565774 2541.638671756317
1796.247228598284 2376.2237825104216
1796.9577720624693 2521.4996217784947
1797.6681440019165 2704.8326634458053
1798.3783444602013 2484.6586483401134
1799.0883734808776 2431.8791956251866
1799.7982311074884 2562.6002932206584
1800.5079173835475 2531.768631028627
1801.2174323525633 2617.9144535841056
1801.9267760580187 2549.606190179144
1802.635948543386 2514.9634168343737
1803.3449498521113 2371.034058622802
1804.0537800276325 2643.079899922685
1804.7624391133668 2465.870752685532
1805.47092715271 2279.354045217151
1806.1792441890484 2467.3690100604463
1806.8873902657433 2493.101854056705
1807.5953654261448 2544.6679191247513
1808.3031697135812 2516.5908114820386
1809.0108031713662 2420.2942810913573
1809.71826584279 2446.102625220191
1810.425557771141 2577.5805790487075
1811.1326789996747 2777.3908433673323
1811.839629571632 2460.542955974058
1812.5464095302468 2483.446587079284
1813.2530189187182 2555.4837641353665
1813.959457780249 2423.0359066056876
1814.6657261580076 2591.0250567864064
1815.371824095153 2552.0173520049957
1816.0777516348262 2593.253863072644
1816.78350882015 2210.725212236461
1817.4890956942272 2235.2666013281346
1818.1945123001533 2394.649693605814
1818.8997586809928 2426.969285874451
1819.6048348798067 2381.4113826968655
1820.3097409396287 2499.230197582895
1821.0144769034796 2795.734718869401
1821.7190428143622 2603.1695699887196
1822.423438715261 2573.9834910348254
1823.1276646491478 2425.3852990579426
1823.8317206589727 2449.611512232147
1824.5356067876692 2467.8764459165677
1825.2393230781581 2302.043626008862
1825.942869573335 2364.7404962317332
1826.646246316086 2262.677131388113
1827.3494533492758 2434.73343566977
1828.052490715756 2533.732460966602
1828.7553584583547 2493.1759830309866
1829.458056619891 2466.9763449738703
1830.1605852431585 2418.120749377008
1830.8629443709433 2392.0745111209167
1831.5651340460063 2341.690338635039
1832.2671543110919 2355.456242926887
1832.9690052089318 2554.9316777830145
1833.6706867822395 2301.6350759480165
1834.3721990737104 2536.3660765102914
1835.0735421260233 2477.645435964042
1835.774715981841 2415.8600115691415
1836.4757206838058 2424.784483740111
1837.1765562745459 2424.2009158638434
1837.8772227966747 2369.9336951041128
1838.5777202927839 2397.051774691162
1839.2780488054523 2262.653491920906
1839.9782083772352 2298.2553620993485
1840.6781990506806 2576.068144441569
1841.378020868313 2366.4139731180994
1842.0776738726418 2459.4942478325106
1842.777158106157 2340.4945649281362
1843.4764736113375 2252.957461105848
1844.1756204306403 2524.2426595823304
1844.8745986065078 2348.764386161214
1845.5734081813607 2180.864572120709
1846.2720491976124 2397.4968052120184
1846.970521697649 2232.569243478033
1847.6688257238511 2395.1382353608087
1848.3669613185684 2326.567259253395
1849.0649285241452 2151.05915756304
1849.7627273829057 2428.7234114407775
1850.460357937156 2279.671556962759
1851.1578202291857 2133.759985953377
1851.8551143012664 2313.0130851115086
1852.5522401956569 2354.0574614167176
1853.2491979545957 2402.48358746986
1853.9459876203055 2212.8164452752267
1854.6426092349902 2202.6053670543856
1855.3390628408451 2330.6254128973696
1856.0353484800362 2511.6595365241296
1856.7314661947203 2351.214812041596
1857.4274160270397 2208.7444953446575
1858.123198019115 2281.403342962133
1858.8188122130487 2208.784997677455
1859.5142586509319 2318.7846956023454
1860.209537374838 2343.128029927535
1860.9046484268183 2220.883408767201
1861.599591848917 2353.646729022618
1862.294367683151 2285.9001608529875
1862.988975971528 2116.2943080133978
1863.6834167560355 2247.439745421751
1864.3776900786452 2396.1661800050388
1865.0717959813119 2267.176487341696
1865.7657345059724 2070.0255542497353
1866.4595056945564 2387.4202902206216
1867.1531095889586 2443.422651829141
1867.846546231076 2175.3803214964782
1868.5398156627743 2307.5483755761625
1869.2329179259123 2210.6152298047473
1869.9258530623283 2424.549562954541
1870.618621113843 2145.1054374512814
1871.3112221222636 2194.2365742544025
1872.0036561293764 2320.666716146402
1872.695923176956 2309.2414568547088
1873.3880233067594 2352.3121438231974
1874.0799565605212 2108.486407348132
1874.7717229799673 2325.94259693808
1875.4633226068036 2366.5700288974967
1876.1547554827175 2383.4841661669243
1876.8460216493859 2180.550695901204
1877.5371211484617 2204.423049118346
1878.2280540215852 2246.0070456951607
1878.9188203103804 2082.252409576971
1879.6094200564548 2264.609041589792
1880.299853301396 2126.2708897341304
1880.9901200867826 2510.292970428843
1881.6802204541673 2336.358636072461
1882.3701544450942 2279.421590093426
1883.059922101087 2056.973028895024
1883.7495234636517 2315.5758864798718
1884.4389585742792 2176.4693309470977
1885.1282274744517 2107.53751427421
1885.8173302056166 2172.24664451912
1886.506266809225 2237.0455569087926
1887.195037326701 2151.961334683455
1887.8836417994517 2133.807338989306
1888.5720802688702 2364.238500014356
1889.260352776333 2289.0514569230336
1889.9484593632042 2418.8654410516215
1890.63640007082 2296.2150412842057
1891.3241749405151 2151.8838322580214
1892.0117840135954 2305.3634849827704
1892.6992273313572 2249.789625076055
1893.3865049350788 2067.3298896872902
1894.0736168660223 2520.7294555078265
1894.7605631654333 2241.7044515584644
1895.4473438745408 2155.91455588171
1896.133959034556 2448.653952741714
1896.820408686679 2251.664011150923
1897.506692872088 2466.9900092916673
1898.192811631945 2201.893847553916
1898.8787650073991 2251.093028384787
1899.5645530395832 2408.967817400756
1900.2501757696118 2370.7627289839224
1900.9356332385796 2011.1100173078732
1901.620925487574 2489.608730246
1902.3060525576602 2265.919812742225
1902.9910144898859 2351.68334901694
1903.6758113252872 2155.001026202675
1904.3604431048789 2238.3243476020107
1905.0449098696663 2276.32534837897
1905.7292116606295 2092.766272707755
1906.4133485187394 2253.9760415498686
1907.0973204849488 1986.747988065427
1907.7811276001976 2060.2551580587824
1908.4647699053967 2160.4134603239086
1909.1482474414588 1932.3932122328151
1909.8315602492694 2044.372974344434
1910.5147083696957 2211.5657606653704
1911.1976918436012 2100.323633504792
1911.880510711815 2063.3314180314983
1912.5631650151681 2351.270774762788
1913.2456547944657 2120.7318949567098
1913.927980090495 2147.1303317441434
1914.6101409440362 2262.16285051277
1915.2921373958416 2140.959210448726
1915.9739694866603 2157.3209390618185
1916.655637257214 2372.5947333806334
1917.3371407482136 2117.078868906061
1918.0184800003572 2394.7059690285423
1918.6996550543154 2429.8165702283873
1919.3806659507554 2166.1841925310614
1920.0615127303208 2137.851200092834
1920.7421954336423 2344.3445851377846
1921.4227141013343 2393.0109479542375
1922.103068773993 2164.6314150562803
1922.783259492202 2262.545086515989
1923.4632862965227 2119.5803373619233
1924.1431492275078 2007.2812833820874
1924.8228483256917 2129.7982469776925
1925.5023836315922 2000.7752162591617
1926.1817551857057 1988.311156594326
1926.8609630285227 2321.533909662844
1927.5400072005123 2307.617181427216
1928.218887742125 2030.8475245025875
1928.8976046938005 2055.295292003165
1929.5761580959588 2217.7644801376186
1930.2545479890086 2133.857523317592
1930.9327744133352 1991.6011896914874
1931.6108374093164 2130.3847196797005
1932.2887370173066 2227.108565409592
1932.9664732776473 1833.6007712352846
1933.6440462306673 2220.882275311934
1934.3214559166754 2086.2506668244105
1934.9987023759659 2264.4490231014047
1935.675785648813 2228.920213828177
1936.3527057754836 1927.8306658074612
1937.029462796223 1966.8763962969083
1937.70605675126 2006.0516877953014
1938.3824876808085 1995.9001381852727
1939.058755625072 2136.231732405479
1939.7348606242267 2062.4052210628843
1940.4108027184448 2043.7842359486046
1941.0865819478713 2229.6119550172507
1941.7621983526478 2063.796625477626
1942.4376519728921 2033.5837998226718
1943.1129428487038 2193.118774931952
1943.7880710201734 2177.2970430850974
1944.4630365273733 1977.8401672461096
1945.1378394103576 2077.0558473952196
1945.8124797091714 2346.8395110697174
1946.4869574638324 1960.6991352260764
1947.161272714353 1934.5770410628454
1947.8354255007234 2213.5019259502064
1948.5094158629272 1957.445123246019
1949.1832438409183 2117.854713037893
1949.8569094746435 2134.2762613986697
1950.530412804037 2311.5952523976975
1951.2037538690092 2251.577705808583
1951.8769327094578 2087.5437407467953
1952.5499493652678 1984.3859984115134
1953.222803876306 2228.1403345763965
1953.895496282421 2171.457827037647
1954.5680266234522 2105.8116299010567
1955.2403949392155 2194.9371313905935
1955.9126012695142 2065.672616961686
1956.5846456541403 2055.273216256993
1957.2565281328643 1981.418613051546
1957.9282487454457 2215.3122136622687
1958.5998075316202 2110.330258337423
1959.27120453112 2017.0224500101122
1959.9424397836501 2154.7526439799517
1960.613513328908 2083.968236219893
1961.2844252065697 2314.189745607578
1961.9551754563017 1891.904088900019
1962.6257641177453 2053.416963204093
1963.29619123054 1901.4654994764228
1963.966456834296 1956.7712749171849
1964.6365609686181 1944.1559852850103
1965.306503673086 2197.356535964761
1965.976284987275 1911.7978583448942
1966.645904950734 2152.3239393869508
1967.315363603002 1870.271678927776
1967.9846609836077 1983.5535653926158
1968.6537971320486 2007.0040082687053
1969.3227720878222 2025.4465929328119
1969.9915858904042 2075.4712886209495
1970.660238579252 2071.2255545411217
1971.3287301938108 2018.6701438761763
1971.997060773514 2030.5426660606092
1972.665230357772 1964.50073312009
1973.3332389859843 2001.5835051935833
1974.0010866975335 1889.2493954240522
1974.6687735317864 2050.5946786982904
1975.3362995280932 2158.608077043392
1976.003664725793 2082.889115588041
1976.6708691642052 1803.0577286419561
1977.3379128826364 1907.765422456166
1978.004795920373 2187.719323537467
1978.6715183166925 2384.2328216503292
1979.3380801108524 1799.4725789824108
1980.0044813420973 2083.809336651404
1980.6707220496555 1836.6614295943104
1981.3368022727373 2103.682936737353
1982.0027220505417 1937.4680130094234
1982.66848142225 1688.078306832398
1983.3340804270283 1835.9097751972645
1983.999519104027 1985.10499647209
1984.6647974923835 2041.303551663334
1985.329915631215 1985.0923740608337
1985.99487355963 2064.444795984955
1986.6596713167146 1999.9445132668582
1987.3243089415428 1947.3283691035151
1987.9887864731754 2196.004164689628
1988.6531039506553 1831.5985836686473
1989.3172614130071 1824.0751664351374
1989.9812588992481 1816.5674688804804
1990.645096448372 1648.2260175132026
1991.3087740993633 1996.0176944523323
1991.9722918911848 1830.6290395303008
1992.635649862792 2042.32768758673
1993.2988480531185 2102.1555986834073
1993.9618865010852 2282.1074239210698
1994.6247652455968 1998.5599072483597
1995.287484325545 1920.2654354535557
1995.9500437798033 1918.3705409054098
1996.6124436472292 1899.1919906080416
1997.2746839666706 2015.9577308182143
1997.936764776954 1878.197213361202
1998.598686116895 1906.0717347087952
1999.2604480252903 2047.8353294593967
1999.9220505409212 2103.5794970382008
2000.5834937025593 1914.6355845263085
2001.2447775489582 1898.0651737911223
2001.9059021188514 2127.516790888723
2002.5668674509616 1812.8103842918044
2003.2276735839987 1985.4925499497301
2003.8883205566508 2179.9908454397487
2004.5488084075987 1946.918542157679
2005.2091371755014 1890.3517978226525
2005.8693068990033 1749.9741930231612
2006.5293176167397 2021.6649554055887
2007.1891693673224 1872.1516052627655
2007.848862189354 1783.7382115915163
2008.5083961214223 1917.563036302609
2009.1677712020955 1799.1478314413234
2009.8269874699254 1789.8856413063536
2010.4860449634598 2241.4575574544924
2011.1449437212177 1784.1393678354675
2011.8036837817108 2184.8778440603933
2012.4622651834325 2021.60545467251
2013.1206879648653 2001.5588580637286
2013.7789521644736 2030.8493427663307
2014.4370578207036 1619.644426435238
2015.0950049719922 1963.3212598128634
2015.7527936567585 1934.6145187519146
2016.4104239134067 1874.0701209533922
2017.067895780323 2154.9443196285206
2017.725209295886 1725.7909828278953
2018.3823644984514 2085.634603317408
2019.0393614263648 1904.7231483913488
2019.6962001179545 1964.7321694517984
2020.3528806115355 2023.8329854466542
2021.0094029454067 2010.5841990093522
2021.6657671578487 1825.3938825993978
2022.321973287133 1821.5568110827899
2022.9780213715148 1826.3587098182743
2023.6339114492293 2091.9312224091427
2024.2896435585026 1916.8971585290037
2024.9452177375442 1898.508873755463
2025.600634024544 1983.6217559450026
2026.2558924576842 1928.699996870592
2026.9109930751292 2072.6311043039163
2027.565935915025 1849.757438707161
2028.2207210155066 2144.8812029936566
2028.8753484146964 2060.4488116518937
2029.529818150695 1732.8122337180168
2030.1841302615903 1932.9877839216413
2030.8382847854573 1841.9643296830386
2031.4922817603601 1893.7770904948325
2032.1461212243357 1903.8835520069229
2032.7998032154192 1763.5437881789865
2033.4533277716218 1892.7097749978857
2034.1066949309443 1879.0847134301268
2034.7599047313688 1723.414489176262
2035.4129572108704 2050.506956062717
2036.0658524074006 1757.9982425355145
2036.7185903589016 1975.3693044343788
2037.3711711032956 1890.9332132775987
2038.023594678496 1903.6546604616728
2038.675861122394 1819.3377748849205
2039.3279704728757 2100.1258298969215
2039.9799227678031 1717.1509978853242
2040.6317180450278 1915.604841755814
2041.2833563423865 1849.2178893856867
2041.9348376977014 1992.7915641773284
2042.5861621487784 2050.9217223048445
2043.2373297334088 1871.6437608572262
2043.8883404893695 1927.2277132646166
2044.5391944544208 1825.2601080999757
2045.1898916663158 2014.6804721817166
2045.8404321627804 2020.7501632898973
2046.4908159815368 1846.4009790591967
2047.1410431602853 1718.7210937661712
2047.7911137367173 1786.9250836961091
2048.441027748504 2044.6280414255452
2049.090785233302 1725.8263808150289
2049.7403862287592 1837.7196642415515
2050.389830772503 2128.280132290367
2051.0391189021466 1812.4845901005367
2051.688250655294 1862.9132778102826
2052.337226069527 1707.687394286721
2052.986045182417 1929.455138555502
2053.634708031521 1696.6364920922138
2054.283214654375 1949.4417003926162
2054.931565088511 1693.8850146922364
2055.579759371436 1749.569858742409
2056.2277975406523 1894.5521785174387
2056.8756796336384 2050.9010427837816
2057.5234056878617 1729.5977918432477
2058.1709757407752 1842.5004115820684
2058.8183898298194 2070.7657005905958
2059.465647992416 1918.2707075154217
2060.1127502659747 1875.4807166547466
2060.759696687888 1788.421279387961
2061.4064872955405 1999.416764429351
2062.053122126292 2038.2601524187407
2062.699601217497 1571.605227823612
2063.345924606485 1832.8664442233962
2063.992092330587 1898.1437965223317
2064.638104427102 1856.875784398435
2065.283960933324 2097.1759476547004
2065.92966188653 1849.321327012774
2066.5752073239855 2084.1823183589377
2067.2205972829397 1656.5330951944572
2067.86583180062 1791.4613412416645
2068.5109109142522 1796.8258071516539
2069.15583466104 1782.2935400073243
2069.8006030781708 1767.7495634324532
2070.445216202821 1700.2039416169926
2071.089674072153 1906.1512750996724
2071.7339767233116 2105.444414706467
2072.3781241934303 1820.0473952750017
2073.0221165196253 2076.61591799252
2073.6659537390024 1898.3889754557636
2074.3096358886505 1931.441806249568
2074.953163005637 1922.3043094802397
2075.596535127028 1813.6697479897734
2076.2397522898664 1780.4866773798435
2076.882814531182 1802.2541237401133
2077.5257218879924 1863.0195410343683
2078.1684743973 1731.148034273582
2078.8110720960885 1679.4259892664006
2079.453515021336 2136.3552383366105
2080.095803209997 1881.3301256508948
2080.7379366990135 1929.4795978029804
2081.37991552532 1946.5716421139018
2082.0217397258275 1852.022780467481
2082.6634093374414 1850.6695319995881
2083.3049243970418 1849.3906141024174
2083.9462849415067 1985.4190417776626
2084.587491007689 1948.742945888454
2085.2285426324324 1745.9129357927588
2085.869439852564 1753.1522086986347
2086.510182704902 1685.2864516051206
2087.1507712262483 1827.9725834659057
2087.791205453381 1567.7179343841112
2088.4314854230743 1861.2047659652987
2089.0716111720867 1931.1930858379976
2089.7115827371617 1627.35658320569
2090.351400155023 1646.7776112752667
2090.991063462385 1666.3168262048669
2091.6305726959527 1560.7984092612273
2092.2699278924047 1857.3295656994746
2092.9091290884153 1734.435752759927
2093.548176320641 1717.6287964467417
2094.187069625721 1914.8249700356541
2094.8258090402887 1545.7761014009698
2095.464394600951 1895.592219975153
2096.102826344313 1917.6309621607102
2096.741104306955 1950.3032815440479
2097.379228525453 1691.401133747886
2098.017199036358 1553.1815736132335
2098.6550158762147 1728.7411201910832
2099.2926790815527 1904.6682662550131
2099.9301886888825 1670.4855362166836
2100.5675447347076 1724.2927275554437
2101.2047472555114 1832.6529822879565
2101.841796287761 1822.7518278554512
2102.47869186792 1800.9752705006078
2103.1154340324265 1728.1093009663487
2103.752022817709 1781.1102502735769
2104.388458260184 1698.5684106699275
2105.024740396251 1719.5163008166096
2105.660869262292 1843.111074505608
2106.296844894685 1823.7231949671993
2106.93266732978 1685.9784410588
2107.5683366039284 1648.4935313984195
2108.2038527534532 1741.5837659734389
2108.8392158146726 1888.9330865323077
2109.4744258238843 1731.5299829981082
2110.1094828173755 1671.1893158306357
2110.744386831422 1991.3441508520282
2111.3791379022787 1764.804749085109
2112.01373606619 1887.9125710264402
2112.648181359389 1938.7810537237626
2113.28247381809 1857.7607781241975
2113.916613478492 1833.444838809303
2114.550600376786 1759.2063572529817
2115.1844345491445 1916.8108669580856
2115.818116031729 1832.549859630068
2116.451644860679 1780.8813360048687
2117.085021072133 1640.0161624382301
2117.718244702204 1641.5655169811685
2118.3513157869984 1697.9960267539013
2118.984234362604 1577.198066790906
2119.617000465092 1682.4640627808544
2120.249614130529 1861.3201233238774
2120.8820753949585 1784.3701083314215
2121.5143842944162 1668.1127066985214
2122.14654086492 1678.191702338267
2122.7785451424734 1891.1784198675189
2123.4103971630702 1636.2014132082045
2124.042096962681 1734.2500547171283
2124.6736445772767 1719.2578460835134
2125.305040042802 1541.319741973328
2125.936283395191 1743.724396833226
2126.567374670365 1732.3909621373946
2127.198313904233 1647.7345054568318
2127.8291011326855 1633.4217441630285
2128.4597363916037 1618.8849305529461
2129.0902197168507 1721.0066102121648
2129.720551144279 1615.3475052421707
2130.3507307097225 1943.9599050449046
2130.980758449008 1922.781022485411
2131.6106343979427 1549.913858192137
2132.2403585923203 1843.8695924743915
2132.8699310679276 1823.5782184827694
2133.499351860526 1740.8067251918408
2134.1286210058715 1646.7156892830517
2134.7577385397053 1776.9169663656562
2135.3867044977487 1907.3404059372187
2136.0155189157176 1984.8548114599812
2136.644181829308 1847.231287473765
2137.2726932742025 1777.1890510818062
2137.901053286074 1670.7646788438346
2138.5292619005777 1564.2360399595075
2139.1573191533535 1558.0715362215856
2139.7852250800315 1774.4890955654628
2140.4129797162295 1649.0110001594076
2141.0405830975433 1455.3008613449715
2141.6680352595613 1563.864185819118
2142.2953362378576 1672.6533121624957
2142.9224860679915 1833.4671315609194
2143.549484785508 1751.7969059850225
2144.1763324259373 1604.1324585936272
2144.803029024799 1644.9266470727173
2145.429574617594 1741.5135290786736
2146.0559692398165 1654.1112482124986
2146.682212926942 1623.5928928033259
2147.308305714432 1815.330688564674
2147.9342476377333 1779.5552755160595
2148.5600387322847 2060.5526933889055
2149.185679033506 1958.6615678197281
2149.8111685768017 1773.9409334650986
2150.4365073975678 1541.9373885748487
2151.061695531187 1675.9999750494258
2151.686733013021 1980.3695576822242
2152.311619878423 1730.4913562295114
2152.9363561627342 1675.9733009465206
2153.560941901278 1472.6378050525743
2154.1853771293663 1833.1113764206134
2154.809661882293 1715.2033663609686
2155.433796195348 2033.6062208955361
2156.0577801037944 1957.5980390234338
2156.681613642895 1881.3173957070762
2157.3052968478896 1653.0884597202835
2157.928829754006 1842.8360423820955
2158.552212396462 1860.3066244630038
2159.1754448104566 1655.1365994959656
2159.7985270311783 1626.443374197225
2160.4214590938027 1212.3528272428555
2161.0442410334927 1346.1989081015954
2161.6668728853874 1710.257497300928
2162.289354684628 1567.0190858661147
2162.911686466332 1609.853824318913
2163.533868265602 1742.0920804338489
2164.1559001175337 1886.1633926390896
2164.7777820572046 1729.4525982653263
2165.399514119681 1759.370713647552
2166.021096340013 1594.4367223575236
2166.6425287532384 1795.940479104786
2167.263811394385 1485.1527569804398
2167.8849442984574 1894.2448223757267
2168.505927500455 1592.4047272387074
2169.126761035366 1683.00673721268
2169.7474449381552 1583.1629837328962
2170.367979243778 1441.2957621553858
2170.9883639871823 1820.7163076975953
2171.608599203293 1525.319569203427
2172.2286849270276 1916.3986539199846
2172.8486211932886 1883.419831491492
2173.4684080369625 1754.0945471766445
2174.0880454929265 1479.2550462113531
2174.7075335960417 1611.868943634006
2175.3268723811543 1345.3955163331466
2175.9460618831 1445.090073062025
2176.565102136701 1733.357605696793
2177.1839931767627 1637.3829953510017
2177.802735038078 1541.1782582709416
2178.421327755432 1529.9129401507896
2179.0397713635866 1474.6003211025302
2179.658065897298 1750.0892067902187
2180.276211391305 1693.4402938779344
2180.8942078803357 1700.7862347231378
2181.5120553991 1658.5185469751802
2182.129753982299 1427.0494806908882
2182.7473036646206 1623.2949078523418
2183.3647044807367 1713.8551841415597
2183.9819564653044 1527.5128609155431
2184.599059652968 1685.6512334597787
2185.216014078367 1714.71027802391
2185.832819776113 1595.2492400050592
2186.4494767808137 1852.632445292184
2187.065985127063 1635.3549766679769
2187.682344849436 1519.0847789331092
2188.298555982501 1787.5732837121184
2188.9146185608097 1670.9813531853038
2189.530532618901 1892.359017485201
2190.1462981912937 1825.9218521735033
2190.761915312507 1736.3053239011465
2191.377384017036 1530.8654120872543
2191.9927043393654 1511.8469152105204
2192.6078763139667 1451.9250805723123
2193.2228999753006 1582.4304385441803
2193.837775357808 1713.2272348024085
2194.452502495922 1564.4501732376814
2195.0670814240602 1705.763969256887
2195.6815121766285 1403.0803603593295
2196.2957947880186 1403.1201156660256
2196.9099292926057 1403.164834831856
2197.523915724758 1660.4291025449086
2198.137754118825 1616.7562583290735
2198.7514445091456 1975.5335395259092
2199.3649869300443 1905.3496482033665
2199.9783814158327 1835.0818550935996
2200.5916280008096 1927.2376684733001
2201.2047267192593 1901.940197672716
2201.8176776054515 1468.9028615011932
2202.430480693649 1330.5359065648522
2203.0431360180955 1729.8777441827824
2203.6556436130195 1762.781278173372
2204.268003512645 1732.4038416786047
2204.8802157511727 1702.0213840787408
2205.492280362796 1932.3492411317468
2206.1041973816937 1692.9861257215148
2206.715966842032 1566.4807835937052
2207.3275887779655 1682.4356139950232
2207.93906322363 1628.4240750992692
2208.550390213153 1699.320459214258
2209.1615697806465 1606.6358033779275
2209.7726019602105 1582.6328311175023
2210.3834867859277 1484.9455708530918
2210.9942242918787 1554.9607166606474
2211.6048145121167 1554.2639199836399
2212.2152574806914 1576.8148145387104
2212.825553231638 1599.4041681431702
2213.435701798975 1860.4673393779333
2214.045703216707 1616.7261902341472
2214.655557518832 1387.0428213492337
2215.2652647393297 1525.7983379624275
2215.874824912169 1351.4061528928983
2216.4842380713 1719.5411534306982
2217.09350425067 1384.517261774672
2217.7026234842033 1793.6479857317827
2218.311595805819 1721.7433580882414
2218.9204212494133 1628.1534135187517
2219.52909984888 1677.1833860261336
2220.137631638092 1415.6590352761953
2220.7460166509154 1447.8778803054215
2221.354254921198 1480.0915590726886
2221.9623464827764 1751.2871414377264
2222.5702913694713 1491.4641904463447
2223.178089615096 1718.5949350731855
2223.7857412534486 1737.4662981874455
2224.39324631831 1319.8818289428677
2225.000604843457 1348.466953768967
2225.607816862641 1413.8421574551408
2226.214882409611 1479.2437057052766
2226.8218015180973 1731.8098553960713
2227.4285742218217 1544.938260219863
2228.0352005544864 1508.2344338245941
2228.6416805497847 1388.8883797803317
2229.248014241399 1525.7912858227892
2229.8542016629945 1443.9798525506662
2230.460242848223 1618.793352620049
2231.0661378307304 1490.5849852779565
2231.671886644139 1362.2669608207757
2232.277489322065 1431.4031274635759
2232.8829458981127 1302.9342805440078
2233.48825640587 1615.0814601965385
2234.0934208789095 1924.7340491252987
2234.6984393507955 1711.899875844992
2235.3033118550793 1593.5654556599154
2235.9080384252975 1529.0885745368785
2236.5126190949723 1502.5271856257987
2237.1170538976166 1375.1602333928356
2237.721342866729 1434.7708471915885
2238.32548603579 1542.7728749685855
2238.9294834382763 1659.7200631011692
2239.533335107646 1643.4498983079277
2240.1370410773434 1454.044773930319
2240.740601380803 1503.6261360827377
2241.3440160514474 1587.0918945497754
2241.9472851226783 1855.987976986214
2242.550408627896 1598.5247251394792
2243.1533866004793 1778.0915348304763
2243.756219073799 1400.7794656955623
2244.3589060812064 1385.7787406566508
2244.961447656049 1441.6576377619735
2245.5638438316564 1694.256210335369
2246.166094641343 1681.0641250821488
2246.7682001184166 1568.6675505129915
2247.3701602961664 1463.4864864703673
2247.971975207871 1580.6762051106184
2248.5736448867974 1735.1967910339822
2249.175169366197 1469.2094476425088
2249.7765486793123 1610.3634700369596
2250.3777828593684 1604.216539626197
2250.9788719395783 1498.1039310990896
2251.579815953146 1442.4595750401859
2252.1806149332606 1382.1995103565591
2252.781268913097 1553.2679209548783
2253.381777925817 1561.675409028015
2253.9821420045737 1531.228242787531
2254.5823611825035 1684.7677061825048
2255.1824354927303 1676.874555689176
2255.782364968365 1499.7595010083176
2256.38214964251 1322.4460403205937
2256.9817895482483 1396.9306616870963
2257.5812847186553 1443.0527066244053
2258.180635186791 1430.7020140720754
2258.779840985704 1286.05188555129
2259.37890214843 1321.7897362435792
2259.97781870799 1487.9120725832881
2260.5765906973957 1654.3436771150537
2261.175218149645 1554.7162319415133
2261.773701097718 1595.3525114392648
2262.3720395745895 1418.3350307955948
2262.970233613216 1478.5000531818841
2263.568283246548 1559.9013536543366
2264.1661885075137 1411.0492092654226
2264.763949429038 1436.3108732606565
2265.3615660440246 1567.7983739403576
2265.959038385374 1392.7579674735216
2266.5563664859637 1683.992220252585
2267.153550378669 1701.260390835569
2267.7505900963424 1718.6682918067468
2268.3474856718312 1476.4986713836345
2268.9442371379664 1519.1133914669567
2269.5408445275643 1368.0388232917917
2270.1373078734377 1572.7191958051592
2270.7336272083758 1400.0151526448167
2271.32980256516 1399.9658170215985
2271.925833976562 1559.297567478147
2272.5217214753357 1675.9554981200858
2273.117465094223 1427.262719543429
2273.7130648659586 1341.029890367233
2274.308520823257 1494.6951240402677
2274.903832998827 1545.446513286492
2275.4990014253563 1405.084190579038
2276.094026135528 1727.4447684097981
2276.6889071620117 1352.0940265225465
2277.2836445374614 1698.0651393314395
2277.878238294519 1553.9957612308544
2278.472688465812 1419.6915890231408
2279.066995083962 1285.1367358765788
2279.6611581815705 1504.7513789141665
2280.255177791232 1356.8826754513775
2280.8490539455233 1811.5174017153997
2281.442786677013 1774.1995805653448
2282.0363760182554 1458.404113076445
2282.6298220017943 1458.2947701324567
2283.223124660155 1664.0954299718676
2283.816284025859 1698.7256223225982
2284.4093001314086 1733.5043397160975
2285.002173009292 1471.1249619623732
2285.5949026919952 1591.906483751378
2286.1874892119777 1603.1554637001225
2286.7799326016993 1647.3311467325154
2287.3722328936 1268.721859839869
2287.964390120109 1153.5515779832622
2288.556404313642 1667.9340511884122
2289.1482755066027 1681.9568295477216
2289.7400037313873 1459.3435194065087
2290.3315890203703 1343.6822040685568
2290.9230314059205 1509.0421979855503
2291.5143309203904 1480.2492370896582
2292.1054875961236 1375.521633411277
2292.6965014654506 1796.5416239254307
2293.287372560684 1454.2826970648255
2293.878100914131 1500.2506035505535
2294.468686558086 1546.3649848562602
2295.059129524827 1489.217661178292
2295.649429846617 1408.0459648212816
2296.239587555716 1326.658444766382
2296.8296026843636 1447.682841737062
2297.419475264791 1405.9498222766088
2298.0092053292137 1364.0518273886214
2298.598792909839 1566.792715726386
2299.1882380388597 1537.578945037661
2299.777540748455 1597.9504627657016
2300.3667010707904 1573.3215910646625
2300.9557190380256 1566.221377639501
2301.544594682302 1437.0543275146779
2302.1333280357503 1307.725987675376
2302.721919130485 1469.1359338338702
2303.3103679986198 1617.95766081451
2303.898674672242 1421.9892953017018
2304.486839183437 1541.5221404134613
2305.0748615642697 1341.4906978879358
2305.6627418468015 1447.7698430433702
2306.2504800630704 1365.380346027033
2306.8380762451143 1539.981216515555
2307.425530424949 1544.990633041092
2308.012842634582 1549.9995127029642
2308.6000129060103 1584.216133268996
2309.187041271214 1802.0957546154937
2309.773927762164 1744.0049710245335
2310.3606724108213 1685.8230974875091
2310.9472752491274 1379.7227771794846
2311.5337363090184 1402.6486164899347
2312.120055622414 1425.6420212868302
2312.706233221221 1466.697393032749
2313.2922691373424 1276.8083777073264
2313.8781634026564 1343.1767675671942
2314.463916049037 1409.6866954080695
2315.049527108342 1378.4884669285568
2315.6349966124235 1783.491101408048
2316.2203245931123 1726.2244267493002
2316.8055110822315 1355.2405613487892
2317.3905561115935 1325.3696597969754
2317.9754597129977 1348.346596229285
2318.560221918229 1262.1052497774513
2319.1448427590603 1175.6956293318722
2319.729322267256 1348.0314457392437
2320.313660474563 1402.8748604904013
2320.8978574127195 1624.3198491786886
2321.481913113452 1751.4653730400246
2322.0658276084705 1336.8013780960982
2322.6496009294806 1176.6309448640702
2323.233233108165 1245.2311999080023
2323.8167241762058 1314.002584856325
2324.4000741652617 1317.4767510593963
2324.983283106987 1661.8995352435024
2325.5663510330232 1584.8501784836392
2326.1492779749933 1360.9460435279761
2326.7320639645204 1492.037229678214
2327.3147090332004 1176.1558589919703
2327.897213212629 1274.9188736289739
2328.4795765343843 1373.7208325873903
2329.0617990300307 1249.4909144280844
2329.643880731124 1691.6992598492657
2330.22582166921 1196.9677828872377
2330.807621875816 1204.6418202286238
2331.3892813824623 1212.429828665241
2331.9708002206517 1247.4706329432033
2332.5521784218818 1320.0258117905876
2333.133416017634 1392.7870912131689
2333.7145130393765 1315.9722017356796
2334.295469518571 1586.577110737242
2334.876285486658 1619.0092754185632
2335.456960975076 1613.119144949727
2336.037496015242 1607.243788918025
2336.6178906385667 1467.0459507075589
2337.198144876451 1333.4058425302492
2337.778258760278 1540.815254446323
2338.3582323214214 1329.6698821508346
2338.938065591243 1537.519152844061
2339.517758601087 1733.7432597654247
2340.0973113822965 1520.2263250384378
2340.676723966193 1413.1464703234146
2341.255996384094 1649.4234761406278
2341.835128667295 1628.631895088966
2342.4141208470883 1637.2077374610449
2342.992972954751 1308.072398924125
2343.5716850215467 1456.7626498983411
2344.1502570787306 1124.992108537159
2344.7286891575386 1360.5447646008956
2345.3069812892045 1692.0536376767461
2345.885133504944 1585.5237218158568
2346.4631458359618 1396.8798615057508
2347.04101831345 1260.1593328512845
2347.6187509685915 1379.4991612575552
2348.196343832553 1416.9678893474559
2348.7737969364935 1553.9821190135758
2349.351110311558 1402.9996966663425
2349.9282839888765 1388.1932876264402
2350.5053179995757 1453.8860103761983
2351.0822123747585 1206.433905397718
2351.658967145526 1209.1638283715354
2352.2355823429643 1211.9690260663203
2352.812057998144 1514.9373481855355
2353.3883941421263 1454.9377200099914
2353.9645908059647 1532.0408871088455
2354.540648020693 1347.07939919094
2355.116565817336 1555.6107796573317
2355.6923442269126 1245.9503102642834
2356.2679832804224 1462.7848392860021
2356.8434830088518 1404.241760183501
2357.41884344318 1441.0890864124403
2357.994064614377 1578.9266326044258
