#exp_cfg={"servo_angle": 0.0, "laser_lim": 100.0, "servo_angle_to": 18.0, "laser_wup": 0.0, "bt_dev": "EnSpectr-25AE3", "laser_wdn_max": 0.0, "frames": 10.0, "servo_used": 0, "servo_calib_use": 0, "laser_wdn_min": 0.0, "servo_pix_from": 90.0, "cooler_tout": 300.0, "servo_angle_from": 0.0, "servo_calib": "[-1.9174921013161362e-09, 3.9322238269163779e-05, -0.27385609119055809, 653.59552119713567]", "laser_autoctl": 0, "servo_pix_to": 3682.0, "laser_pw": 100.0, "cooler_on": 0, "laser_volt": 4.0, "cooler_autoctl": 0, "cooler_curr": 70.0, "cooler_startup": 10.0, "laser_fixed_pw": 0, "gain": 1.3, "offset": 2.53059635486, "servo_calib_degree": 3.0, "laser_curr": 55.0, "shutter": 8200.0, "servo_calib_step": 1.0, "laser_fixed_curr": 0, "exp": 2000.0, "ccd_volt": 4.7, "bt_addr": "00:06:66:62:5A:E3", "servo_delay": 500.0, "laser_autooff": 1}
#proc_cfg={"flat_auto_wnd": 200.0, "flat_auto_fr": 200.0, "flat_auto_shift": 5.0, "yconv": 1, "flatten": 1, "flatten_strength": 100.0, "xfrom": 300.0, "auto_max_frame": 2000.0, "auto_signal": 48000.0, "flat_auto_tol": 0.1, "autoclip": 1, "xrel_range": 0.0, "flat_auto_to": 4000.0, "intensity_adj": 1.0, "xrel": 7852.0, "rmhot": 1, "flat_auto_slit": 4.999999999999997, "auto_ini_exp": 300.0, "auto_off": 0, "xto": 2860.0, "flat_auto_ref": "", "flat_auto_rank": 1, "autobackg": 0, "xrel_adj": 0.0, "auto_black_lvl": 1, "base_wnd": 100.0, "sub_baseline": 0, "xconv": 2, "auto_max_exp": 1000.0, "auto_total_exp": 10000.0, "auto_exp": 0, "rmripple": 0, "black_lvl": 8246.15, "shutter_clip_adj": 0.0, "auto_bckg": 0, "flat_auto_thr": 0.9, "subbackg": 1}
316.8218498245369 18055.87117769862
317.89969571804795 17959.516205692566
318.977263876126 17886.444453254215
320.05455438786703 17739.1137697218
321.1315673423287 17573.66084007104
322.2083028285215 17586.071925512464
323.2847609354267 17497.86802219455
324.3609417519747 17347.876923129385
325.43684536705587 17321.132287112097
326.5124718695279 17234.614304788694
327.58782134820103 17125.83279555398
328.66289389184385 17199.38526305509
329.7376895891921 16999.43366129329
330.8122085289342 16997.299199747733
331.88645079971866 16888.516902572075
332.9604164901575 16858.841598166026
334.03410568881554 16758.271135608782
335.1075184842266 16879.115882799433
336.18065496487543 16640.525423789186
337.2535152192122 16566.78668577507
338.32609933564163 16535.57364253129
339.39840740253203 16463.068260754815
340.4704395082099 16385.198923687996
341.5421957409617 16286.838028966507
342.6136761890357 16288.797466734282
343.6848809406365 16098.045868776186
344.75581008392874 16009.190090488908
345.82646370703696 16019.478814513646
346.8968418980512 15974.335536687038
347.96694474501055 15947.479801866886
349.0367723359268 15968.974715597938
350.106324758759 15837.050620000522
351.1756021014353 15784.107020856758
352.2446044518383 15770.423801832503
353.31333189781435 15884.033878716693
354.38178452716966 15776.87845762202
355.449962427665 15782.877747006065
356.51786568702846 15577.6085652862
357.58549439294256 15714.899204012214
358.6528486330535 15677.927203874302
359.71992849496564 15686.920400102163
360.7867340662433 15561.790065968913
361.8532654344144 15605.978039325137
362.9195226869597 15629.830224823983
363.9855059113288 15511.860411878582
365.05121519492604 15569.146920501915
366.11665062511565 15600.310450168166
367.1818122892273 15584.50212450224
368.2467002745434 15518.898172479749
369.31131466831175 15457.806813056222
370.375655557742 15512.428628575299
371.4397230299983 15483.754799858923
372.5035171722102 15479.304775315573
373.5670380714637 15397.018441878123
374.6302858148101 15452.02155619692
375.6932604892554 15458.156713008513
376.7559621817709 15392.472844368074
377.81839097928605 15298.809348287637
378.8805469686886 15344.264380456685
379.94243023683157 15466.0997698463
381.0040408705263 15221.25662636204
382.0653789565458 15157.06669589294
383.1264445816196 15251.359464403893
384.1872378324406 15163.248228449162
385.2477587956637 15120.96883785944
386.3080075579037 15028.395298954012
387.3679842057336 14977.707620358724
388.4276888256918 14931.980563447642
389.48712150426945 14993.751367150506
390.54628232792857 14913.282215184274
391.6051713830857 14797.948952991104
392.66378875611736 14857.908612264586
393.7221345333637 14775.838656086558
394.7802088011249 14772.280378213763
395.838011645661 14787.613871799354
396.89554315319765 14662.95878094233
397.9528034099112 14626.31209443144
399.00979250194723 14625.441892387496
400.06651051541485 14511.261532339504
401.1229575363741 14510.394840438725
402.17913365085224 14562.992844837994
403.23503894483656 14541.715674888586
404.2906735042761 14479.39410278133
405.3460374150818 14338.81838621769
406.401130763119 14372.557391268932
407.455953634224 14359.68051178358
408.5105061141876 14268.499538710079
409.56478828876243 14196.154472683429
410.6188002436629 14196.817006983847
411.6725420645689 14155.134799480811
412.72601383711117 14180.350680983785
413.77921564689314 14194.142687087206
414.8321475794728 14089.298065145547
415.88480972036814 13967.642782484585
416.93720215506437 14041.522019086566
417.9893249690049 13942.138282902344
419.04117824759123 13862.731170941674
420.09276207619223 13857.928033353144
421.144076540133 13929.531871226416
422.1951217247042 13863.004466954124
423.24589771515275 13907.033646870826
424.2964045966928 13783.193792209777
425.34664245449494 13793.05558895199
426.3966113736933 13733.56771922106
427.4463114393875 13670.394181789186
428.49574273662984 13647.911789084868
429.5449053504417 13602.215651172266
430.5937993658026 13699.929588427156
431.6424248676558 13589.990762702719
432.6907819409007 13546.994294428054
433.73887067040596 13526.730872727925
434.7866911409965 13509.667031706176
435.8342434374608 13462.165870454395
436.88152764455117 13403.534122484398
437.9285438469724 13354.329159638257
438.9752921294057 13328.938405033332
440.02177257648145 13344.490708008758
441.06798527279716 13154.716657439465
442.1139303029122 13298.812722748826
443.1596077513459 13453.178964962039
444.2050177025794 13200.581613459852
445.25016024105753 13194.440845379224
446.2950354511886 13146.61324937891
447.33964341733736 13190.618409933732
448.383984223834 13146.463268395422
449.4280579549686 13137.245461424996
450.471864694995 13115.976973836052
451.5154045281306 13066.754758467949
452.5586775385509 13126.043174098124
453.60168381039693 13046.356135043494
454.64442342776783 13107.721179301143
455.6868964747264 13111.375846738685
456.7291030353008 13056.301135291638
457.77104319347563 13091.789436727577
458.8127170332027 13061.023828736445
459.854124638392 13032.320107208743
460.895266092919 13124.419410537826
461.93614148061897 13146.200084742726
462.97675088529104 13154.34555654223
464.01709439069236 13179.653996772027
465.0571720805492 13230.478354939278
466.0969840385442 13235.914144794637
467.1365303483253 13326.67855347291
468.17581109350067 13157.008121307768
469.2148263576437 13174.086797902166
470.2535762242878 13250.273124176549
471.29206077693016 13324.0681533314
472.33028009902773 13318.957255902493
473.3682342740012 13365.795874982103
474.40592338523857 13345.292167645854
475.4433475160804 13352.786415405983
476.4805067498364 13341.95679084994
477.51740116978 13298.842514444992
478.5540308591426 13539.192550989139
479.59039590112116 13588.686540457182
480.6264963788726 13621.398464468275
481.6623323755193 13643.372264076103
482.6979039741436 13747.730041516494
483.7332112577915 13955.266622835343
484.76825430947247 14124.612254697257
485.80303321215797 14164.381359915138
486.837548048783 14331.59809464515
487.8717989022425 14559.318045023936
488.90578585539697 14544.986732183868
489.9395089910686 14761.458212653748
490.97296839203955 14665.745586506575
492.00616414106116 14575.54725208066
493.0390963208429 14592.586009075609
494.0717650140559 14614.573467620628
495.10417030333883 14393.203993239196
496.1363122712901 14327.612684553347
497.16819100046814 14073.286129549899
498.1998065734024 13891.882968741897
499.2311590725767 13779.044581153077
500.26224858044407 13668.215579543295
501.2930751794156 13481.565064004837
502.3236389518679 13422.504556874957
503.35393998014115 13224.824281372183
504.38397834653733 13186.038369225798
505.4137541333221 13128.14689167378
506.4432674227228 12905.656891108953
507.4725182969323 12903.487031235834
508.5015068381035 12806.634522492635
509.53023312835467 12806.204155053993
510.55869724976765 12713.584331804042
511.58689928438434 12719.581298488509
512.6148393142121 12520.127895340209
513.6425174212218 12637.293424887608
514.6699336873462 12662.598907577112
515.6970881944835 12581.109764579147
516.7239810244901 12395.523986715005
517.7506122591931 12509.677917461991
518.7769819803761 12368.516372686021
519.8030902697901 12428.623987552217
520.8289372091476 12396.881626258652
521.8545228801249 12515.575999126333
522.8798473643619 12371.628538859037
523.9049107434621 12357.983981953581
524.9297130989908 12290.742436048378
525.9542545124805 12262.423953752295
526.9785350654201 12217.279026287075
528.0025548392696 12275.433654207289
529.0263139154504 12141.909459753986
530.0498123753423 12228.678473580949
531.073050300296 12137.543939721876
532.0960277716204 12033.227308940426
533.1187448705896 12139.921446687318
534.1412016784416 12065.790438703552
535.1633982763833 12002.326087122205
536.1853347455726 11926.36269930365
537.2070111671401 11947.483755531128
538.2284276221817 11910.418961953908
539.2495841917516 11795.79797652596
540.2704809568677 11731.15558615721
541.2911179985167 11798.378171702028
542.3114953976419 11671.271175529426
543.3316132351592 11683.707782315501
544.3514715919409 11557.5991280377
545.3710705488247 11614.077215113724
546.3904101866156 11669.372406764072
547.4094905860784 11668.688276144474
548.4283118279418 11572.442599933247
549.4468739929034 11644.81697836591
550.4651771616191 11598.571870247997
551.4832214147063 11486.529161589908
552.501006832761 11575.143781563445
553.5185334963226 11461.974463385617
554.5358014859103 11581.778203161835
555.5528108820035 11469.83567809547
556.5695617650363 11527.254795903737
557.5860542154242 11570.287397141885
558.6022883135283 11487.175476025353
559.6182641396881 11436.283681422527
560.6339817741991 11508.834083310008
561.6494412973225 11476.717503491742
562.6646427892883 11558.723876649556
563.6795863302796 11386.1043587422
564.694272000459 11382.30655427212
565.7086998799423 11561.05500158966
566.7228700488104 11396.799299020768
567.7367825871115 11359.645638935262
568.7504375748576 11400.773834132537
569.7638350920224 11405.884576137913
570.7769752185486 11381.30247927184
571.7898580343353 11372.751069505883
572.802483619258 11390.061081900367
573.8148520531431 11467.285986982008
574.8269634157932 11389.934985270784
575.8388177869692 11304.553958660868
576.8504152463938 11479.318800622572
577.8617558737587 11537.680341781339
578.8728397487175 11521.304160344169
579.883666950891 11551.66018056652
580.8942375598654 11687.070041974808
581.9045516551851 11716.583943156187
582.9146093163617 11906.63346596681
583.924410622878 11795.351712860844
584.9339556541727 11880.149662871097
585.9432444896538 11859.432946508485
586.9522772086875 11860.548835942078
587.9610538906127 11937.967560260959
588.9695746147318 11931.441979972897
589.9778394603054 11925.13416963777
590.985848506567 11866.822341867726
591.9936018327098 11763.681223504997
593.0010995178891 11611.630508226302
594.0083416412344 11633.86803213886
595.0153282818283 11462.313425649609
596.0220595187293 11474.554587548384
597.0285354309508 11423.656947112879
598.0347560974806 11302.125679516332
599.0407215972609 11267.909363297567
600.0464320092051 11242.207030092699
601.0518874121954 11226.662843209913
602.0570878850685 11238.032805907837
603.062033506636 11214.473091594871
604.0667243556636 11189.037634081493
605.0711605108936 11071.669162693675
606.0753420510264 11250.051731683781
607.0792690547278 11195.296219603832
608.082941600629 11194.871759052006
609.0863597673306 11160.902588829276
610.0895236333909 11298.73120781206
611.0924332773357 11320.394685164345
612.0950887776617 11329.225597701143
613.0974902128219 11296.550380953713
614.0996376612384 11446.265071203281
615.1015312013005 11553.342102497038
616.1031709113595 11630.6137792703
617.1045568697336 11543.96867377833
618.1056891547069 11830.437566606084
619.1065678445229 11950.972156731912
620.1071930173985 12232.744813490037
621.1075647515099 12154.939030440775
622.1076831250048 12294.152410365252
623.1075482159849 12535.73119264063
624.1071601025305 12583.77069938789
625.1065188626781 12722.028282977964
626.105624574433 13093.789826009177
627.1044773157682 13071.63998348033
628.1030771646128 13204.784307102036
629.1014241988742 13358.705499050722
630.0995184964158 13560.161787353816
631.0973601350688 13711.132785550075
632.0949491926294 13874.153256106709
633.0922857468631 13688.969941190004
634.089369875499 13854.006608835654
635.0862016562278 13797.927421113087
636.0827811667077 13695.640216628093
637.0791084845641 13651.991793436862
638.0751836873878 13526.462099520311
639.0710068527369 13459.062102869731
640.0665780581294 13247.349359824651
641.0618973810506 13033.488754153474
642.0569648989604 13073.15058217529
643.0517806892676 12800.521355299485
644.0463448293649 12628.449680983347
645.040657396592 12462.962206296008
646.0347184682723 12373.377490862682
647.0285281216875 12173.028905647778
648.0220864340772 12117.500943215724
649.0153934826558 12009.98223162664
650.0084493446047 11841.11151317802
651.0012540970674 11762.820841758954
651.9938078171526 11648.452920935933
652.9861105819346 11638.161734372155
653.9781624684565 11541.861491292548
654.9699635537254 11395.732924776064
655.9615139147136 11440.42137948861
656.9528136283589 11279.252796061064
657.9438627715699 11364.68288843412
658.9346614212154 11168.899106288587
659.925209654135 11023.52078874467
660.9155075471263 11074.507579320574
661.9055551769616 10976.427625695887
662.895352620375 11046.59366415822
663.8848999540678 10843.197712538422
664.8741972547068 10784.853759768936
665.863244598926 10707.45170385419
666.8520420633213 10773.467298338317
667.8405897244611 10631.200218604183
668.8288876588758 10517.932358657501
669.8169359430613 10646.3228855846
670.8047346534822 10530.066591836601
671.7922838665672 10431.796557223322
672.7795836587156 10478.031420388916
673.766634106285 10624.710164319045
674.7534352856092 10406.186794414398
675.7399872729766 10370.852332464096
676.7262901446538 10303.34871132228
677.712343976862 10327.721213776342
678.6981488457986 10457.149002791466
679.6837048276229 10234.516579929881
680.6690119984596 10343.696294950492
681.6540704344043 10313.583449832042
682.6388802115107 10256.823086176386
683.6234414058108 10197.223016519061
684.6077540932874 10173.16087724507
685.591818349907 10112.014800522618
686.575634251587 10172.988736540177
687.5592018742263 10058.349106461475
688.5425212936734 9958.983039815144
689.5255925857564 10066.777024179795
690.5084158262707 9928.971087022059
691.4909910909646 9890.101320205045
692.4733184555644 9870.0257610188
693.4553979957618 9895.236709391993
694.4372297872123 9969.422558978385
695.4188139055404 9862.556473681543
696.4001504263324 9772.159637883151
697.3812394251509 9845.77254392082
698.3620809775111 9848.486795971967
699.3426751589104 9800.975687607806
700.3230220448004 9743.636062129106
701.3031217106054 9764.191167907313
702.2829742317172 9928.611960674903
703.2625796834873 9730.927138968194
704.2419381412474 9731.862501184103
705.22104968028 9790.802021284784
706.1999143758458 9811.596473473957
707.178532303169 9804.70421373109
708.1569035374378 9893.663114510538
709.1350281538107 9956.54315404289
710.1129062274158 9937.473234928519
711.0905378333373 10063.135830043087
712.0679230466376 10065.491301253101
713.0450619423427 10249.967646773568
714.0219545954424 10259.448821611788
714.9986010808989 10291.432152061196
715.9750014736292 10462.992898820117
716.9511558485392 10622.40667219545
717.9270642804786 10778.902611044054
718.9027268442787 10798.456317140432
719.8781436147328 10844.072388221472
720.8533146666014 10781.491041967176
721.828240074612 10813.612516631492
722.8029199134635 10871.35966980549
723.7773542578125 10792.061239089566
724.751543182294 10663.014385044244
725.7254867615029 10632.875689603934
726.6991850700015 10514.332624273184
727.6726381823228 10475.683741475003
728.6458461729599 10400.768136964045
729.6188091163858 10435.367191696912
730.5915270870246 10478.685665474293
731.5640001592856 10380.712094477438
732.536228407529 10460.836073845725
733.5082119060917 10517.887917398579
734.4799507292755 10508.13271778553
735.4514449513481 10569.895671942446
736.4226946465496 10671.052695803755
737.3936998890786 10719.696727981409
738.3644607531078 10614.397428074768
739.3349773127793 10597.825736036242
740.3052496421951 10474.740967558271
741.27527781543 10358.87011612571
742.2450619065221 10112.053948744962
743.2146019894826 10041.373462155128
744.183898138288 9924.333172660412
745.1529504268801 9856.972732199349
746.1217589291682 9626.472327318113
747.0903237190341 9426.244470820797
748.058644870318 9491.477770490528
749.0267224568397 9431.805993355052
749.994556552374 9191.328461638635
750.9621472306771 9296.344482784698
751.9294945654583 9244.059121592676
752.8965986304011 9212.750003486544
753.8634594991636 9082.476301258966
754.8300772453586 9137.668580633173
755.7964519425768 9115.846251534289
756.762583664371 9102.10006360446
757.7284724842611 9078.892940779178
758.6941184757416 9079.622683845497
759.6595217122667 9071.187931625744
760.6246822672638 9104.08206598435
761.5896002141235 8965.992786666628
762.5542756262093 9068.566159692184
763.5187085768503 9050.747597889083
764.4828991393406 8941.835914177102
765.4468473869474 8955.88592090932
766.4105533929032 8934.073838682581
767.3740172304078 8840.275839225802
768.3372389726283 8872.766007499313
769.3002186926988 8798.75908095236
770.2629564637282 8771.461389013595
771.2254523587872 8751.68330417512
772.1877064509154 8718.467618042529
773.1497188131179 8559.548377416417
774.1114895183728 8585.754685195392
775.0730186396268 8535.583324490699
776.0343062497905 8507.059756871018
776.9953524217381 8444.049028051793
777.9561572283274 8549.144568523452
778.9167207423689 8459.47851246011
779.8770430366476 8413.343085021323
780.8371241839159 8369.991430663209
781.7969642568951 8363.74284588906
782.7565633282757 8563.896040062222
783.7159214707099 8425.86593618904
784.6750387568281 8357.437330818178
785.6339152592227 8419.542219062398
786.5925510504512 8297.736010527775
787.5509462030477 8444.742816103952
788.5091007895098 8354.36580354896
789.4670148823006 8418.961421111064
790.4246885538596 8375.366254226046
791.3821218765861 8356.774169478129
792.3393149228505 8313.697412083122
793.2962677649975 8399.821677750939
794.2529804753303 8475.757145440071
795.20945312613 8468.292545432085
796.1656857896378 8410.54297535833
797.1216785380675 8427.756062862512
798.0774314435985 8491.490642164803
799.0329445783846 8665.663507563197
799.9882180145414 8657.642415343687
800.9432518241574 8611.548205980578
801.89804607929 8689.567730363991
802.852600851962 8716.535169548431
803.8069162141637 8789.877186937041
804.760992237856 8872.486353078035
805.714828994971 8873.519571290472
806.6684265574077 8934.736677818128
807.6217849970271 8824.34879590415
808.574904385674 8764.363825674314
809.527784795142 8885.086787277314
810.4804262972102 8911.902252098696
811.4328289636178 8709.79889481216
812.3849928660748 8609.713566530976
813.3369180762638 8610.061976162351
814.2886046658241 8625.463201246068
815.2400527063783 8485.310054934198
816.1912622695108 8419.02523774912
817.1422334267718 8437.511053695065
818.0929662496856 8286.531906821601
819.0434608097457 8195.311694513319
819.9937171784059 8173.883056482237
820.9437354271013 8036.914876137892
821.8935156272255 8135.056365922142
822.8430578501484 8119.014602410416
823.7923621672016 7888.154860003885
824.7414286496896 7999.157285377133
825.6902573688876 7972.557871034813
826.6388483960363 7930.490813167186
827.5872018023492 7877.215122409019
828.5353176590033 7854.314005336785
829.4831960371503 7827.111163181386
830.4308370079016 7809.496380876623
831.3782406423525 7824.008074562077
832.3254070115545 7752.060746695488
833.2723361865319 7806.456313943604
834.2190282382799 7728.2696456394
835.1654832377644 7775.218515732035
836.1117012559116 7717.928019355082
837.0576823636256 7806.660025381394
838.003426631778 7660.413731902107
838.9489341312074 7638.989831327669
839.8942049327197 7720.2573812450455
840.8392391070975 7762.327291420185
841.7840367250865 7712.65882032531
842.7285978573982 7613.150705346532
843.672922574724 7727.187308742692
844.6170109477152 7650.541209165975
845.560863046996 7644.56291074024
846.5044789431595 7635.852177240893
847.4478587067697 7662.832835610311
848.3910024083561 7743.267027246276
849.333910118421 7626.721939050092
850.2765819074339 7607.174645530531
851.2190178458332 7666.841593946546
852.161218004032 7684.825403714087
853.1031824524016 7675.655034173712
854.0449112612987 7615.577167737703
854.9864045010327 7691.338433247901
855.9276622418947 7515.257453421707
856.8686845541379 7696.52228163394
857.8094715079915 7569.606866737243
858.7500231736467 7696.1780263151495
859.690339621271 7604.869660317058
860.6304209209939 7679.893830224204
861.5702671429244 7564.948881799212
862.5098783571284 7673.576270852935
863.4492546336569 7651.999301562452
864.3883960425155 7614.4385357388255
865.3273026536863 7634.5355899484475
866.2659745371238 7566.51723503028
867.2044117627465 7699.971064136718
868.1426144004472 7619.1229438830105
869.0805825200823 7693.85815755628
870.0183161914847 7823.833389165817
870.9558154844526 7754.02245824429
871.8930804687552 7697.944183597492
872.8301112141307 7763.143931461028
873.7669077902865 7855.307997742291
874.7034702669062 7975.753532543771
875.6397987136315 7911.626659943178
876.5758932000863 7941.2800114928295
877.5117537958522 7904.00024596723
878.4473805704911 7919.423421550418
879.3827735935283 7892.300539441889
880.3179329344603 8063.092651780216
881.2528586627541 8129.7519614701405
882.1875508478479 8126.125512514326
883.1220095591489 7983.697097953937
884.0562348660296 8002.1150672014755
884.9902268378391 8036.148635909458
885.9239855438955 8086.090154854914
886.8575110534839 7974.170718037787
887.7908034358588 7997.945717517714
888.7238627602474 7982.869320153785
889.6566890958475 7958.357672689548
890.5892825118208 7827.897228402928
891.5216430773125 7822.142668268998
892.4537708614189 7852.838925871176
893.3856659332196 7760.243275664072
894.3173283617652 7678.632395031161
895.2487582160684 7688.279505005045
896.179955565116 7562.4093613134855
897.110920477864 7556.581164188936
898.0416530232451 7462.004723505017
898.9721532701478 7469.754234201823
899.9024212874428 7542.540037400267
900.8324571439662 7462.586065355912
901.7622609085302 7396.315357752401
902.6918326499072 7326.040048705091
903.6211724368477 7414.761720442193
904.5502803380696 7422.133359378435
905.4791564222614 7480.565586141327
906.4078007580792 7373.8061839541915
907.3362134141571 7361.8575804440015
908.2643944590909 7441.953367060216
909.1923439614493 7322.357833336519
910.1200619897754 7318.760384765196
911.0475486125779 7459.929689528593
911.9748038983344 7314.547921169649
912.9018279155007 7291.820967386248
913.8286207324982 7269.701569239534
914.7551824177117 7279.801950624988
915.6815130395116 7310.1124719347135
916.6076126662283 7139.1796208649175
917.533481366163 7231.910574164069
918.4591192075914 7273.155994512343
919.3845262587565 7249.1596134527035
920.3097025878706 7189.294828015241
921.2346482631237 7098.659885049897
922.1593633526682 7145.616998234339
923.0838479246304 7213.13604448524
924.0081020471061 7269.569044375562
924.9321257881656 7076.111464772161
925.8559192158464 7037.628162859415
926.7794823981512 7105.496529273051
927.7028154030686 7066.436135117202
928.6259182985414 7087.73801571124
929.5487911524906 7158.558995953055
930.4714340328119 7138.076126758213
931.3938470073608 6954.5556857390475
932.3160301439748 6990.885925548382
933.2379835104548 7004.693495260815
934.1597071745709 7074.910733151805
935.0812012040769 7020.071707249823
936.002465666681 7098.419039502927
936.9235006300696 7028.509850733115
937.8443061619055 6973.563119750435
938.7648823298077 6912.718403838652
939.6852292013809 6954.161227598326
940.6053468441951 7051.680371928751
941.5252353257874 6989.4389095295755
942.4448947136698 6978.796026760758
943.364325075323 6969.14022113128
944.2835264782043 6950.32391099326
945.2024989897309 7019.83786275304
946.1212426773054 6976.619768791822
947.0397576082851 6962.237477800902
947.9580438500125 7074.274394094941
948.8761014697939 7041.100969841716
949.7939305349064 7012.21426947851
950.7115311125999 6935.616378642466
951.6289032700952 6994.745614494471
952.5460470745875 7082.715068241423
953.4629625932339 6963.037054523726
954.3796498931715 7035.682310781417
955.2961090415029 7024.542861314779
956.2123401053068 7059.776913329066
957.1283431516276 7017.350976645071
958.0441182474842 6944.650409390507
958.9596654598663 7035.39473052968
959.8749848557309 6978.369339279452
960.7900765020167 6905.499008004801
961.7049404656209 6919.9869403709645
962.6195768134185 6951.83588002675
963.5339856122537 6925.550539592101
964.4481669289453 6940.185455679981
965.3621208302793 6869.096190789789
966.2758473830145 6801.295843328177
967.1893466538822 7030.7084530831535
968.1026187095813 6921.9150958386745
969.0156636167867 6859.773283416881
969.9284814421426 6948.477364659324
970.8410722522622 6889.1080494479265
971.753436113735 6835.536255605361
972.6655730931161 6832.840680756967
973.5774832569368 6896.820275805294
974.4891666716958 6882.363704070813
975.4006234038698 6800.503088183793
976.3118535198955 6786.45116932449
977.2228570861935 6904.403573113666
978.1336341691494 6753.893035548934
979.0441848351202 6788.288831356387
979.9545091504333 6861.684480827939
980.864607181391 6865.732676113306
981.7744789942699 6833.275261428379
982.6841246553086 6853.906045829039
983.5935442307236 6804.225863511527
984.5027377867027 6898.163622307251
985.4117053894024 6869.991322256331
986.3204471049557 6807.606405245409
987.2289629994648 6844.3574418670205
988.1372531390007 6967.822831721649
989.0453175896091 6903.908744006263
989.9531564173067 6893.146878267512
990.860769688079 6804.656477452731
991.7681574678918 6877.130075032456
992.6753198226706 6898.461836259582
993.582256818323 6933.097535579453
994.4889685207218 6892.52053701485
995.3954549957143 6980.351234341225
996.301716309119 7019.518475623574
997.2077525267232 6977.0763505130235
998.1135637142943 6942.691150677945
999.0191499375615 7028.557776687527
999.924511262232 6919.376333459237
1000.8296477539861 7040.134424907759
1001.7345594784656 6957.778166869711
1002.6392465012996 7059.010894848745
1003.5437088880753 7095.683487346687
1004.4479467043584 7090.277467179076
1005.3519600156869 6905.586621551565
1006.2557488875718 6985.057043266943
1007.1593133854858 7019.164087576277
1008.0626535748888 6914.265672919522
1008.9657695212009 6932.956124402893
1009.8686612898182 7076.383958135416
1010.7713289461135 7005.147407877744
1011.6737725554212 6933.165387809333
1012.5759921830577 7016.958407041607
1013.4779878943027 6942.092437977546
1014.379759754418 6966.169262494867
1015.2813078286254 6834.593238721708
1016.18263218213 6799.487678540556
1017.0837328801026 6815.924449739008
1017.9846099876886 6854.807677113109
1018.8852635700023 6767.664988529732
1019.7856936921362 6717.403621836827
1020.6859004191447 6773.339306910578
1021.5858838160675 6740.980252216357
1022.4856439479063 6653.470278731213
1023.3851808796389 6706.337807900568
1024.2844946762143 6716.271598138878
1025.183585402554 6713.068471111603
1026.082453123554 6530.8653039024375
1026.9810979040776 6652.600695879065
1027.8795198089647 6596.0216701584895
1028.777718903024 6648.692807717247
1029.6756952510368 6571.703038623817
1030.5734489177648 6527.685860460542
1031.4709799679313 6711.130192624647
1032.3682884662358 6677.176813505424
1033.2653744773506 6486.864616098268
1034.1622380659192 6563.616683195716
1035.058879296559 6723.678613735315
1035.9552982338591 6749.291372773869
1036.8514949423825 6679.884210408165
1037.7474694866614 6777.120676072928
1038.6432219312028 6726.6152766162095
1039.5387523404825 6995.363466528727
1040.4340607789582 6970.653000594446
1041.3291473110476 7036.716876074133
1042.2240120011465 7224.169077404156
1043.1186549136273 7324.401075390927
1044.0130761128294 7413.300814491966
1044.9072756630649 7497.035136617798
1045.8012536286205 7627.977745534957
1046.6950100737577 7783.8915226100435
1047.588545062701 7871.434099598859
1048.481858659663 7907.6241820645055
1049.3749509288118 8100.317125046507
1050.2678219343034 7927.846762921346
1051.1604717402515 7896.693949363794
1052.0529004107575 7902.92069261056
1052.9451080098825 7945.068451577378
1053.8370946016694 7874.982457292937
1054.7288602501267 7714.677758538451
1055.6204050192446 7728.153643696639
1056.511728972977 7622.051502647385
1057.402832175254 7546.652419154288
1058.2937146899785 7295.758220616013
1059.1843765810263 7296.827388080385
1060.0748179122456 7343.130008299262
1060.9650387474576 7151.361544759668
1061.855039150456 7171.774104284002
1062.7448191850071 6982.964211768175
1063.6343789148505 6943.168684064255
1064.5237184037014 7001.839152923179
1065.412837715241 6951.1170236958105
1066.3017369131267 6786.08346984463
1067.190416060992 6718.136486668566
1068.0788752224398 6678.810670790331
1068.9671144610438 6653.513161951649
1069.8551338403558 6702.14138245251
1070.7429334239023 6600.800746146284
1071.6305132751695 6528.339800148184
1072.517873457633 6619.132756854454
1073.4050140347335 6570.627216501189
1074.2919350698776 6471.189546899716
1075.1786366264623 6620.543552700748
1076.0651187678395 6532.424601091521
1076.95138155735 6478.6022827694005
1077.8374250582929 6423.3200845014935
1078.7232493339507 6400.055842558597
1079.608854447577 6389.818877953249
1080.4942404623907 6407.071063607973
1081.3794074415982 6383.27861361108
1082.2643554483657 6413.53528735072
1083.149084545841 6331.564160666019
1084.033594797138 6268.362694293759
1084.9178862653516 6358.456328118142
1085.8019590135427 6432.227154725993
1086.6858131047484 6287.855189066769
1087.5694486019802 6365.4538853462855
1088.4528655682225 6387.337475676484
1089.3360640664287 6376.531298320831
1090.2190441595321 6337.315002891339
1091.1018059104317 6413.9150507370405
1091.98434938201 6376.481074787584
1092.866674637111 6414.19634935698
1093.748781738559 6384.670332989166
1094.6306707491512 6322.185095583844
1095.5123417316554 6351.396973775156
1096.3937947488157 6347.8541999011395
1097.2750298633455 6372.8080963314205
1098.156047137938 6336.971264557372
1099.0368466352556 6355.758579603483
1099.9174284179317 6515.681886568899
1100.7977925485757 6274.6613673439115
1101.6779390897755 6331.582462361542
1102.5578681040806 6320.654084028083
1103.4375796540226 6307.651551933496
1104.3170738021054 6270.602040162143
1105.1963506108077 6218.602130789831
1106.0754101425773 6169.998616613122
1106.9542524598382 6232.42609480874
1107.8328776249855 6172.811775876085
1108.7112857003904 6239.323977943047
1109.5894767483987 6157.908055067627
1110.4674508313292 6249.909669694508
1111.3452080114657 6168.855297337985
1112.2227483510815 6255.28269202879
1113.1000719124077 6273.972521675169
1113.9771787576592 6291.6856995254275
1114.854068949022 6288.208288621413
1115.7307425486542 6261.783870205833
1116.6071996186893 6300.205099568707
1117.483440221229 6579.33474756963
1118.3594644183577 6398.935014293513
1119.235272272128 6370.600886297447
1120.1108638445658 6382.931632611012
1120.9862391976712 6768.059673844613
1121.8613983934229 6724.621865185103
1122.7363414937627 6763.626096119896
1123.6110685606182 6727.300106978597
1124.485579655884 6907.932085502963
1125.359874841426 6890.510916473056
1126.2339541790916 6866.123123089108
1127.1078177306936 7033.42564486062
1127.9814655580267 6991.919635832933
1128.854897722851 7041.061923326117
1129.7281142869106 6928.248530031489
1130.6011153119125 7026.3987703517705
1131.473900859548 7267.507034317425
1132.3464709914697 7059.531403113647
1133.2188257693178 7007.998204784977
1134.0909652546961 6961.744443657403
1134.96288950919 6913.434506070458
1135.8345985943506 6921.349864558901
1136.7060925717087 6814.9684782408785
1137.57737150277 6884.424445034577
1138.4484354490069 6773.366293160102
1139.3192844718778 6652.515887581042
1140.1899186327992 6542.989710275454
1141.060337993178 6648.67605650506
1141.930542614382 6509.439924682296
1142.8005325577597 6462.409159731422
1143.670307884635 6337.897243134094
1144.5398686563003 6399.797128517841
1145.409214934025 6328.252041869868
1146.2783467790541 6170.786152765611
1147.1472642526023 6177.065431065705
1148.0159674158622 6248.031149052195
1148.8844563300026 6018.917898138986
1149.7527310561618 6032.093966631964
1150.6207916554504 5980.165196154526
1151.4886381889592 5943.840632488165
1152.3562707177498 5926.977669801448
1153.2236893028585 5952.554288258111
1154.090894005296 5857.334005591515
1154.9578848860474 5875.128178636329
1155.8246620060709 5809.096493530153
1156.6912254262988 5756.104578159331
1157.5575752076438 5706.881658039073
1158.42371141098 5821.937479846956
1159.2896340971656 5863.6310238126125
1160.1553433270346 5723.312423814215
1161.0208391613887 5787.284327073518
1161.8861216610057 5729.701383774135
1162.75119088664 5794.067713542735
1163.6160468990201 5759.339162681522
1164.4806897588442 5611.085025522961
1165.3451195267917 5720.069540578624
1166.2093362635114 5711.980443197628
1167.0733400296285 5732.201078779984
1167.9371308857444 5594.778147760563
1168.8007088924278 5631.81139070554
1169.6640741102328 5662.61308047642
1170.5272265996773 5613.530802664058
1171.390166421259 5552.063135488783
1172.252893635452 5612.835177169279
1173.1154083026995 5723.8142065352795
1173.977710483421 5695.250196993634
1174.8398002380145 5561.9374141990065
1175.7016776268483 5712.57159519028
1176.563342710264 5649.440619855786
1177.4247955485826 5614.983391411338
1178.2860362020947 5695.918397690247
1179.147064731069 5607.888059407179
1180.0078811957483 5666.859249182993
1180.8684856563486 5687.808396613397
1181.7288781730604 5777.840706718158
1182.589058806052 5775.452195967392
1183.4490276154593 5791.788765475638
1184.3087846614017 5693.319048211661
1185.1683300039676 5844.355895187205
1186.027663703222 5877.971107588684
1186.8867858192025 5869.521327104469
1187.7456964119228 5855.175620333319
1188.6043955413716 5846.655042385168
1189.4628832675116 5979.083215086104
1190.3211596502842 6099.007522945328
1191.179224749596 6013.02531233767
1192.0370786253388 5921.426652769943
1192.8947213373758 6072.988371266838
1193.7521529455407 6111.647154443594
1194.6093735096438 6013.557911431876
1195.466383089477 6043.889814705758
1196.3231817447977 6069.688685269063
1197.1797695353398 6202.143766750331
1198.0361465208189 6002.250483480721
1198.8923127609214 6039.912955177602
1199.7482683153048 6200.513894385957
1200.6040132436028 6222.540710984297
1201.459547605431 6062.211982364639
1202.3148714603722 6220.989384059747
1203.1699848679855 6205.346277404239
1204.0248878878065 6312.831467435589
1204.8795805793507 6035.38533708151
1205.7340630020935 6192.200572022024
1206.5883352155033 6112.95654653761
1207.4423972790064 6171.000537873135
1208.2962492520237 5991.506806792792
1209.1498911939307 6079.039340342465
1210.0033231640937 5979.049880993551
1210.8565452218427 6034.039965593239
1211.7095574264913 5844.579328076123
1212.5623598373222 5847.944747684001
1213.4149525135963 5855.717235156104
1214.2673355145507 5861.594710614424
1215.1195088993936 5675.0083209518
1215.9714727273113 5744.14467386127
1216.8232270574663 5828.996069318117
1217.6747719489904 5617.691708775705
1218.5261074609934 5669.537154132341
1219.3772336525653 5700.657248855572
1220.2281505827668 5769.126897101579
1221.0788583106296 5767.240668723139
1221.9293568951707 5592.855230262696
1222.7796463953746 5557.122508566105
1223.629726870202 5625.543094041205
1224.4795983785934 5521.607515721084
1225.3292609794553 5502.434128139084
1226.1787147316809 5511.619273039903
1227.0279596941327 5559.257480370021
1227.8769959256424 5614.242566933909
1228.7258234850306 5487.626838984878
1229.5744424310833 5352.184441114633
1230.422852822563 5606.850565367141
1231.2710547182105 5628.274960365006
1232.119048176739 5507.510731999945
1232.9668332568417 5356.72084152101
1233.8144100171812 5494.890070608375
1234.6617785163999 5490.6754860565525
1235.508938813111 5309.505063538612
1236.3558909659114 5375.639725216784
1237.2026350333617 5562.10538763339
1238.049171074008 5481.070957863382
1238.8954991463652 5340.759086308791
1239.741619308932 5385.9644565860035
1240.587531620169 5438.795751647799
1241.4332361385277 5490.331248039832
1242.2787329224248 5425.47136866773
1243.1240220302534 5298.91100026998
1243.9691035203869 5442.776491811089
1244.813977451171 5468.888984543532
1245.6586438809263 5450.193497694062
1246.5031028679496 5320.032627529325
1247.3473544705157 5500.615330097318
1248.1913987468706 5446.737566178558
1249.0352357552383 5290.585257174159
1249.8788655538228 5422.8900428081515
1250.7222882007918 5537.791637922929
1251.565503754302 5558.553681485497
1252.4085122724755 5308.766703115628
1253.2513138134182 5537.853893256435
1254.0939084352049 5548.800755444495
1254.9362961958905 5485.0981155458885
1255.7784771535007 5524.843847384029
1256.6204513660432 5527.429460217833
1257.4622188915 5699.65448629055
1258.3037797878242 5577.412013775562
1259.1451341129468 5454.341527285359
1259.9862819247755 5595.344083550195
1260.8272232811978 5576.272552139284
1261.6679582400666 5674.900254958599
1262.5084868592203 5523.7524973509735
1263.34880919647 5503.580861799207
1264.1889253095997 5640.425884798004
1265.0288352563712 5644.712592910144
1265.8685390945266 5555.7644994517395
1266.7080368817751 5625.393602968412
1267.5473286758115 5632.127307931256
1268.386414534294 5701.248290301221
1269.2252945148703 5539.340798402177
1270.0639686751547 5460.343830652706
1270.9024370727402 5424.408771238447
1271.7406997651997 5442.745668840652
1272.5787568100714 5464.15711664927
1273.4166082648808 5437.121149693573
1274.2542541871244 5387.311205055348
1275.091694634275 5559.2762201957485
1275.9289296637817 5267.759193500991
1276.7659593330663 5415.630529369625
1277.6027836995308 5333.842176769405
1278.4394028205552 5386.128889010354
1279.2758167534867 5397.6191095051
1280.112025555658 5223.788497197016
1280.9480292843746 5389.26240023777
1281.7838279969128 5257.232838707053
1282.6194217505326 5263.999795756869
1283.4548106024686 5230.875415184486
1284.289994609926 5294.64835599522
1285.1249738300921 5362.9894511095645
1285.959748320127 5318.326700227491
1286.7943181371702 5275.62357855526
1287.6286833383328 5298.432581242759
1288.4628439807038 5306.147624070269
1289.2968001213521 5217.354200254949
1290.1305518173194 5275.456879935324
1290.9640991256183 5351.265770302869
1291.7974421032523 5365.226489732428
1292.630580807183 5128.795007678296
1293.463515294361 5385.120654904726
1294.29624562171 5452.670311123662
1295.12877184613 5399.504325316172
1295.961094024493 5329.442934277334
1296.79321221365 5332.366274352388
1297.6251264704333 5454.976773019202
1298.4568368516466 5570.871964800373
1299.2883434140658 5448.6877283961485
1300.1196462144526 5431.924778247763
1300.9507453095375 5571.535736771326
1301.7816407560313 5505.255135628905
1302.6123326106172 5611.94978190401
1303.4428209299622 5396.784264608097
1304.2731057707024 5703.8970945533165
1305.1031871894502 5588.116257889917
1305.933065242798 5554.927240954647
1306.7627399873181 5592.54170543236
1307.5922114795467 5820.6787303282235
1308.4214797760123 5761.270016499103
1309.2505449332057 5554.3047808064175
1310.0794070076026 5652.721969125878
1310.9080660556538 5749.135858753698
1311.736522133786 5800.335559962524
1312.5647752983987 5595.131363497774
1313.3928256058734 5564.545067880574
1314.2206731125661 5674.2808122531615
1315.048317874809 5692.967572412669
1315.8757599489109 5620.465048866599
1316.7029993911547 5665.909081197528
1317.5300362578055 5774.565551438901
1318.356870605101 5716.235823368245
1319.183502489257 5737.283697358201
1320.0099319664623 5797.435110895918
1320.836159092889 5771.259210681199
1321.66218392468 5800.448935950723
1322.4880065179532 5518.934098785647
1323.3136269288134 5772.697911258186
1324.1390452133292 5807.018889256488
1324.9642614275563 5829.27157873546
1325.7892756275214 5829.160736938233
1326.6140878692295 5634.30166354665
1327.4386982086617 5894.417234987211
1328.2631067017755 5779.54471640405
1329.0873134045069 5729.604081264724
1329.911318372764 5637.345160380196
1330.735121662441 5770.311202932195
1331.558723329399 5701.971275427258
1332.3821234294774 5627.17418802196
1333.2053220185007 5653.147699311061
1334.0283191522612 5559.056561745133
1334.851114886529 5617.311136488252
1335.6737092770582 5498.009870553828
1336.4961023795695 5534.387991968425
1337.3182942497697 5430.070658867922
1338.1402849433325 5497.640858458775
1338.962074515921 5361.022039613074
1339.7836630231632 5363.988515060885
1340.6050505206676 5601.211254579436
1341.426237064028 5499.218120058122
1342.2472227088037 5364.543306152025
1343.0680075105338 5236.898999792704
1343.888591524741 5296.328882782427
1344.7089748069138 5400.881473102104
1345.5291574125276 5307.64659559502
1346.3491393970307 5270.777591701086
1347.168920815846 5274.8299299754235
1347.9885017243778 5338.571061864266
1348.8078821780036 5258.377033154569
1349.6270622320844 5144.696745053459
1350.4460419419447 5198.3900255697545
1351.2648213629054 5213.043776059456
1352.0834005502438 5063.511892316194
1352.90177955923 5121.421852441466
1353.7199584451064 5244.226631044811
1354.5379372630887 5166.731180140586
1355.355716068374 5119.07192306263
1356.1732949161305 5131.684962268714
1356.9906738615155 5136.635082521903
1357.8078529596478 5148.586011500617
1358.6248322656375 5223.691443020327
1359.441611834567 5039.123289009106
1360.2581917214866 5174.447094835001
1361.0745719814367 5022.24288976208
1361.890752669433 5068.306710287894
1362.7067338404577 5015.78396780305
1363.5225155494845 5131.917798793917
1364.3380978514506 5156.725481761095
1365.1534808012839 4949.844946217194
1365.9686644538815 4881.103717498676
1366.783648864117 5119.293831670319
1367.5984340868417 5135.644944875568
1368.413020176893 5108.8949421591915
1369.2274071890715 5028.829079104065
1370.0415951781652 5106.749025948299
1370.8555841989346 5036.771148408618
1371.6693743061223 4900.00793338332
1372.48296555444 4745.879405348086
1373.2963579985844 5006.303825020056
1374.1095516932255 5057.0444356615
1374.9225466930166 4794.895703125993
1375.7353430525782 4912.284329765978
1376.5479408265164 4903.365913195403
1377.36034006941 4985.268969187658
1378.1725408358216 5028.835509929882
1378.9845431802805 4857.000636863106
1379.796347157304 5144.516822307869
1380.6079528213813 5031.961833163191
1381.4193602269788 4837.311184627189
1382.230569428546 4876.621714132015
1383.0415804805016 5044.142975485698
1383.852393437246 4934.430119213518
1384.6630083531563 4916.940048870712
1385.4734252825892 4850.503707350413
1386.2836442798798 4971.532597527724
1387.0936653993322 5003.33380390466
1387.9034886952395 4975.347274996889
1388.713114221864 5018.281143120828
1389.5225420334482 4998.687632801812
1390.331772184214 4878.205238843618
1391.1408047283585 4841.644691643736
1391.9496397200564 4923.091994893918
1392.758277213461 5022.34941928304
1393.5667172627054 5018.49461451063
1394.3749599218918 4948.653256376512
1395.1830052451114 4890.551260934467
1395.9908532864265 4916.10899151155
1396.7985040998774 4989.751882187502
1397.6059577394808 4844.943931333306
1398.4132142592352 4870.492785763033
1399.2202737131156 4889.674101304409
1400.027136155073 5024.962553108469
1400.8338016390353 4876.295692960751
1401.6402702189134 4795.12100615109
1402.446541948586 4846.160596927968
1403.2526168819204 4862.51649293812
1404.058495072757 4710.936950314494
1404.8641765749107 4784.017424292708
1405.6696614421799 4897.7022137916965
1406.4749497283356 5019.791949041193
1407.280041487129 4719.265786308202
1408.084936772295 4621.67212139926
1408.8896356375335 4831.466262723004
1409.6941381365323 4803.606050540728
1410.498444322955 4568.730726370023
1411.3025542504402 4695.202689272286
1412.106467972606 4723.280566318439
1412.9101855430508 4734.5095315878425
1413.7137070153458 4632.6150964688595
1414.5170324430437 4628.463349929318
1415.320161879672 4682.616253224494
1416.1230953787435 4757.135221495386
1416.925832993742 4476.259239442037
1417.7283747781275 4510.586462922058
1418.5307207853439 4692.425989838718
1419.3328710688093 4561.398701147853
1420.134825681922 4489.466326450294
1420.9365846780584 4521.219138896172
1421.7381481105713 4688.626853666863
1422.539516032788 4647.312361043686
1423.3406884980232 4526.649624948022
1424.1416655595604 4478.779290477238
1424.942447270665 4542.281847037865
1425.7430336845828 4659.439585436006
1426.5434248545298 4436.171809734394
1427.3436208337116 4660.039283861088
1428.143621675301 4621.3157967951265
1428.9434274324558 4710.732231884503
1429.7430381583108 4481.848370694628
1430.5424539059713 4597.155767236906
1431.3416747285337 4784.689985091866
1432.1407006790632 4705.472453375369
1432.9395318106053 4705.4832371338125
1433.7381681761835 4591.575856039749
1434.5366098288014 4772.440290132004
1435.3348568214424 4778.971965204966
1436.1329092070573 4555.230145702792
1436.9307670385879 4673.939737160856
1437.7284303689503 4780.94582616871
1438.5258992510335 4741.338621522239
1439.3231737377118 4637.66353406449
1440.1202538818306 4668.618065768291
1440.9171397362225 4705.524126542899
1441.7138313536925 4693.691140007023
1442.5103287870243 4615.225304220919
1443.3066320889775 4481.793457108511
1444.1027413122956 4713.690064468535
1444.8986565096966 4574.129992713619
1445.694377733882 4637.358063767698
1446.4899050375207 4568.069468826274
1447.2852384732687 4612.574752164325
1448.0803780937622 4680.4666688117295
1448.8753239516063 4457.9998544338705
1449.6700760993954 4391.444335197304
1450.464634589689 4496.774931396447
1451.2589994750397 4602.7398411225495
1452.0531708079689 4364.005328793472
1452.8471486409799 4376.9962690433495
1453.6409330265524 4543.537092044093
1454.4345240171442 4315.633884839938
1455.2279216651987 4408.870665230689
1456.0211260231263 4417.785259353334
1456.8141371433194 4653.744088522571
1457.6069550781594 4482.166951016358
1458.3995798799897 4182.241608360066
1459.1920116011424 4279.422382739911
1459.98425029393 4160.701219197375
1460.7762960106338 4283.530459833427
1461.5681488035225 4332.021501031357
1462.3598087248392 4270.473315130483
1463.1512758268036 4359.608940768131
1463.942550161617 4233.15664131578
1464.7336317814625 4152.00048194505
1465.524520738496 4245.23485434714
1466.3152170848552 4188.51331086129
1467.1057208726506 4184.87639974078
1467.8960321539817 4254.260372051692
1468.6861509809169 4148.043277983683
1469.4760774055085 4165.03406680589
1470.265811479785 4167.7585530078795
1471.055353255755 4007.9599498821635
1471.844702785409 4093.5633783065277
1472.6338601207044 3997.995889329445
1473.4228253135934 4241.058354182749
1474.2115984159936 3985.5405769087083
1475.0001794798063 3840.456701767901
1475.7885685569145 3952.3505081962176
1476.576765699172 4029.8830083858484
1477.3647709584238 3998.692613408125
1478.1525843864802 4081.105512079231
1478.9402060351367 4005.4725530739393
1479.7276359561693 4030.3863692426457
1480.514874201328 3953.582246378692
1481.3019208223468 3888.89973904594
1482.0887758709323 3795.689487369795
1482.8754393987747 4050.517456019458
1483.6619114575406 3878.0428580971648
1484.4481920988783 3862.8797497550086
1485.2342813744108 3864.3951558982417
1486.0201793357446 4033.676330435125
1486.8058860344572 3837.554929618269
1487.591401522117 3925.9951942439534
1488.3767258502594 3934.506704476833
1489.1618590704056 3981.6776298632167
1489.9468012340494 3772.197297251582
1490.7315523926754 3923.3929101887165
1491.5161125977356 4003.3247892288337
1492.3004819006637 3993.955835904371
1493.084660352877 3883.194139466811
1493.8686480057622 3960.0371250337366
1494.6524449106964 4061.975897527798
1495.4360511190262 4108.49018024333
1496.219466682087 3943.0418166944683
1497.0026916511779 3936.348424192872
1497.7857260775945 4048.033667451942
1498.5685700125996 3936.6835684641906
1499.3512235074395 3887.475650181339
1500.133686613337 3905.3226636468476
1500.9159593814966 3937.0499884661085
1501.698041863101 4207.013590738656
1502.4799341093094 3831.808621942203
1503.2616361712662 3777.562231146675
1504.043148100087 3840.07766917669
1504.8244699468742 3993.1549813110696
1505.6056017626997 3766.8334914108864
1506.3865435986281 3818.132661667189
1507.1672955056893 3957.7844982771626
1507.9478575348967 3806.7206139743416
1508.7282297372512 3973.945839959323
1509.5084121637192 3851.5038373429256
1510.2884048652577 3783.721295302028
1511.0682078927948 3756.073509019141
1511.8478212972423 3849.3259843467954
1512.6272451294917 3820.2265454245744
1513.4064794404076 3960.776417409591
1514.1855242808433 3928.5334948449354
1514.9643797016215 3848.0200082098586
1515.743045753552 3922.487209605625
1516.5215224874191 3843.7604406472615
1517.2998099539836 3685.3998760187314
1518.077908203999 3795.1353980666463
1518.8558172881785 3812.0424084924502
1519.633537257234 3863.3914885736267
1520.4110681618404 3877.8062188734175
1521.1884100526604 3806.288511137568
1521.9655629803365 3863.7019759358855
1522.7425269954856 3897.9629304807277
1523.5193021487103 4083.4422123278323
1524.2958884905856 3824.9526591780677
1525.0722860716687 3942.447216928823
1525.848494942502 3847.142198311523
1526.624515153595 3957.9335678969423
1527.4003467554485 3821.2265043154002
1528.175989798534 3957.2991397023106
1528.9514443333064 3820.3418457147827
1529.726710410203 4074.729400401292
1530.5017880796331 3866.116608896284
1531.276677391992 3853.1995595617736
1532.0513783976457 4019.089177366932
1532.825891146953 3953.608128795702
1533.6002156902414 3976.9043476212164
1534.3743520778207 4004.5136330435876
1535.1483003599806 3923.966391548299
1535.9220605869923 3957.8842708387397
1536.6956328091019 3978.397526827649
1537.4690170765407 3886.4188408755276
1538.242213439511 3896.8383932031857
1539.015221948208 3969.5020009325845
1539.78804265279 3994.566181398249
1540.560675603405 3804.6112841540503
1541.3331208501804 4002.3695668246028
1542.1053784432224 4106.21406815791
1542.8774484326168 3913.4633761106356
1543.649330868422 3953.4319599075097
1544.4210258006842 3913.5602917206998
1545.1925332794308 3981.0928480445355
1545.9638533546604 3970.242758386777
1546.7349860763552 3880.2742809449287
1547.5059314944829 4132.695908816464
1548.27668965898 4027.587247635148
1549.0472606197673 3974.425429107977
1549.817644426752 3798.198102361618
1550.5878411298072 4032.9755565929563
1551.3578507787988 3929.25119894181
1552.1276734235635 3803.2674684271756
1552.8973091139233 4000.7698650946368
1553.6667578996767 4104.084472020282
1554.436019830604 3975.369503931071
1555.20509495646 3920.856706216324
1555.9739833269869 3799.700991704182
1556.7426849919011 3952.660344446294
1557.511200000903 4120.111875890342
1558.2795284036674 4004.3593803991944
1559.0476702498509 3881.3247159432503
1559.8156255890954 4086.0407383922675
1560.5833944710157 4188.971517898241
1561.3509769452048 4018.5800179005987
1562.1183730612447 4017.3605660582703
1562.8855828686865 3918.5209850312103
1563.6526064170703 4165.5993216909255
1564.4194437559127 4136.760333600707
1565.1860949347047 3947.172792767794
1565.9525600029283 4159.663858539769
1566.7188390100328 4179.367993002985
1567.4849320054564 3835.3037856936744
1568.250839038612 3986.2836568708835
1569.0165601588997 3992.9847158893317
1569.7820954156887 4099.5691701466185
1570.5474448583373 3884.9269869953955
1571.31260853618 3978.370443064194
1572.0775864985299 3860.9199570733995
1572.8423787946813 3972.5213689001894
1573.6069854739108 3907.965600697782
1574.371406585471 4032.5242831547416
1575.1356421785986 4103.489973802169
1575.899692302506 3964.428255801841
1576.6635570063845 4058.3456899760713
1577.4272363394157 4034.979339896187
1578.190730350747 3861.9880032500537
1578.9540390895163 3978.8627151288447
1579.7171626048384 3785.7507984924755
1580.480100945806 3901.0792478258095
1581.2428541614918 3918.4683809479225
1582.0054223009538 3889.04088583626
1582.767805413223 3941.3274883157733
1583.5300035473156 3880.86493375841
1584.292016752228 4042.302994584443
1585.0538450769309 3938.7537246032057
1585.8154885703807 3731.5711719744168
1586.5769472815136 3758.6460890353724
1587.3382212592405 3895.2770073953316
1588.099310552463 4146.931576598842
1588.8602152100484 3833.287131505587
1589.6209352808564 4004.5507490766076
1590.3814708137234 3828.460048310735
1591.14182185746 3953.942453108329
1591.9019884608679 3833.4790701997576
1592.6619706727215 3695.7061792803242
1593.4217685417734 3869.345365302078
1594.1813821167616 3975.2560898461043
1594.9408114464022 3667.6664671972394
1595.7000565793933 3905.5388731567646
1596.459117564409 3936.992829639124
1597.2179944501113 3868.736825833084
1597.9766872851324 3733.0650077895357
1598.735196118092 3964.6387984470784
1599.4935209975883 3940.475343573161
1600.2516619721973 4020.555014068733
1601.0096190904787 3787.184140630383
1601.7673924009723 3845.623664120627
1602.524981952196 3682.19671428976
1603.2823877926476 3842.261414477368
1604.0396099708087 3708.1879108425683
1604.7966485351371 3770.865958204954
1605.5535035340745 3776.1209686630855
1606.3101750160404 3973.3209171780354
1607.0666630294363 3726.848388812445
1607.822967622642 3592.16761557826
1608.5790888440224 3717.137849218677
1609.3350267419137 3875.5043893031298
1610.0907813646445 3749.5516641290787
1610.8463527605145 3730.314775168072
1611.601740977805 3862.1539495134516
1612.356946064785 3782.3817028997973
1613.1119680696902 3600.069879078702
1613.8668070407512 3714.475050236888
1614.6214630261748 3721.784537775514
1615.375936074137 3837.0554318167647
1616.1302262328118 3642.5063239799238
1616.8843335503425 3822.0745402420303
1617.638258074854 3564.754109754855
1618.391999854457 3693.166540488325
1619.1455589372363 3858.61002612991
1619.8989353712623 3724.1343705784993
1620.65212920458 3572.457573154231
1621.4051404852235 3622.1043267449363
1622.1579692611976 3691.8454729265713
1622.9106155804966 3514.44326584753
1623.663079491087 3597.2199460272814
1624.4153610409248 3784.2511651544055
1625.1674602779385 3672.095811881661
1625.9193772500403 3593.3364038213163
1626.6711120051277 3846.275526951444
1627.4226645910676 3775.518267252681
1628.174035055721 3516.5145350005305
1628.9252234469168 3597.161286641605
1629.676229812474 3575.961466727875
1630.4270542001905 3802.419077832494
1631.1776966578382 3656.4900634578457
1631.9281572331747 3585.3515626790677
1632.678435973945 3846.8171824005317
1633.4285329278573 3699.2486089649055
1634.1784481426203 3523.6430526679333
1634.9281816659113 3500.4013686087105
1635.677733545388 3733.4887176820293
1636.4271038286934 3701.464738223912
1637.176292563452 3685.859461237303
1637.9252997972635 3659.468753329752
1638.674125577716 3726.9770251916293
1639.4227699523672 3879.7766916265236
1640.171232968767 3588.2446121493085
1640.9195146744423 3691.3963062539806
1641.6676151168977 3794.700305459556
1642.4155343436178 3841.6265253932747
1643.1632724020765 3661.9278245065993
1643.9108293397167 3732.8657824263078
1644.658205203974 3647.7625341215908
1645.4054000422566 4187.443308463556
1646.1524139019566 3648.61919823082
1646.8992468304423 3698.3645762895017
1647.6458988750728 3699.080255935576
1648.3923700831765 3765.4724452149176
1649.1386605020743 3675.318274563834
1649.8847701790564 3793.417130860061
1650.6306991614038 3841.4609695658
1651.3764474963682 3836.627555344882
1652.1220152311944 3551.555364337816
1652.867402413096 3904.75635752947
1653.6126090892776 3802.8422999557324
1654.3576353069184 3897.4091849104093
1655.1024811131829 3818.44162591613
1655.8471465552066 3783.995912038813
1656.5916316801213 3926.624621223761
1657.3359365350298 3894.7463842010307
1658.0800611670165 3738.7831577974735
1658.824005623148 3823.2164072460314
1659.5677699504722 3656.7271885405885
1660.3113541960192 3788.553517681222
1661.054758406799 3711.5562134443435
1661.7979826297997 3652.5427116401106
1662.5410269119966 3703.7448246712347
1663.283891300338 3752.774021301115
1664.0265758417645 3615.453136082879
1664.7690805831826 3684.5629676972385
1665.5114055714948 3705.5173466349174
1666.2535508535748 3897.554375926694
1666.9955164762814 3483.183807810339
1667.7373024864555 3603.8816069365407
1668.478908930916 3644.289027122585
1669.220335856462 3656.796058516098
1669.9615833098778 3537.6695697551536
1670.7026513379296 3437.5056618360113
1671.44353998736 3545.7220016758774
1672.1842493048916 3571.6287716453276
1672.9247793372379 3441.052556305595
1673.6651301310812 3556.6207851693334
1674.4053017330934 3425.018310959833
1675.1452941899242 3564.922648380415
1675.885107548207 3182.3683876323084
1676.6247418545518 3276.5968726757255
1677.3641971555535 3377.3592916149964
1678.1034734977893 3513.96754600922
1678.8425709278108 3364.783825719175
1679.5814894921605 3519.788095436446
1680.320229237359 3356.2311723990724
1681.0587902098978 3474.3552405638584
1681.7971724562685 3327.5382955827786
1682.5353760229264 3175.415519872004
1683.2734009563173 3358.333338941235
1684.0112473028657 3131.7239859281535
1684.7489151089794 3296.142635031196
1685.4864044210462 3344.566682241839
1686.2237152854377 3104.7923814907476
1686.960847748498 3369.7691214101214
1687.6978018565642 3065.5552888678203
1688.434577655944 3109.5255340351905
1689.1711751929379 3048.5180549898023
1689.9075945138156 3136.99829842105
1690.6438356648396 3073.0350630022604
1691.3798986922448 2872.147190252988
1692.1157836422499 3141.73046376838
1692.851490561059 3053.862399210794
1693.587019494853 3038.519392292278
1694.3223704897991 2873.3933273942052
1695.0575435920364 2829.764471425357
1695.792538847696 3247.44887231839
1696.527356302886 2891.7686326163334
1697.2619960036936 2761.569957340422
1697.9964579961907 2803.8668542987975
1698.730742326432 2617.9906274091272
1699.4648490404488 2680.1413687092977
1700.1987781842563 2791.489642180529
1700.9325298038548 2925.01090956427
1701.6661039452174 2840.9528356343185
1702.3995006543082 2823.6575489275046
1703.1327199770658 2886.4877945142216
1703.865761959416 2678.409737223338
1704.598626647261 2859.89509708365
1705.3313140864866 2667.2228445945457
1706.0638243229587 2645.211733402175
1706.7961574025303 2822.264046487127
1707.528313371029 2646.890515592279
1708.260292274268 2651.3065756734118
1708.9920941580403 2617.868546811991
1709.7237190681226 2627.0853248393014
1710.4551670502697 2610.9716343748487
1711.18643815022 2494.7465129142433
1711.9175324136959 2826.5769371783845
1712.6484498863938 2719.9923180538503
1713.379190614005 2472.4844104518806
1714.109754642188 2757.796796145189
1714.8401420165883 2516.3001000505897
1715.570352782839 3085.024651221074
1716.3003869865497 2632.344827231346
1717.0302446733076 2572.1874211805048
1717.7599258886876 2598.3718053874763
1718.4894306782444 2851.3969422201544
1719.2187590875183 2420.6844857396727
1719.9479111620203 2787.522080641615
1720.6768869472544 2496.621491637954
1721.4056864887025 2775.8061807179674
1722.1343098318284 2748.2315080556778
1722.8627570220742 2562.3558827608986
1723.591028104871 2474.4748735894204
1724.3191231256242 2452.485451948637
1725.0470421297232 2574.6885476779803
1725.7747851625427 2641.205540729741
1726.5023522694337 2724.1594897287973
1727.2297434957363 2553.8974346137047
1727.9569588867635 2284.5969665760917
1728.6839984878152 2723.100889708167
1729.4108623441734 2333.7542864415327
1730.1375505011038 2520.9717167442186
1730.8640630038426 2478.3404254983784
1731.5903998976264 2472.2922740050203
1732.316561227657 2508.188446358464
1733.0425470391274 2323.097739007874
1733.7683573772065 2551.2488804798504
1734.4939922870508 2483.673775887951
1735.2194518137949 2529.1969853759406
1735.9447360025606 2505.391769079532
1736.669844898439 2540.806882218365
1737.3947785465189 2347.1888848879184
1738.1195369918605 2285.1230545235717
1738.8441202795093 2441.359771039306
1739.5685284544943 2459.967368570901
1740.292761561821 2526.6666791059115
1741.0168196464838 2442.455515719222
1741.7407027534518 2476.1044373516734
1742.464410927687 2404.757910314674
1743.187944214118 2390.9364899413304
1743.9113026576688 2417.1495240678746
1744.634486303241 2377.4771401069243
1745.3574951957125 2402.5054350207593
1746.0803293799509 2487.771214861688
1746.8029889008048 2433.880958162585
1747.5254738031017 2491.7996967403205
1748.2477841316504 2376.1860180741523
1748.969919931249 2458.9396332896317
1749.6918812466665 2339.9647020733228
1750.4136681226646 2511.8903505532267
1751.1352806039777 2394.320411226235
1751.856718735331 2202.8690057485637
1752.5779825614281 2247.9924824760014
1753.2990721269507 2423.155429506358
1754.0199874765676 2385.4337333377725
1754.7407286549314 2288.3529663491217
1755.4612957066693 2389.10736108618
1756.1816886763954 2326.6317454620694
1756.9019076087097 2389.62055945338
1757.6219525481865 2374.206290508986
1758.3418235393856 2463.3769412227957
1759.061520626854 2377.7853447953935
1759.7810438551096 2498.015096798087
1760.5003932686614 2299.2490894500584
1761.2195689119999 2500.2716327701123
1761.938570829594 2392.432668527762
1762.657399065898 2369.40893890928
1763.376053665348 2169.774859687278
1764.0945346723602 2245.9669305618077
1764.812842131334 2505.741371722964
1765.5309760866512 2207.083978890363
1766.2489365826787 2286.3074502837253
1766.9667236637597 2270.341426704509
1767.684337374223 2219.701576741301
1768.401777758383 2188.016910623343
1769.1190448605284 2232.311215028424
1769.836138724937 2225.282295529281
1770.5530593958665 2371.3466902053165
1771.2698069175603 2424.851732484355
1771.9863813342326 2457.767079241518
1772.702782690094 2166.789333418069
1773.4190110293293 2393.5800865081555
1774.1350663961111 2381.4334542633687
1774.8509488345844 2270.914065181816
1775.5666583888924 2365.2578964170293
1776.2821951031437 2441.2395522403167
1776.9975590214362 2303.7789612763636
1777.7127501878585 2481.419295554503
1778.4277686464684 2430.3896356328632
1779.1426144413108 2362.5961554798437
1779.8572876164162 2330.131152731172
1780.571788215797 2199.812246345206
1781.2861162834415 2278.282693849961
1782.0002718633277 2340.8793282673505
1782.7142549994132 2393.1225490738348
1783.4280657356376 2367.203874250548
1784.141704115922 2217.670478196618
1784.855170184177 2288.9330531638498
1785.5684639842839 2279.3622383536017
1786.2815855601148 2106.3589349524054
1786.9945349555237 2293.1470035981993
1787.707312214343 2311.8699763047143
1788.4199173803918 2487.991854768735
1789.132350497468 2081.443271562307
1789.8446116093583 2196.373453009134
1790.556700759822 2134.5118630256575
1791.2686179926077 2311.014057077299
1791.9803633514493 2153.961777717462
1792.6919368800554 2086.2381210570106
1793.4033386221236 2262.4310083302294
1794.1145686213295 2406.259538996391
1794.8256269213307 2287.7208300548014
1795.536513565774 2327.796418649453
1796.247228598284 2046.5542469117675
1796.9577720624693 2163.5827121243437
1797.6681440019165 2331.760263941942
1798.3783444602013 2229.639329272272
1799.0883734808776 2426.862943158963
1799.7982311074884 2349.951432380398
1800.5079173835475 2229.0582846735533
1801.2174323525633 2286.9099219843733
1801.9267760580187 2303.4253916517446
1802.635948543386 2176.8854359568295
1803.3449498521113 2108.817620911956
1804.0537800276325 2271.4775945909473
1804.7624391133668 2252.1795482614807
1805.47092715271 2062.2147633312325
1806.1792441890484 2140.6576431361254
1806.8873902657433 2244.149425967252
1807.5953654261448 2123.695666416598
1808.3031697135812 2076.208188564136
1809.0108031713662 2077.6963776483376
1809.71826584279 2069.9891285037074
1810.425557771141 2214.5392288203593
1811.1326789996747 2572.3976581352927
1811.839629571632 2177.9263964085303
1812.5464095302468 2069.7733459783476
1813.2530189187182 2154.1364150283725
1813.959457780249 2150.8799210137827
1814.6657261580076 2263.650616809174
1815.371824095153 2089.1888225434072
1816.0777516348262 2247.2133517178586
1816.78350882015 1902.9804325856471
1817.4890956942272 2026.0697797074376
1818.1945123001533 2087.42000869114
1818.8997586809928 2191.583829926458
1819.6048348798067 2113.217205625839
1820.3097409396287 2040.5926392067554
1821.0144769034796 2430.8035847396227
1821.7190428143622 2196.1162091726296
1822.423438715261 2228.048714268863
1823.1276646491478 2061.698217135022
1823.8317206589727 2289.0952842285083
1824.5356067876692 2219.098578384656
1825.2393230781581 2112.0362604642996
1825.942869573335 1883.854240738594
1826.646246316086 1998.6017964185135
1827.3494533492758 2231.987899271874
1828.052490715756 2208.1313323045424
1828.7553584583547 2201.9846811235775
1829.458056619891 2273.3265920096637
1830.1605852431585 2059.3963562862746
1830.8629443709433 2016.3718479943095
1831.5651340460063 2179.8394513499175
1832.2671543110919 2008.075444462665
1832.9690052089318 2155.9146905960347
1833.6706867822395 1934.4421026871282
1834.3721990737104 2228.8741806743074
1835.0735421260233 2147.9178455894244
1835.774715981841 1996.955469899302
1836.4757206838058 2246.8014056963434
1837.1765562745459 2162.8023154886837
1837.8772227966747 2010.3159655917104
1838.5777202927839 2023.9031912609032
1839.2780488054523 2114.0207850596266
1839.9782083772352 2049.113653948857
1840.6781990506806 2046.5734149856646
1841.378020868313 2009.3822056836639
1842.0776738726418 2207.710177753538
1842.777158106157 2045.9357352976754
1843.4764736113375 2021.9812181820441
1844.1756204306403 2210.822174192484
1844.8745986065078 2001.4237223168598
1845.5734081813607 2019.7029454084732
1846.2720491976124 1980.9866567485467
1846.970521697649 1984.1604938433964
1847.6688257238511 2162.481713558941
1848.3669613185684 1993.039707874071
1849.0649285241452 1860.1137877587403
1849.7627273829057 2136.2902363681646
1850.460357937156 2006.4007497552514
1851.1578202291857 1869.2471771184312
1851.8551143012664 2060.642799801354
1852.5522401956569 2082.7769299242523
1853.2491979545957 2213.837717568516
1853.9459876203055 1980.1929591348915
1854.6426092349902 2025.8853300864405
1855.3390628408451 1963.2657820727186
1856.0353484800362 2206.1677567006545
1856.7314661947203 2067.0800100401952
1857.4274160270397 1925.252949420164
1858.123198019115 1951.8558947551871
1858.8188122130487 1782.0485582814254
1859.5142586509319 2022.4949385900327
1860.209537374838 2001.5347211161952
1860.9046484268183 1992.663295760524
1861.599591848917 2136.539366501087
1862.294367683151 2062.5497971553923
1862.988975971528 1901.4753302294043
1863.6834167560355 2046.3870874643108
1864.3776900786452 2146.2163810257234
1865.0717959813119 1948.2220662973118
1865.7657345059724 1940.0359270079025
1866.4595056945564 2060.145213204654
1867.1531095889586 1950.8578536498346
1867.846546231076 1912.2515000942162
1868.5398156627743 2317.962190736478
1869.2329179259123 2003.0622926137682
1869.9258530623283 2121.316587869602
1870.618621113843 1831.0946657630568
1871.3112221222636 1863.2965089918303
1872.0036561293764 1868.264058820246
1872.695923176956 1939.117888590397
1873.3880233067594 2131.446152474929
1874.0799565605212 1917.3835074440583
1874.7717229799673 2016.6446483939158
1875.4633226068036 1990.0226624899562
1876.1547554827175 2066.6329797552617
1876.8460216493859 1952.6327021094653
1877.5371211484617 2007.2523546754292
1878.2280540215852 2120.322861920721
1878.9188203103804 1844.0459649645345
1879.6094200564548 1938.5108765422842
1880.299853301396 1836.271966002671
1880.9901200867826 2238.7068649531147
1881.6802204541673 2104.526374737717
1882.3701544450942 1982.553640823267
1883.059922101087 1832.8078740250337
1883.7495234636517 2107.2708263681807
1884.4389585742792 1931.5135735531208
1885.1282274744517 1905.187404399056
1885.8173302056166 2173.0546890636433
1886.506266809225 1979.1072224915624
1887.195037326701 1909.9186967519777
1887.8836417994517 1907.678038789442
1888.5720802688702 2170.1337815261295
1889.260352776333 2073.3274269445183
1889.9484593632042 2022.98749803268
1890.63640007082 1925.116086361079
1891.3241749405151 1760.75198273264
1892.0117840135954 2018.0345866974774
1892.6992273313572 1875.0773593541558
1893.3865049350788 1853.25211392444
1894.0736168660223 2218.2925379042267
1894.7605631654333 2046.1997711203724
1895.4473438745408 1771.0143019989198
1896.133959034556 2176.2211914725613
1896.820408686679 1990.7915563974268
1897.506692872088 2134.632573576522
1898.192811631945 1904.5794549419777
1898.8787650073991 1966.2600421735156
1899.5645530395832 2109.4862860790504
1900.2501757696118 2140.7747583176024
1900.9356332385796 1841.6398608837342
1901.620925487574 1917.9449322528956
1902.3060525576602 1994.5323048866362
1902.9910144898859 2056.4173226600897
1903.6758113252872 1853.0656303391606
1904.3604431048789 2070.7685794343342
1905.0449098696663 2060.293120592629
1905.7292116606295 1823.5880021239677
1906.4133485187394 1995.4582536383896
1907.0973204849488 1722.4634252333599
1907.7811276001976 1834.1247092141016
1908.4647699053967 1966.1125200713595
1909.1482474414588 1855.735959849336
1909.8315602492694 1745.0544202518845
1910.5147083696957 2020.3878553757415
1911.1976918436012 1792.2114204962568
1911.880510711815 1846.076583835546
1912.5631650151681 2002.1658867689644
1913.2456547944657 1743.728890653637
1913.927980090495 1901.736597517775
1914.6101409440362 1844.0203317776263
1915.2921373958416 1983.8735722724018
1915.9739694866603 1869.807150527487
1916.655637257214 1969.252472583358
1917.3371407482136 1879.1128636802143
1918.0184800003572 2113.02523475941
1918.6996550543154 2070.992799896735
1919.3806659507554 1974.0834719992213
1920.0615127303208 1938.2035580348868
1920.7421954336423 2100.0017473855437
1921.4227141013343 2250.75096550074
1922.103068773993 1934.9022649589701
1922.783259492202 2125.714480566884
1923.4632862965227 1810.4797192212777
1924.1431492275078 1802.2980726342034
1924.8228483256917 1883.6691994827731
1925.5023836315922 1845.8672761237253
1926.1817551857057 1975.1564750483801
1926.8609630285227 1714.7322123969564
1927.5400072005123 1896.164573734019
1928.218887742125 1847.349537285479
1928.8976046938005 1850.0760358189023
1929.5761580959588 1938.2584107999069
1930.2545479890086 1881.2642216942586
1930.9327744133352 1643.7993009113136
1931.6108374093164 2001.3961229418892
1932.2887370173066 2064.99733999838
1932.9664732776473 1602.455553786424
1933.6440462306673 1859.1834256327834
1934.3214559166754 1844.1957311773099
1934.9987023759659 2061.8774643258416
1935.675785648813 1901.111712710746
1936.3527057754836 1586.4069482048028
1937.029462796223 1680.618643542332
1937.70605675126 1775.0706919492436
1938.3824876808085 1651.4688427433455
1939.058755625072 1777.12791658389
1939.7348606242267 1803.9491177934901
1940.4108027184448 1809.846702928393
1941.0865819478713 1897.935377491581
1941.7621983526478 1873.3277371226898
1942.4376519728921 1751.909816246033
1943.1129428487038 1826.7500015538099
1943.7880710201734 1924.7529038018743
1944.4630365273733 1862.438130280137
1945.1378394103576 1620.047047349638
1945.8124797091714 1651.5320361711645
1946.4869574638324 1683.0217767455367
1947.161272714353 1834.151967447019
1947.8354255007234 1879.2978983858793
1948.5094158629272 1737.9544166877417
1949.1832438409183 1977.492725019237
1949.8569094746435 1902.772523222969
1950.530412804037 1953.898843136755
1951.2037538690092 1952.7313864552332
1951.8769327094578 1857.3641924232584
1952.5499493652678 1717.0866052174788
1953.222803876306 1958.678791386422
1953.895496282421 1878.4326706859981
1954.5680266234522 1814.5247309852425
1955.2403949392155 1806.9736488067222
1955.9126012695142 1688.1869757144239
1956.5846456541403 1846.3610974947273
1957.2565281328643 1740.1491019421678
1957.9282487454457 1922.0929614321608
1958.5998075316202 1883.38969844121
1959.27120453112 1857.4281479087967
1959.9424397836501 1847.1538082703378
1960.613513328908 1899.614843894679
1961.2844252065697 2010.999500113717
1961.9551754563017 1675.8468749597735
1962.6257641177453 1756.646514344896
1963.29619123054 1517.9836294046218
1963.966456834296 1757.9771339895512
1964.6365609686181 1663.550127580999
1965.306503673086 1868.337786300906
1965.976284987275 1706.7556289492193
1966.645904950734 1889.9994468889558
1967.315363603002 1526.9467575108924
1967.9846609836077 1833.4796441955343
1968.6537971320486 1759.151475279048
1969.3227720878222 1970.0584662674494
1969.9915858904042 1747.451755840241
1970.660238579252 2022.7178719802378
1971.3287301938108 1700.2952942475233
1971.997060773514 1705.0884347157248
1972.665230357772 1599.2646457431636
1973.3332389859843 1679.6528743257902
1974.0010866975335 1690.9401515076556
1974.6687735317864 1834.258056031774
1975.3362995280932 1871.5941164718092
1976.003664725793 1726.084124126768
1976.6708691642052 1596.1336728197657
1977.3379128826364 1778.315242287875
1978.004795920373 1871.0053203191278
1978.6715183166925 2031.4732099544156
1979.3380801108524 1552.1728143282535
1980.0044813420973 1724.6533149594973
1980.6707220496555 1539.1489758363273
1981.3368022727373 1868.8757151783752
1982.0027220505417 1828.4182768844414
1982.66848142225 1383.8352707569413
1983.3340804270283 1596.4691354516917
1983.999519104027 1776.5010611812863
1984.6647974923835 1800.3773013955847
1985.329915631215 1798.1659811523539
1985.99487355963 1675.2405209352528
1986.6596713167146 1922.358289933273
1987.3243089415428 1733.6901038586948
1987.9887864731754 1857.1710304184678
1988.6531039506553 1627.6847281290325
1989.3172614130071 1683.6087552620786
1989.9812588992481 1739.6558367563332
1990.645096448372 1555.0596435372279
1991.3087740993633 1691.1408636652645
1991.9722918911848 1656.2125322518689
1992.635649862792 1756.159613020646
1993.2988480531185 1831.9609524633074
1993.9618865010852 2118.3692019759483
1994.6247652455968 1705.4339720166772
1995.287484325545 1590.1521740974881
1995.9500437798033 1574.6253079361964
1996.6124436472292 1661.2187165530527
1997.2746839666706 1774.6318236003856
1997.936764776954 1556.7532651338922
1998.598686116895 1539.1574085424854
1999.2604480252903 1849.7518213077121
1999.9220505409212 1849.810989118619
2000.5834937025593 1628.7189838634745
2001.2447775489582 1612.885834357649
2001.9059021188514 1759.6567501932045
2002.5668674509616 1469.3803777838002
2003.2276735839987 1691.3252033667857
2003.8883205566508 1804.0424537846495
2004.5488084075987 1599.6466017154303
2005.2091371755014 1718.6161933267654
2005.8693068990033 1580.1827205995726
2006.5293176167397 1563.3341709996253
2007.1891693673224 1546.5980449773667
2007.848862189354 1434.000242847193
2008.5083961214223 1445.9295142898598
2009.1677712020955 1596.2855299009357
2009.8269874699254 1606.5570534635206
2010.4860449634598 1560.6614073957576
2011.1449437212177 1514.737454734818
2011.8036837817108 1874.3343435299219
2012.4622651834325 1715.8458076688862
2013.1206879648653 1783.4041435841166
2013.7789521644736 1890.05875000088
2014.4370578207036 1496.5149087868683
2015.0950049719922 1768.3911300376258
2015.7527936567585 1878.6156420420962
2016.4104239134067 1587.7245119060717
2017.067895780323 1486.8626586269863
2017.725209295886 1892.5243183446996
2018.3823644984514 1788.5344292943005
2019.0393614263648 1750.6099883122147
2019.6962001179545 1643.4257362049023
2020.3528806115355 1867.1729758673653
2021.0094029454067 1724.6671813177127
2021.6657671578487 1543.3549089660878
2022.321973287133 1661.0376315064168
2022.9780213715148 1691.3096445397828
2023.6339114492293 1408.5540619288327
2024.2896435585026 1636.392819179315
2024.9452177375442 1809.0917153433231
2025.600634024544 1788.419200658674
2026.2558924576842 1731.0048729786256
2026.9109930751292 1816.188635478838
2027.565935915025 1729.3904798807594
2028.2207210155066 1853.9113130429516
2028.8753484146964 1786.3813970034994
2029.529818150695 1458.291489621331
2030.1841302615903 1788.9135251644686
2030.8382847854573 1611.377431109856
2031.4922817603601 1694.58865897293
2032.1461212243357 1633.244848466747
2032.7998032154192 1458.5971036809917
2033.4533277716218 1566.5898708565037
2034.1066949309443 1551.5633517613287
2034.7599047313688 1562.7636131015486
2035.4129572108704 1841.3087504118132
2036.0658524074006 1676.3965621703676
2036.7185903589016 1740.5031570125273
2037.3711711032956 1909.5819457477603
2038.023594678496 1609.8744039401574
2038.675861122394 1529.6873208613854
2039.3279704728757 1544.0820441364808
2039.9799227678031 1558.6516748060446
2040.6317180450278 1675.946289853559
2041.2833563423865 1602.5884129582719
2041.9348376977014 1769.1966814272741
2042.5861621487784 1798.1050552538659
2043.2373297334088 1670.9164459506424
2043.8883404893695 1708.4306025985384
2044.5391944544208 1623.0002349464007
2045.1898916663158 1727.2831867635073
2045.8404321627804 1885.2759957682993
2046.4908159815368 1535.0639638885173
2047.1410431602853 1415.0322904334855
2047.7911137367173 1542.4733399467923
2048.441027748504 1503.4380159947436
2049.090785233302 1464.3088492349193
2049.7403862287592 1512.105989574535
2050.389830772503 1547.6072106934685
2051.0391189021466 1583.1854877848189
2051.688250655294 1670.586942842503
2052.337226069527 1507.3722604969955
2052.986045182417 1756.0166215616057
2053.634708031521 1501.6640952104965
2054.283214654375 1602.1172511340721
2054.931565088511 1420.7266631347686
2055.579759371436 1635.4045672095767
2056.2277975406523 1721.5206512512766
2056.8756796336384 1814.4027166210508
2057.5234056878617 1466.9255605325202
2058.1709757407752 1620.4676476652326
2058.8183898298194 1886.0377129080048
2059.465647992416 1657.5991583600244
2060.1127502659747 1786.9966071750569
2060.759696687888 1466.4955338843188
2061.4064872955405 1794.1840141482808
2062.053122126292 1880.6017355826534
2062.699601217497 1712.6458142069707
2063.345924606485 1544.7180092276415
2063.992092330587 1643.9306416429495
2064.638104427102 1514.0488514767453
2065.283960933324 1788.2689410193393
2065.92966188653 1553.914037654427
2066.5752073239855 1647.7524956291145
2067.2205972829397 1531.383710772385
2067.86583180062 1675.3546874994704
2068.5109109142522 1499.760752166058
2069.15583466104 1461.1861676289489
2069.8006030781708 1422.577172231548
2070.445216202821 1497.2917648856464
2071.089674072153 1764.7002601232039
2071.7339767233116 1869.2768430026795
2072.3781241934303 1695.5805120101327
2073.0221165196253 1641.6095431141566
2073.6659537390024 1586.4995699717076
2074.3096358886505 1622.8067757175643
2074.953163005637 1607.7681601056197
2075.596535127028 1365.0789435419797
2076.2397522898664 1467.842547143096
2076.882814531182 1573.0344917222371
2077.5257218879924 1725.3564104353245
2078.1684743973 1581.9272030105183
2078.8110720960885 1742.4439173191313
2079.453515021336 1532.7509050214742
2080.095803209997 1701.9660246884155
2080.7379366990135 1627.0014074651417
2081.37991552532 1757.8168834209616
2082.0217397258275 1716.113310073924
2082.6634093374414 1419.9189298925912
2083.3049243970418 1653.4275025824154
2083.9462849415067 1733.999396463279
2084.587491007689 1664.8456782609646
2085.2285426324324 1594.5634407181467
2085.869439852564 1645.5842314842412
2086.510182704902 1384.49216577759
2087.1507712262483 1338.822804175708
2087.791205453381 1293.0487128763464
2088.4314854230743 1590.9445582613748
2089.0716111720867 1674.6362456264937
2089.7115827371617 1398.4596614778068
2090.351400155023 1481.0319292510687
2090.991063462385 1563.8262708489688
2091.6305726959527 1359.2207560972204
2092.2699278924047 1608.9157435492957
2092.9091290884153 1504.4297331498165
2093.548176320641 1410.2678706414977
2094.187069625721 1763.8450121944322
2094.8258090402887 1408.680308654581
2095.464394600951 1717.3218664696062
2096.102826344313 1557.286777803335
2096.741104306955 1701.1557816976492
2097.379228525453 1505.4807805488908
2098.017199036358 1338.7986612235159
2098.6550158762147 1769.293020083072
2099.2926790815527 1688.6342842976778
2099.9301886888825 1546.3507726870585
2100.5675447347076 1574.0120288804912
2101.2047472555114 1714.1726919951193
2101.841796287761 1451.750881908682
2102.47869186792 1641.910868933876
2103.1154340324265 1423.9979858697322
2103.752022817709 1507.5762361578513
2104.388458260184 1428.3044274780732
2105.024740396251 1585.9656128937536
2105.660869262292 1485.1715087298971
2106.296844894685 1723.3049776309592
2106.93266732978 1596.202554827097
2107.5683366039284 1407.7952223915938
2108.2038527534532 1636.0116724701033
2108.8392158146726 1694.437772894006
2109.4744258238843 1674.951152027203
2110.1094828173755 1435.299605626451
2110.744386831422 1768.3982222739137
2111.3791379022787 1576.5423255057453
2112.01373606619 1709.062065787069
2112.648181359389 1736.7176221343943
2113.28247381809 1563.4084664689071
2113.916613478492 1619.9495985487142
2114.550600376786 1629.2080782658768
2115.1844345491445 1402.630681355266
2115.818116031729 1446.7638964419707
2116.451644860679 1589.5560992956775
2117.085021072133 1219.3067570812943
2117.718244702204 1404.7191263016934
2118.3513157869984 1360.7861073066185
2118.984234362604 1448.7317545786939
2119.617000465092 1484.1605476553252
2120.249614130529 1670.2065314803738
2120.8820753949585 1522.0370694434694
2121.5143842944162 1430.0901000705
2122.14654086492 1506.237656772751
2122.7785451424734 1710.4536995833623
2123.4103971630702 1659.4560141993472
2124.042096962681 1608.522313532128
2124.6736445772767 1590.8992329110151
2125.305040042802 1318.9427723911056
2125.936283395191 1513.6260369869694
2126.567374670365 1643.1327445732763
2127.198313904233 1505.0646215091754
2127.8291011326855 1417.9977700693528
2128.4597363916037 1330.5802504451212
2129.0902197168507 1326.7711471043708
2129.720551144279 1251.909869687131
2130.3507307097225 1430.849431309373
2130.980758449008 1609.9358597673186
2131.6106343979427 1506.16377618053
2132.2403585923203 1595.5334438684736
2132.8699310679276 1859.651996329146
2133.499351860526 1673.2673572227923
2134.1286210058715 1464.220054743931
2134.7577385397053 1541.8355697471648
2135.3867044977487 1619.6058663347817
2136.0155189157176 1867.1164773916994
2136.644181829308 1554.1112744576244
2137.2726932742025 1562.7938885868102
2137.901053286074 1417.947477135691
2138.5292619005777 1272.9225728386632
2139.1573191533535 1470.015840400556
2139.7852250800315 1558.1004452271322
2140.4129797162295 1520.5212334755497
2141.0405830975433 1691.3817763386364
2141.6680352595613 1323.5394612345885
2142.2953362378576 1451.6601856758314
2142.9224860679915 1507.398978254252
2143.549484785508 1467.141764453482
2144.1763324259373 1444.518272599711
2144.803029024799 1462.3549936533955
2145.429574617594 1330.5077760731458
2146.0559692398165 1365.2446593785348
2146.682212926942 1399.9241574486728
2147.308305714432 1615.6617893126474
2147.9342476377333 1710.7592646638554
2148.5600387322847 1634.1340865645802
2149.185679033506 1637.669310636205
2149.8111685768017 1404.3168159090628
2150.4365073975678 1438.5332247503777
2151.061695531187 1521.4573350504602
2151.686733013021 1551.0260124300005
2152.311619878423 1614.0036806473706
2152.9363561627342 1296.9431542387615
2153.560941901278 1298.2485935830302
2154.1853771293663 1514.914087252272
2154.809661882293 1530.2453981128297
2155.433796195348 1468.9698181374138
2156.0577801037944 1407.4352387488968
2156.681613642895 1562.3404009070061
2157.3052968478896 1404.731292033753
2157.928829754006 1594.3877113932895
2158.552212396462 1534.5277075038734
2159.1754448104566 1450.2567019071219
2159.7985270311783 1377.63683802262
2160.4214590938027 1361.1569681298492
2161.0442410334927 1344.7875445207317
2161.6668728853874 1593.902193243948
2162.289354684628 1320.001099939344
2162.911686466332 1460.9415369227268
2163.533868265602 1537.3614579911143
2164.1559001175337 1764.2075866084183
2164.7777820572046 1773.4347862720272
2165.399514119681 1445.0872576747709
2166.021096340013 1305.8936946076021
2166.6425287532384 1716.5046502213052
2167.263811394385 1198.736249110417
2167.8849442984574 1617.9804333121187
2168.505927500455 1392.7836740467312
2169.126761035366 1483.1558063031173
2169.7474449381552 1445.8003130854834
2170.367979243778 1264.4875447944967
2170.9883639871823 1546.683267954825
2171.608599203293 1680.7141660982372
2172.2286849270276 1815.0838185175203
2172.8486211932886 1947.7768628514089
2173.4684080369625 1568.1852307329225
2174.0880454929265 1414.486103134485
2174.7075335960417 1058.2740244812799
2175.3268723811543 1140.2714702665023
2175.9460618831 1222.4915764125224
2176.565102136701 1538.3175825084488
2177.1839931767627 1710.281888591213
2177.802735038078 1319.0335486802926
2178.421327755432 1314.1293198396588
2179.0397713635866 1342.5111228478374
2179.658065897298 1280.8267266759015
2180.276211391305 1218.9245595285815
2180.8942078803357 1390.271501063139
2181.5120553991 1452.124569710527
2182.129753982299 1274.0615298451507
2182.7473036646206 1440.6029158196523
2183.3647044807367 1458.381230869331
2183.9819564653044 1306.7198078251581
2184.599059652968 1514.4338616695463
2185.216014078367 1473.1418266140026
2185.832819776113 1599.8492973373488
2186.4494767808137 1244.0878113398182
2187.065985127063 1380.7718604729494
2187.682344849436 1373.9927070991134
2188.298555982501 1646.420083255901
2188.9146185608097 1474.0684998137463
2189.530532618901 1416.8499094444983
2190.1462981912937 1676.2679650246282
2190.761915312507 1602.8512981488034
2191.377384017036 1455.8455176712596
2191.9927043393654 1413.5870878105127
2192.6078763139667 1524.103526702478
2193.2228999753006 1634.8793870061759
2193.837775357808 1461.5660129736386
2194.452502495922 1454.1637913007696
2195.0670814240602 1446.7402346159156
2195.6815121766285 1352.21741179634
2196.2957947880186 1327.4995249372655
2196.9099292926057 1302.736360270298
2197.523915724758 1386.599277210636
2198.137754118825 1378.4335812244126
2198.7514445091456 1750.7317441573036
2199.3649869300443 1402.2328107602043
2199.9783814158327 1778.3076070358152
2200.5916280008096 1837.1955891751236
2201.2047267192593 1584.647197737829
2201.8176776054515 1264.9222806336538
2202.430480693649 1329.0172280907532
2203.0431360180955 1475.3229495482906
2203.6556436130195 1317.8660725495051
2204.268003512645 1160.0327373782832
2204.8802157511727 1241.2244833194693
2205.492280362796 1391.9013196712467
2206.1041973816937 1543.05167635084
2206.715966842032 1363.046842045664
2207.3275887779655 1445.014919562333
2207.93906322363 1259.937330067498
2208.550390213153 1431.7452274530153
2209.1615697806465 1498.0091171541458
2209.7726019602105 1297.633763428794
2210.3834867859277 1315.4680872231195
2210.9942242918787 1330.3209604597575
2211.6048145121167 1484.9118233495142
2212.2152574806914 1464.3302936830612
2212.825553231638 1443.7494475805074
2213.435701798975 1785.3643644301308
2214.045703216707 1550.0702926448807
2214.655557518832 1174.4449572012768
2215.2652647393297 1400.9079339346667
2215.874824912169 1413.7166558075255
2216.4842380713 1426.720096136868
2217.09350425067 1301.8747755930924
2217.7026234842033 1643.9547611929702
2218.311595805819 1660.2843580156673
2218.9204212494133 1608.7430118831276
2219.52909984888 1556.969756903069
2220.137631638092 1364.007336206698
2220.7460166509154 1293.0358821612076
2221.354254921198 1560.2527300336067
2221.9623464827764 1482.772592272912
2222.5702913694713 1544.48066073641
2223.178089615096 1577.5504490557537
2223.7857412534486 1413.512846493405
2224.39324631831 1292.376788100982
2225.000604843457 1264.7059250648601
2225.607816862641 1443.289686442708
2226.214882409611 1656.7475345598912
2226.8218015180973 1490.3121687488047
2227.4285742218217 1391.5019919819028
2228.0352005544864 1337.341596051053
2228.6416805497847 1123.7887896991172
2229.248014241399 1351.8173981116279
2229.8542016629945 1293.1047933020377
2230.460242848223 1537.4458143234929
2231.0661378307304 1362.7570747918724
2231.671886644139 1187.9000566629607
2232.277489322065 1214.7948960144286
2232.8829458981127 1093.4562482013155
2233.48825640587 1278.909218636265
2234.0934208789095 1741.1856021546857
2234.6984393507955 1593.7765994724714
2235.3033118550793 1291.697222334445
2235.9080384252975 1381.622513881417
2236.5126190949723 1290.715377183347
2237.1170538976166 1332.6544506143255
2237.721342866729 1259.1713450974078
2238.32548603579 1308.4941982296698
2238.9294834382763 1417.9292762777773
2239.533335107646 1323.7833197044988
2240.1370410773434 1374.695735352974
2240.740601380803 1201.0750509147595
2241.3440160514474 1431.220077204355
2241.9472851226783 1635.2930311190923
2242.550408627896 1412.9652525866081
2243.1533866004793 1395.0138830290148
2243.756219073799 1377.0553988436411
2244.3589060812064 1236.624021930797
2244.961447656049 1125.4989797495766
2245.5638438316564 1382.2414693098667
2246.166094641343 1515.2231730285278
2246.7682001184166 1198.2979963840244
2247.3701602961664 1479.6537688133071
2247.971975207871 1463.3125734767596
2248.5736448867974 1629.6015444150462
2249.175169366197 1525.5638322867778
2249.7765486793123 1421.250850706851
2250.3777828593684 1441.7565738616618
2250.9788719395783 1372.7807006033283
2251.579815953146 1481.09355629207
2252.1806149332606 1235.818799728717
2252.781268913097 1326.1664137664802
2253.381777925817 1394.1996349254234
2253.9821420045737 1438.3996328772666
2254.5823611825035 1439.2983603122404
2255.1824354927303 1338.4404056553892
2255.782364968365 1221.7610092327745
2256.38214964251 1104.9581908870248
2256.9817895482483 1195.7820217777228
2257.5812847186553 1354.3396809993483
2258.180635186791 1241.253253676275
2258.779840985704 1308.4666308526625
2259.37890214843 1151.5806181299474
2259.97781870799 1384.5848453205597
2260.5765906973957 1363.2127366703648
2261.175218149645 1562.120091696877
2261.773701097718 1457.7651572722395
2262.3720395745895 1059.9248296682906
2262.970233613216 1115.257666746849
2263.568283246548 1332.6444317421253
2264.1661885075137 1248.7785501998992
2264.763949429038 1298.1858338190223
2265.3615660440246 1441.716354937593
2265.959038385374 1172.4467367914706
2266.5563664859637 1386.0266443986213
2267.153550378669 1174.2023183563147
2267.7505900963424 1447.617522629011
2268.3474856718312 1380.3853486623434
2268.9442371379664 1378.6859396271473
2269.5408445275643 1283.943549740068
2270.1373078734377 1328.0920267466872
2270.7336272083758 1254.554687283639
2271.32980256516 1277.3204660157755
2271.925833976562 1507.0367648817269
2272.5217214753357 1577.6096315990198
2273.117465094223 1169.0825282458738
2273.7130648659586 1164.0804390121698
2274.308520823257 1372.9746169956757
2274.903832998827 1445.1734916326245
2275.4990014253563 1266.16588737467
2276.094026135528 1409.3607208427156
2276.6889071620117 1197.4683064799974
2277.2836445374614 1241.804351979209
2277.878238294519 1315.548129334248
2278.472688465812 1233.7127651679482
2279.066995083962 1151.7122669536072
2279.6611581815705 1385.1874246568473
2280.255177791232 1266.718073876309
2280.8490539455233 1697.9820533067098
2281.442786677013 1637.248085011848
2282.0363760182554 1567.1814537323535
2282.6298220017943 1317.9655370786559
2283.223124660155 1537.6510741280813
2283.816284025859 1536.2383994890183
2284.4093001314086 1534.8858432763475
2285.002173009292 1258.1912605084335
2285.5949026919952 1422.582851300701
2286.1874892119777 1355.223099709571
2286.7799326016993 1304.922161950343
2287.3722328936 1215.1381052298775
2287.964390120109 1298.1388261442225
2288.556404313642 1381.202527814714
2289.1482755066027 1617.1942027365462
2289.7400037313873 1484.431531139078
2290.3315890203703 1226.7266054691975
2290.9230314059205 1391.9936815165715
2291.5143309203904 1015.2750858796857
2292.1054875961236 1164.9109547839175
2292.6965014654506 1642.754572307172
2293.287372560684 1221.068311159806
2293.878100914131 1796.8982781021223
2294.468686558086 1465.183802277273
2295.059129524827 1272.7442661705663
2295.649429846617 1213.6285353416115
2296.239587555716 1154.3502606102197
2296.8296026843636 1273.6038667954774
2297.419475264791 1222.9187942203632
2298.0092053292137 1172.063431085718
2298.598792909839 1621.0424635105041
2299.1882380388597 1369.2999163940246
2299.777540748455 1629.8473806894215
2300.3667010707904 1468.9512447529526
2300.9557190380256 1582.1142130015921
2301.544594682302 1538.0313716813575
2302.1333280357503 1167.849094535551
2302.721919130485 1374.1764024256174
2303.3103679986198 1691.7706981976316
2303.898674672242 1454.8237723113202
2304.486839183437 1217.6877524022107
2305.0748615642697 1188.210576467352
2305.6627418468015 1201.5501389621227
2306.2504800630704 1215.0007227345702
2306.8380762451143 1305.3352205756191
2307.425530424949 1363.5038174556062
2308.012842634582 1421.7953046424675
2308.6000129060103 1590.555026247825
2309.187041271214 1434.782176053315
2309.773927762164 1714.575649556149
2310.3606724108213 1532.5988356384726
2310.9472752491274 1180.6615921558418
2311.5337363090184 1288.2268516227932
2312.120055622414 1253.8723839413296
2312.706233221221 1430.5413589715859
2313.2922691373424 1101.3342715795188
2313.8781634026564 1186.3531900103985
2314.463916049037 1271.5616263233362
2315.049527108342 1241.84214894604
2315.6349966124235 1575.8870570340155
2316.2203245931123 1622.224453079963
2316.8055110822315 1459.8746214316163
2317.3905561115935 1297.129662760946
2317.9754597129977 1133.1838056703111
2318.560221918229 1020.2086425820765
2319.1448427590603 906.9992410103872
2319.729322267256 1145.4014496441673
2320.313660474563 1078.691126627447
2320.8978574127195 1285.5732481095736
2321.481913113452 1493.0669590567418
2322.0658276084705 1251.5568284398144
2322.6496009294806 1420.4049012702803
2323.233233108165 1352.1550243878419
2323.8167241762058 1307.1435500055052
2324.4000741652617 1255.2415988981616
2324.983283106987 1151.0344740401122
2325.5663510330232 1189.4260642380693
2326.1492779749933 1227.7665493983245
2326.7320639645204 1480.0811279012812
2327.3147090332004 1630.603674533821
2327.897213212629 1137.1824792626526
2328.4795765343843 1272.2120268286467
2329.0617990300307 1043.1263133682887
2329.643880731124 1561.3124167460371
2330.22582166921 1058.0302446385292
2330.807621875816 980.0682155172859
2331.3892813824623 902.0651674388497
2331.9708002206517 1157.3884922865175
2332.5521784218818 1228.1568555261333
2333.133416017634 1363.7264206725217
2333.7145130393765 1324.3220091909216
2334.295469518571 1433.0837613998103
2334.876285486658 1542.098872981475
2335.456960975076 1524.1713540450169
2336.037496015242 1506.2301620620033
2336.6178906385667 1376.1845089515023
2337.198144876451 1218.45152419133
2337.778258760278 1305.6511672887939
2338.3582323214214 1345.8238470574943
2338.938065591243 1386.0561079786917
2339.517758601087 1261.9555292056536
2340.0973113822965 1476.9866771563939
2340.676723966193 1257.7413256048303
2341.255996384094 1240.035360677433
2341.835128667295 1562.7887576482176
2342.4141208470883 1650.887181238378
2342.992972954751 1214.383499448055
2343.5716850215467 1473.9373657573776
2344.1502570787306 926.990460433169
2344.7286891575386 1169.3063666720354
2345.3069812892045 1571.9299993225434
2345.885133504944 1505.323190619753
2346.4631458359618 1250.4555974315851
2347.04101831345 1073.5638422843406
2347.6187509685915 1241.6037277211067
2348.196343832553 1263.28858494339
2348.7737969364935 1161.0681481046042
2349.351110311558 1060.4917953054141
2349.9282839888765 1019.242797466045
2350.5053179995757 1193.1157037782718
2351.0822123747585 1074.9929970430428
2351.658967145526 1477.0214258100505
2352.2355823429643 978.6156769697352
2352.812057998144 1395.4380547560436
2353.3883941421263 1304.5802488695083
2353.9645908059647 1213.5983856455828
2354.540648020693 1294.1049847258603
2355.116565817336 1512.2708729881756
2355.6923442269126 1730.9337120074208
2356.2679832804224 1535.029985476214
2356.8434830088518 1161.858670715252
2357.41884344318 1302.8759444511
2357.994064614377 1511.4402523398817
