#exp_cfg={"servo_angle": 0.0, "laser_lim": 100.0, "servo_angle_to": 18.0, "laser_wup": 0.0, "bt_dev": "EnSpectr-25AE3", "laser_wdn_max": 0.0, "frames": 10.0, "servo_used": 0, "servo_calib_use": 0, "laser_wdn_min": 0.0, "servo_pix_from": 90.0, "cooler_tout": 300.0, "servo_angle_from": 0.0, "servo_calib": "[-1.9174921013161362e-09, 3.9322238269163779e-05, -0.27385609119055809, 653.59552119713567]", "laser_autoctl": 0, "servo_pix_to": 3682.0, "laser_pw": 100.0, "cooler_on": 0, "laser_volt": 4.0, "cooler_autoctl": 0, "cooler_curr": 70.0, "cooler_startup": 10.0, "laser_fixed_pw": 0, "gain": 1.3, "offset": 2.53059635486, "servo_calib_degree": 3.0, "laser_curr": 55.0, "shutter": 8200.0, "servo_calib_step": 1.0, "laser_fixed_curr": 0, "exp": 2000.0, "ccd_volt": 4.7, "bt_addr": "00:06:66:62:5A:E3", "servo_delay": 500.0, "laser_autooff": 1}
#proc_cfg={"flat_auto_wnd": 200.0, "flat_auto_fr": 200.0, "flat_auto_shift": 5.0, "yconv": 1, "flatten": 1, "flatten_strength": 100.0, "xfrom": 300.0, "auto_max_frame": 2000.0, "auto_signal": 48000.0, "flat_auto_tol": 0.1, "autoclip": 1, "xrel_range": 0.0, "flat_auto_to": 4000.0, "intensity_adj": 1.0, "xrel": 7852.0, "rmhot": 1, "flat_auto_slit": 4.999999999999997, "auto_ini_exp": 300.0, "auto_off": 0, "xto": 2860.0, "flat_auto_ref": "", "flat_auto_rank": 1, "autobackg": 0, "xrel_adj": 0.0, "auto_black_lvl": 1, "base_wnd": 100.0, "sub_baseline": 0, "xconv": 2, "auto_max_exp": 1000.0, "auto_total_exp": 10000.0, "auto_exp": 0, "rmripple": 0, "black_lvl": 8249.35, "shutter_clip_adj": 0.0, "auto_bckg": 0, "flat_auto_thr": 0.9, "subbackg": 1}
316.8218498245369 18475.958646926374
317.89969571804795 18287.46045029865
318.977263876126 18256.193502795526
320.05455438786703 18045.758030807054
321.1315673423287 18117.241039248813
322.2083028285215 18014.199344749395
323.2847609354267 17932.85384581642
324.3609417519747 17854.419964099885
325.43684536705587 17809.03707438619
326.5124718695279 17772.12879855316
327.58782134820103 17665.898730442153
328.66289389184385 17711.43554822391
329.7376895891921 17505.748147657887
330.8122085289342 17525.921837872284
331.88645079971866 17534.599345898245
332.9604164901575 17382.89251256852
334.03410568881554 17226.20401156621
335.1075184842266 17397.009728105095
336.18065496487543 17199.877384369527
337.2535152192122 17091.934213858065
338.32609933564163 17040.66402140235
339.39840740253203 16991.60450885907
340.4704395082099 16903.912106575295
341.5421957409617 16850.936796355752
342.6136761890357 16846.272561270078
343.6848809406365 16662.07524753845
344.75581008392874 16626.753007049276
345.82646370703696 16596.73874146701
346.8968418980512 16515.88865495776
347.96694474501055 16533.57454565061
349.0367723359268 16503.736333514782
350.106324758759 16405.163288885764
351.1756021014353 16397.110562811384
352.2446044518383 16329.781004528137
353.31333189781435 16317.070204253527
354.38178452716966 16243.385171615537
355.449962427665 16318.666347783132
356.51786568702846 16185.072007582135
357.58549439294256 16268.308655006058
358.6528486330535 16292.741062123308
359.71992849496564 16146.696405581242
360.7867340662433 16158.10037132896
361.8532654344144 16137.334325561393
362.9195226869597 16199.82441630602
363.9855059113288 16033.149595838582
365.05121519492604 16037.04126228065
366.11665062511565 16086.711418425639
367.1818122892273 16028.53199231452
368.2467002745434 15989.167380255769
369.31131466831175 16039.354245286691
370.375655557742 16039.063675588837
371.4397230299983 16039.815130035055
372.5035171722102 15946.078304129242
373.5670380714637 15832.274944294806
374.6302858148101 15981.162461596905
375.6932604892554 15869.101676581766
376.7559621817709 15948.1440128476
377.81839097928605 15835.565423477305
378.8805469686886 15764.335436442128
379.94243023683157 15800.249072060877
381.0040408705263 15800.22002707099
382.0653789565458 15620.404639263379
383.1264445816196 15719.23850711922
384.1872378324406 15651.112270414964
385.2477587956637 15748.474352384324
386.3080075579037 15569.41848096591
387.3679842057336 15429.647717896412
388.4276888256918 15566.156954321157
389.48712150426945 15427.309534790777
390.54628232792857 15449.293029689925
391.6051713830857 15394.442674242388
392.66378875611736 15430.586835230564
393.7221345333637 15391.971508285433
394.7802088011249 15233.248073550663
395.838011645661 15304.0866659564
396.89554315319765 15173.651411741037
397.9528034099112 15160.404907987657
399.00979250194723 15094.672210036815
400.06651051541485 14997.393897168056
401.1229575363741 15057.268416935889
402.17913365085224 14997.109864059361
403.23503894483656 15043.326728081749
404.2906735042761 14959.855152734224
405.3460374150818 14864.322158618312
406.401130763119 14774.88240878576
407.455953634224 14877.977624657859
408.5105061141876 14705.3822466987
409.56478828876243 14663.957687249622
410.6188002436629 14596.853089577038
411.6725420645689 14610.344945545712
412.72601383711117 14690.341756127827
413.77921564689314 14678.775367830958
414.8321475794728 14533.634804249083
415.88480972036814 14468.567748050842
416.93720215506437 14475.520337605569
417.9893249690049 14464.892547340065
419.04117824759123 14341.681101218725
420.09276207619223 14287.619366629875
421.144076540133 14348.803381986141
422.1951217247042 14298.348954626877
423.24589771515275 14288.474661964876
424.2964045966928 14257.297575818326
425.34664245449494 14279.494361327223
426.3966113736933 14198.207689052948
427.4463114393875 14080.922651798828
428.49574273662984 14066.226144089494
429.5449053504417 14034.210152212781
430.5937993658026 14050.299408157629
431.6424248676558 13916.477713995311
432.6907819409007 13985.378849819495
433.73887067040596 14040.984339035358
434.7866911409965 13992.767126092536
435.8342434374608 13966.130661976707
436.88152764455117 13911.345244697175
437.9285438469724 13829.040100620365
438.9752921294057 13852.2760737765
440.02177257648145 13846.551439608855
441.06798527279716 13729.67331031353
442.1139303029122 13875.287782203584
443.1596077513459 13984.38071666887
444.2050177025794 13812.686622423329
445.25016024105753 13799.322599310948
446.2950354511886 13705.249014825566
447.33964341733736 13833.2471938078
448.383984223834 13701.850905363503
449.4280579549686 13624.12263629829
450.471864694995 13779.662416570169
451.5154045281306 13674.598132727846
452.5586775385509 13753.049255117812
453.60168381039693 13661.215540954712
454.64442342776783 13807.190585933426
455.6868964747264 13725.141968960339
456.7291030353008 13611.08226422175
457.77104319347563 13714.508272755094
458.8127170332027 13626.79411417618
459.854124638392 13651.667699402362
460.895266092919 13781.27481503856
461.93614148061897 13770.028328533328
462.97675088529104 13809.444442256092
464.01709439069236 13790.337549265008
465.0571720805492 13819.620017988671
466.0969840385442 13851.553328584327
467.1365303483253 13948.562777716474
468.17581109350067 13866.662601507696
469.2148263576437 13961.483292234325
470.2535762242878 13884.200730623974
471.29206077693016 14072.394947980123
472.33028009902773 13979.043372050344
473.3682342740012 14045.770829905032
474.40592338523857 13994.152227651648
475.4433475160804 14010.334590158353
476.4805067498364 14008.418822437161
477.51740116978 13980.0378540425
478.5540308591426 13999.651331072542
479.59039590112116 14131.45630030313
480.6264963788726 14091.535177865613
481.6623323755193 14220.735947744619
482.6979039741436 14170.935178588381
483.7332112577915 14325.94208555311
484.76825430947247 14542.074161187202
485.80303321215797 14520.729181966648
486.837548048783 14601.85721751636
487.8717989022425 14809.410526877127
488.90578585539697 14745.056197985943
489.9395089910686 14974.33684276994
490.97296839203955 14825.8461841918
492.00616414106116 14720.29192240726
493.0390963208429 14795.953580660116
494.0717650140559 14671.465204951712
495.10417030333883 14533.030753818739
496.1363122712901 14534.780164032141
497.16819100046814 14332.915139017196
498.1998065734024 14152.198362744723
499.2311590725767 14190.344544726602
500.26224858044407 13913.421000606055
501.2930751794156 13838.549913627223
502.3236389518679 13719.593965290938
503.35393998014115 13639.79489023645
504.38397834653733 13544.014478349014
505.4137541333221 13504.141088377239
506.4432674227228 13422.537581040855
507.4725182969323 13289.112320768972
508.5015068381035 13220.72379809304
509.53023312835467 13202.488391735242
510.55869724976765 13159.705581523007
511.58689928438434 13119.144062949868
512.6148393142121 12958.947451209773
513.6425174212218 13032.47929040379
514.6699336873462 13008.622320643415
515.6970881944835 12997.798969479143
516.7239810244901 12950.208625571426
517.7506122591931 12951.936072868546
518.7769819803761 12923.580284170434
519.8030902697901 12945.45492233559
520.8289372091476 12947.853622668681
521.8545228801249 12969.278273595752
522.8798473643619 12818.971601088353
523.9049107434621 12891.618668412524
524.9297130989908 12841.664538294785
525.9542545124805 12809.59985238249
526.9785350654201 12836.287955840466
528.0025548392696 12857.067459515723
529.0263139154504 12759.793833049493
530.0498123753423 12785.91126195615
531.073050300296 12653.397648504275
532.0960277716204 12592.593955039254
533.1187448705896 12607.067475663242
534.1412016784416 12520.877703631917
535.1633982763833 12478.94386013164
536.1853347455726 12419.744685858981
537.2070111671401 12419.463411844063
538.2284276221817 12422.79061509118
539.2495841917516 12302.024157193027
540.2704809568677 12236.076331846216
541.2911179985167 12287.279902067414
542.3114953976419 12178.441434535805
543.3316132351592 12129.776108284135
544.3514715919409 12090.386684010587
545.3710705488247 12092.741461387155
546.3904101866156 12120.826107511435
547.4094905860784 12174.014212087313
548.4283118279418 12057.618347327532
549.4468739929034 12047.20422704983
550.4651771616191 12020.049284238563
551.4832214147063 11920.700236476008
552.501006832761 12010.231654103856
553.5185334963226 12045.840736967017
554.5358014859103 12042.451143263721
555.5528108820035 12026.109057430858
556.5695617650363 11935.169983563695
557.5860542154242 12082.31912442085
558.6022883135283 11976.591643286087
559.6182641396881 11907.968812202347
560.6339817741991 11922.533552703486
561.6494412973225 11884.99165493576
562.6646427892883 12061.444527695547
563.6795863302796 11885.496942850203
564.694272000459 11830.034497536442
565.7086998799423 11968.618828393433
566.7228700488104 11848.773618465682
567.7367825871115 11855.79207082485
568.7504375748576 11790.527034893132
569.7638350920224 11845.21900240315
570.7769752185486 11784.994222448582
571.7898580343353 11804.95370280098
572.802483619258 11767.019708822801
573.8148520531431 11924.896012341364
574.8269634157932 11794.860953383259
575.8388177869692 11821.729195562488
576.8504152463938 11855.700098306344
577.8617558737587 11956.352975245005
578.8728397487175 11902.923077743351
579.883666950891 11985.154665996799
580.8942375598654 12072.858641207331
581.9045516551851 12116.744642105908
582.9146093163617 12320.917177898536
583.924410622878 12246.043339615511
584.9339556541727 12260.787239076437
585.9432444896538 12299.817149409197
586.9522772086875 12228.742818741975
587.9610538906127 12366.96776660583
588.9695746147318 12269.250269776441
589.9778394603054 12406.034162174403
590.985848506567 12227.940753859515
591.9936018327098 12103.370954386646
593.0010995178891 11990.420733194005
594.0083416412344 12028.677909200353
595.0153282818283 11870.051693745381
596.0220595187293 11796.386711202695
597.0285354309508 11758.40691856684
598.0347560974806 11732.098073248531
599.0407215972609 11707.476287709755
600.0464320092051 11651.49251350907
601.0518874121954 11579.035164509058
602.0570878850685 11633.636258269044
603.062033506636 11497.495159895994
604.0667243556636 11571.196779646609
605.0711605108936 11405.669185621966
606.0753420510264 11647.735237103097
607.0792690547278 11585.819449182005
608.082941600629 11500.238401142955
609.0863597673306 11506.931374094205
610.0895236333909 11540.657364981229
611.0924332773357 11789.416542288238
612.0950887776617 11607.941862502139
613.0974902128219 11679.614041571464
614.0996376612384 11778.595991409571
615.1015312013005 11911.990626088656
616.1031709113595 12000.657940466033
617.1045568697336 11901.28969978308
618.1056891547069 12039.882232887017
619.1065678445229 12143.436138674904
620.1071930173985 12307.099646317392
621.1075647515099 12370.438767959402
622.1076831250048 12445.34924942779
623.1075482159849 12609.936204215297
624.1071601025305 12744.085927063605
625.1065188626781 12769.19485406702
626.105624574433 13054.54857072936
627.1044773157682 13021.824439350923
628.1030771646128 13154.406242341447
629.1014241988742 13320.966315281301
630.0995184964158 13421.96361638332
631.0973601350688 13553.248722334805
632.0949491926294 13668.749410764873
633.0922857468631 13513.32925046671
634.089369875499 13560.208499930808
635.0862016562278 13675.600501980665
636.0827811667077 13503.091098011593
637.0791084845641 13511.927188498568
638.0751836873878 13418.748129882453
639.0710068527369 13406.64274933473
640.0665780581294 13153.59940231299
641.0618973810506 13070.837479391035
642.0569648989604 13035.024238465105
643.0517806892676 12806.42012463477
644.0463448293649 12716.377960331858
645.040657396592 12542.665258870047
646.0347184682723 12433.604991274344
647.0285281216875 12257.664876245279
648.0220864340772 12183.70947435264
649.0153934826558 12071.6820665938
650.0084493446047 11912.790131550271
651.0012540970674 11883.175860622046
651.9938078171526 11728.59136150158
652.9861105819346 11758.469955754063
653.9781624684565 11784.838391470375
654.9699635537254 11592.570310723038
655.9615139147136 11646.348677594799
656.9528136283589 11509.135351683764
657.9438627715699 11565.837960570369
658.9346614212154 11371.030429019858
659.925209654135 11209.563311042699
660.9155075471263 11324.907484223746
661.9055551769616 11249.513645347439
662.895352620375 11319.058551144692
663.8848999540678 11167.722195003638
664.8741972547068 11037.060174006678
665.863244598926 11062.650328487069
666.8520420633213 11080.776157580261
667.8405897244611 10891.093656013718
668.8288876588758 10819.481662124457
669.8169359430613 10893.003616445842
670.8047346534822 10918.383922250514
671.7922838665672 10752.895906654674
672.7795836587156 10815.192308032674
673.766634106285 10951.661282529649
674.7534352856092 10780.920131679484
675.7399872729766 10762.172475747746
676.7262901446538 10775.354720351368
677.712343976862 10750.850689045763
678.6981488457986 10834.931015456652
679.6837048276229 10728.179652224102
680.6690119984596 10707.523624745769
681.6540704344043 10737.690200823661
682.6388802115107 10716.562613047856
683.6234414058108 10650.603317929408
684.6077540932874 10522.865242169162
685.591818349907 10590.904228839021
686.575634251587 10518.112030047747
687.5592018742263 10433.393066292041
688.5425212936734 10385.466380403577
689.5255925857564 10457.653003213289
690.5084158262707 10319.50223386457
691.4909910909646 10331.334762307586
692.4733184555644 10279.471917561106
693.4553979957618 10284.186830593706
694.4372297872123 10262.405392403598
695.4188139055404 10201.324582311956
696.4001504263324 10202.136564081953
697.3812394251509 10255.49510660613
698.3620809775111 10204.694165842475
699.3426751589104 10158.477429827823
700.3230220448004 10117.402572575385
701.3031217106054 10163.393534683948
702.2829742317172 10328.023276772641
703.2625796834873 10097.50663842058
704.2419381412474 10077.250598146109
705.22104968028 10234.523089552236
706.1999143758458 10200.501864169655
707.178532303169 10082.509544715042
708.1569035374378 10316.460155291597
709.1350281538107 10251.128731482084
710.1129062274158 10357.716742984663
711.0905378333373 10454.893528554861
712.0679230466376 10468.090712970481
713.0450619423427 10598.892946032529
714.0219545954424 10725.138258913456
714.9986010808989 10692.519628157122
715.9750014736292 10794.087925735637
716.9511558485392 10985.360858270511
717.9270642804786 11110.71541145601
718.9027268442787 11181.255876082609
719.8781436147328 11145.766027677346
720.8533146666014 11197.4197252627
721.828240074612 11229.00490112899
722.8029199134635 11191.717910599755
723.7773542578125 11123.067212573127
724.751543182294 11025.805412262014
725.7254867615029 11039.89505954714
726.6991850700015 10838.153348946205
727.6726381823228 10852.793714545947
728.6458461729599 10820.789092411691
729.6188091163858 10717.467641164492
730.5915270870246 10814.71655544536
731.5640001592856 10795.931380053093
732.536228407529 10837.810235674184
733.5082119060917 10965.096412867251
734.4799507292755 10884.157067923723
735.4514449513481 11044.876132211248
736.4226946465496 11050.067741135832
737.3936998890786 11100.346430160782
738.3644607531078 10928.475002797246
739.3349773127793 10928.579840118786
740.3052496421951 10843.538877920322
741.27527781543 10796.51747278997
742.2450619065221 10507.535102018532
743.2146019894826 10493.288502034542
744.183898138288 10356.30969510719
745.1529504268801 10158.782983365974
746.1217589291682 9999.933192221513
747.0903237190341 9965.246209495675
748.058644870318 9837.443595862202
749.0267224568397 9780.59525330212
749.994556552374 9666.149010856696
750.9621472306771 9640.15840068703
751.9294945654583 9635.146930208815
752.8965986304011 9564.461673621645
753.8634594991636 9504.207040955122
754.8300772453586 9580.636014591135
755.7964519425768 9425.629265255464
756.762583664371 9531.501844392069
757.7284724842611 9486.385359794824
758.6941184757416 9424.553205625054
759.6595217122667 9470.250679311343
760.6246822672638 9398.96035551398
761.5896002141235 9295.996288419421
762.5542756262093 9337.837981717235
763.5187085768503 9384.101429345857
764.4828991393406 9401.291763623949
765.4468473869474 9318.130798236294
766.4105533929032 9309.080991514564
767.3740172304078 9267.522831669929
768.3372389726283 9351.191508830492
769.3002186926988 9185.798393589806
770.2629564637282 9181.821783735157
771.2254523587872 9156.299562592081
772.1877064509154 9064.598166852109
773.1497188131179 8981.51482245031
774.1114895183728 8957.030711377232
775.0730186396268 8937.293383868979
776.0343062497905 8936.341514842496
776.9953524217381 8843.300748009427
777.9561572283274 8902.784393076707
778.9167207423689 8887.06702899811
779.8770430366476 8772.07024815338
780.8371241839159 8815.150701489036
781.7969642568951 8777.852671243094
782.7565633282757 8985.743219007029
783.7159214707099 8780.026062162364
784.6750387568281 8854.31443539888
785.6339152592227 8719.39141380544
786.5925510504512 8749.312538769775
787.5509462030477 8751.243204717834
788.5091007895098 8752.471771734796
789.4670148823006 8787.460987618102
790.4246885538596 8779.973096083322
791.3821218765861 8730.859932355314
792.3393149228505 8619.847456770662
793.2962677649975 8849.30205492317
794.2529804753303 8785.36472997442
795.20945312613 8770.12062392234
796.1656857896378 8776.59396614584
797.1216785380675 8698.502336774718
798.0774314435985 8805.674296308278
799.0329445783846 8900.453624618285
799.9882180145414 8953.819886111534
800.9432518241574 8902.878786179455
801.89804607929 9025.97010393647
802.852600851962 9031.638649476614
803.8069162141637 9028.544542067197
804.760992237856 9176.022402912764
805.714828994971 9166.442127608629
806.6684265574077 9215.220533181913
807.6217849970271 9122.681790438837
808.574904385674 9185.043155846737
809.527784795142 9169.287229204816
810.4804262972102 9187.223296675817
811.4328289636178 9028.256528391086
812.3849928660748 8939.771969337107
813.3369180762638 8958.36790480371
814.2886046658241 8962.53235277432
815.2400527063783 8848.20882956746
816.1912622695108 8814.428217710058
817.1422334267718 8725.13557923248
818.0929662496856 8667.652149478108
819.0434608097457 8510.496015739576
819.9937171784059 8555.770274236846
820.9437354271013 8463.486818180958
821.8935156272255 8568.213364113453
822.8430578501484 8367.669331761273
823.7923621672016 8222.687018308896
824.7414286496896 8369.64399178123
825.6902573688876 8378.44633272765
826.6388483960363 8255.895696461583
827.5872018023492 8204.661632043008
828.5353176590033 8323.3310545322
829.4831960371503 8220.439589580361
830.4308370079016 8173.6046259807335
831.3782406423525 8183.839499084281
832.3254070115545 8185.975213306064
833.2723361865319 8103.104648298412
834.2190282382799 8101.224769078003
835.1654832377644 8154.315026403332
836.1117012559116 8015.6809034170965
837.0576823636256 8174.844257023721
838.003426631778 7995.55473678401
838.9489341312074 8016.837619464763
839.8942049327197 8179.928531515865
840.8392391070975 8095.767811371121
841.7840367250865 7998.111859814654
842.7285978573982 8002.156743436916
843.672922574724 8055.19694304625
844.6170109477152 8023.9834057657645
845.560863046996 8057.349307736664
846.5044789431595 8004.501936176918
847.4478587067697 7999.0304535278965
848.3910024083561 8074.239994794017
849.333910118421 7964.568931936777
850.2765819074339 7892.540948902892
851.2190178458332 8046.476585547471
852.161218004032 7996.955216320275
853.1031824524016 8109.087717534972
854.0449112612987 7950.516137659749
854.9864045010327 8013.504530469383
855.9276622418947 7938.167785659314
856.8686845541379 7974.288490413562
857.8094715079915 7978.394887763449
858.7500231736467 8085.658436975437
859.690339621271 8023.392029660284
860.6304209209939 8030.651430259901
861.5702671429244 7873.293496527702
862.5098783571284 7982.6026856877115
863.4492546336569 8022.630763765543
864.3883960425155 7982.972616294758
865.3273026536863 7908.253781939391
866.2659745371238 7971.050607232108
867.2044117627465 8138.890929209144
868.1426144004472 7969.962159147786
869.0805825200823 8044.458895591623
870.0183161914847 8038.008592127155
870.9558154844526 8166.263844705691
871.8930804687552 8111.602757391552
872.8301112141307 8004.852682236948
873.7669077902865 8166.620816908969
874.7034702669062 8320.647686218486
875.6397987136315 8216.182092890074
876.5758932000863 8216.626542629687
877.5117537958522 8252.729284421597
878.4473805704911 8230.243812060455
879.3827735935283 8220.411263217187
880.3179329344603 8358.025875827054
881.2528586627541 8431.680871075163
882.1875508478479 8400.911621247164
883.1220095591489 8297.696386629239
884.0562348660296 8254.4074464708
884.9902268378391 8426.782210340609
885.9239855438955 8381.368132455802
886.8575110534839 8271.250736263513
887.7908034358588 8322.044580226133
888.7238627602474 8274.460713817982
889.6566890958475 8300.924492089565
890.5892825118208 8144.3841736766335
891.5216430773125 8119.321164417878
892.4537708614189 8191.63103059865
893.3856659332196 8039.820923807412
894.3173283617652 7973.244193805108
895.2487582160684 8032.994962144896
896.179955565116 7968.969342904081
897.110920477864 7866.201640555248
898.0416530232451 7851.416709569961
898.9721532701478 7853.204999032743
899.9024212874428 7923.290693796002
900.8324571439662 7854.319101080856
901.7622609085302 7724.11305107314
902.6918326499072 7741.093715480967
903.6211724368477 7778.204146532422
904.5502803380696 7769.145821570559
905.4791564222614 7868.273937274037
906.4078007580792 7657.807269396972
907.3362134141571 7709.757046645049
908.2643944590909 7822.076794661929
909.1923439614493 7685.640376494198
910.1200619897754 7727.714216532289
911.0475486125779 7815.34868172747
911.9748038983344 7753.0355491299
912.9018279155007 7623.6385376715425
913.8286207324982 7557.080650829393
914.7551824177117 7710.775580154919
915.6815130395116 7646.777850801273
916.6076126662283 7611.493248259636
917.533481366163 7655.2553120978555
918.4591192075914 7598.754902003874
919.3845262587565 7663.999479979454
920.3097025878706 7464.021384691648
921.2346482631237 7582.889386601613
922.1593633526682 7540.091106459304
923.0838479246304 7546.129498442317
924.0081020471061 7595.579974522152
924.9321257881656 7507.423753885448
925.8559192158464 7488.904955250498
926.7794823981512 7458.974563510911
927.7028154030686 7423.258058584739
928.6259182985414 7427.637589595135
929.5487911524906 7549.756354952422
930.4714340328119 7520.370588356818
931.3938470073608 7355.628668669402
932.3160301439748 7369.034866133424
933.2379835104548 7414.716738317877
934.1597071745709 7449.259082998727
935.0812012040769 7394.535450863645
936.002465666681 7485.084939916422
936.9235006300696 7457.990985061294
937.8443061619055 7479.945478245315
938.7648823298077 7320.0114684090895
939.6852292013809 7322.488423971964
940.6053468441951 7464.348572384886
941.5252353257874 7299.486423073757
942.4448947136698 7346.076585669264
943.364325075323 7300.258704752868
944.2835264782043 7319.1594518066895
945.2024989897309 7323.556503114196
946.1212426773054 7358.249067729559
947.0397576082851 7387.233011230765
947.9580438500125 7374.662443193226
948.8761014697939 7436.398296828593
949.7939305349064 7324.254830265294
950.7115311125999 7350.32470417028
951.6289032700952 7404.1145078751115
952.5460470745875 7441.801427305133
953.4629625932339 7354.460251950199
954.3796498931715 7411.727122027619
955.2961090415029 7396.168389068722
956.2123401053068 7420.062414881324
957.1283431516276 7308.334305137772
958.0441182474842 7333.867217202617
958.9596654598663 7376.231094289529
959.8749848557309 7348.136689564478
960.7900765020167 7294.546228130453
961.7049404656209 7296.501377290582
962.6195768134185 7390.942824638603
963.5339856122537 7347.641196848233
964.4481669289453 7291.489723577373
965.3621208302793 7232.794092174912
966.2758473830145 7291.992870628163
967.1893466538822 7414.711417008979
968.1026187095813 7276.264070831014
969.0156636167867 7220.953610943046
969.9284814421426 7314.0515683607055
970.8410722522622 7211.7004296172645
971.753436113735 7256.294406986211
972.6655730931161 7161.798664374442
973.5774832569368 7216.9265946069545
974.4891666716958 7198.4992591662685
975.4006234038698 7144.123482517806
976.3118535198955 7167.04263590554
977.2228570861935 7308.021395286053
978.1336341691494 7300.369926058466
979.0441848351202 7121.68655856026
979.9545091504333 7272.152271722441
980.864607181391 7183.825827667334
981.7744789942699 7254.543736225767
982.6841246553086 7289.204610670908
983.5935442307236 7203.262355183103
984.5027377867027 7154.895009199664
985.4117053894024 7209.732928397168
986.3204471049557 7146.553460525104
987.2289629994648 7324.042284650166
988.1372531390007 7368.416045341907
989.0453175896091 7192.412594578603
989.9531564173067 7231.430513999238
990.860769688079 7195.294676461657
991.7681574678918 7311.366814717474
992.6753198226706 7271.017557666611
993.582256818323 7192.724832082934
994.4889685207218 7239.132168748854
995.3954549957143 7376.401975946976
996.301716309119 7326.913802316985
997.2077525267232 7202.416452962621
998.1135637142943 7312.765357938098
999.0191499375615 7302.187791401646
999.924511262232 7355.5765846766735
1000.8296477539861 7378.698664113914
1001.7345594784656 7322.819929944664
1002.6392465012996 7331.1909387015285
1003.5437088880753 7417.674634969738
1004.4479467043584 7410.0951171965135
1005.3519600156869 7247.695529840157
1006.2557488875718 7303.425632752619
1007.1593133854858 7331.775134116203
1008.0626535748888 7217.506810806833
1008.9657695212009 7173.688081298099
1009.8686612898182 7406.441437518408
1010.7713289461135 7317.517189617861
1011.6737725554212 7228.8969052759785
1012.5759921830577 7304.7312109003105
1013.4779878943027 7222.616505630894
1014.379759754418 7215.747759855872
1015.2813078286254 7192.496670154373
1016.18263218213 7085.556104161124
1017.0837328801026 7096.538940929044
1017.9846099876886 7201.389365194553
1018.8852635700023 7092.726505093482
1019.7856936921362 7013.905024684389
1020.6859004191447 7127.654954691521
1021.5858838160675 7066.3268497022755
1022.4856439479063 7012.1117801191895
1023.3851808796389 7015.972637216791
1024.2844946762143 7059.257156717899
1025.183585402554 7059.107940981931
1026.082453123554 6924.098749775032
1026.9810979040776 6953.487482290594
1027.8795198089647 6918.119257869403
1028.777718903024 6965.613075178817
1029.6756952510368 6933.39097297564
1030.5734489177648 6829.352051153624
1031.4709799679313 6955.611958937991
1032.3682884662358 7104.963622241781
1033.2653744773506 6813.263427579614
1034.1622380659192 6903.553747435389
1035.058879296559 7014.460900855757
1035.9552982338591 7013.744296333661
1036.8514949423825 7028.674496803093
1037.7474694866614 7033.605781192311
1038.6432219312028 7080.123433108771
1039.5387523404825 7257.0752586091285
1040.4340607789582 7256.1761536729
1041.3291473110476 7279.7487280321
1042.2240120011465 7559.318338981606
1043.1186549136273 7608.231663978944
1044.0130761128294 7640.74584094791
1044.9072756630649 7683.201055607712
1045.8012536286205 7834.12193059235
1046.6950100737577 7922.345484747217
1047.588545062701 7924.9024067394585
1048.481858659663 7995.139815066544
1049.3749509288118 8177.20695902471
1050.2678219343034 8094.360427403351
1051.1604717402515 8083.659641770189
1052.0529004107575 8078.166812686807
1052.9451080098825 8088.6172572550595
1053.8370946016694 8138.475999084813
1054.7288602501267 8002.604214802532
1055.6204050192446 7861.286788199841
1056.511728972977 7857.303347555974
1057.402832175254 7743.549459314051
1058.2937146899785 7630.027923388336
1059.1843765810263 7514.038424125666
1060.0748179122456 7545.800179420478
1060.9650387474576 7434.854660549661
1061.855039150456 7438.030400233989
1062.7448191850071 7363.014540628226
1063.6343789148505 7274.67638203258
1064.5237184037014 7295.970258298276
1065.412837715241 7175.693155745039
1066.3017369131267 7150.1684925985655
1067.190416060992 7077.689240535486
1068.0788752224398 6993.118328576221
1068.9671144610438 7083.779744001737
1069.8551338403558 7035.9636809434905
1070.7429334239023 7048.305472898866
1071.6305132751695 6900.3236272468885
1072.517873457633 6932.2569437616285
1073.4050140347335 6933.538955353579
1074.2919350698776 6847.061594983441
1075.1786366264623 6925.501292385171
1076.0651187678395 6932.354093645886
1076.95138155735 6809.136892257173
1077.8374250582929 6803.0489474472
1078.7232493339507 6836.827185160696
1079.608854447577 6703.773772851324
1080.4942404623907 6693.942118481778
1081.3794074415982 6741.318218692746
1082.2643554483657 6775.339592351612
1083.149084545841 6681.137864530127
1084.033594797138 6688.162145535175
1084.9178862653516 6771.929497342979
1085.8019590135427 6797.087288617453
1086.6858131047484 6604.024849679277
1087.5694486019802 6728.9025349839185
1088.4528655682225 6725.157240746657
1089.3360640664287 6803.707576247742
1090.2190441595321 6774.99987352809
1091.1018059104317 6752.826673374509
1091.98434938201 6848.583074843625
1092.866674637111 6893.305434129332
1093.748781738559 6794.381074095358
1094.6306707491512 6736.522575324467
1095.5123417316554 6859.935277101402
1096.3937947488157 6797.977260449114
1097.2750298633455 6751.013323861736
1098.156047137938 6766.166748691097
1099.0368466352556 6858.24892197625
1099.9174284179317 6869.682340231875
1100.7977925485757 6700.888787024928
1101.6779390897755 6781.345570710882
1102.5578681040806 6674.288140204539
1103.4375796540226 6734.167935220673
1104.3170738021054 6632.224992402084
1105.1963506108077 6486.442652812048
1106.0754101425773 6596.361804156733
1106.9542524598382 6653.261136603869
1107.8328776249855 6582.096783029311
1108.7112857003904 6575.297116874957
1109.5894767483987 6582.541636737634
1110.4674508313292 6673.808769483972
1111.3452080114657 6572.316023208475
1112.2227483510815 6570.2156320086415
1113.1000719124077 6682.003920078535
1113.9771787576592 6675.59042530137
1114.854068949022 6664.5083489947765
1115.7307425486542 6619.541921375814
1116.6071996186893 6692.052018948079
1117.483440221229 6763.155844642776
1118.3594644183577 6725.98500699936
1119.235272272128 6792.846767276309
1120.1108638445658 6926.279278072603
1120.9862391976712 7100.462132382432
1121.8613983934229 7030.099145828363
1122.7363414937627 6911.676126583241
1123.6110685606182 7015.964430007106
1124.485579655884 7256.397279166862
1125.359874841426 7212.314255691684
1126.2339541790916 7251.992244547709
1127.1078177306936 7485.955583169079
1127.9814655580267 7286.39116071135
1128.854897722851 7367.16046135139
1129.7281142869106 7368.545231150168
1130.6011153119125 7404.743617359624
1131.473900859548 7509.366721097705
1132.3464709914697 7507.639257757544
1133.2188257693178 7450.691298022453
1134.0909652546961 7366.68632440666
1134.96288950919 7249.456440490254
1135.8345985943506 7287.152812823284
1136.7060925717087 7203.563740905692
1137.57737150277 7225.9982267290425
1138.4484354490069 7188.615697651689
1139.3192844718778 7034.481951146774
1140.1899186327992 6955.066521500201
1141.060337993178 7057.931257471588
1141.930542614382 7021.339577711204
1142.8005325577597 6807.335863221485
1143.670307884635 6748.290725932506
1144.5398686563003 6761.53854814091
1145.409214934025 6813.651502609001
1146.2783467790541 6505.994062186792
1147.1472642526023 6561.1124967290725
1148.0159674158622 6697.036399166427
1148.8844563300026 6438.798814483542
1149.7527310561618 6400.362946987839
1150.6207916554504 6395.718718610692
1151.4886381889592 6246.658812307754
1152.3562707177498 6357.996159555887
1153.2236893028585 6288.871240101773
1154.090894005296 6242.229030822378
1154.9578848860474 6310.342022703813
1155.8246620060709 6318.037091707624
1156.6912254262988 6195.189497086025
1157.5575752076438 6178.94573408728
1158.42371141098 6320.642340651229
1159.2896340971656 6290.251320178503
1160.1553433270346 6182.575214554849
1161.0208391613887 6187.1777252288775
1161.8861216610057 6157.618946525308
1162.75119088664 6149.748652610049
1163.6160468990201 6137.120489994519
1164.4806897588442 6102.12663869999
1165.3451195267917 6075.442525248246
1166.2093362635114 6158.9803124070295
1167.0733400296285 6207.953084614544
1167.9371308857444 6101.476808784587
1168.8007088924278 6061.624593903833
1169.6640741102328 6074.7408384611135
1170.5272265996773 6019.545249758742
1171.390166421259 5982.958394997042
1172.252893635452 6158.758987340503
1173.1154083026995 6275.3435330639795
1173.977710483421 6224.3419351023085
1174.8398002380145 6072.90746286192
1175.7016776268483 6151.769284962767
1176.563342710264 6103.804453874322
1177.4247955485826 6130.949418805412
1178.2860362020947 6182.042036896604
1179.147064731069 6081.039741019337
1180.0078811957483 6229.186961065676
1180.8684856563486 6104.8427973456
1181.7288781730604 6114.213964132666
1182.589058806052 6222.000684009123
1183.4490276154593 6368.775998834115
1184.3087846614017 6148.505566088284
1185.1683300039676 6235.240171293906
1186.027663703222 6386.908198074547
1186.8867858192025 6300.946589350782
1187.7456964119228 6337.371065912199
1188.6043955413716 6340.199304862848
1189.4628832675116 6487.911297387746
1190.3211596502842 6488.688491481517
1191.179224749596 6436.786563033658
1192.0370786253388 6412.715418443078
1192.8947213373758 6560.148095268382
1193.7521529455407 6665.125070957669
1194.6093735096438 6459.434446905472
1195.466383089477 6564.995792301917
1196.3231817447977 6546.1592401699
1197.1797695353398 6658.213572510462
1198.0361465208189 6514.770223699406
1198.8923127609214 6560.333310525166
1199.7482683153048 6668.221287368932
1200.6040132436028 6718.909996775114
1201.459547605431 6600.549465059567
1202.3148714603722 6678.9665587590225
1203.1699848679855 6691.963188314434
1204.0248878878065 6753.989806668667
1204.8795805793507 6455.452629860143
1205.7340630020935 6711.1036287924335
1206.5883352155033 6711.263760659158
1207.4423972790064 6708.302392117203
1208.2962492520237 6541.646322292699
1209.1498911939307 6562.797476797714
1210.0033231640937 6606.32289822255
1210.8565452218427 6507.500596852395
1211.7095574264913 6261.320526807189
1212.5623598373222 6419.317911456145
1213.4149525135963 6328.73941010154
1214.2673355145507 6415.675524124553
1215.1195088993936 6163.68947629085
1215.9714727273113 6328.3755434798595
1216.8232270574663 6413.727038996059
1217.6747719489904 6213.249362735387
1218.5261074609934 6223.751268464607
1219.3772336525653 6222.004012684048
1220.2281505827668 6210.239522174705
1221.0788583106296 6231.68645075301
1221.9293568951707 6058.098100644316
1222.7796463953746 6072.818803964782
1223.629726870202 6158.762767138375
1224.4795983785934 6081.851687399039
1225.3292609794553 6038.144879340475
1226.1787147316809 6036.333972431141
1227.0279596941327 6072.504421689457
1227.8769959256424 6111.932637948722
1228.7258234850306 6051.844532678986
1229.5744424310833 5837.833829443904
1230.422852822563 5954.364501343637
1231.2710547182105 6126.1674344483845
1232.119048176739 5994.15998092084
1232.9668332568417 5843.15155598639
1233.8144100171812 5884.875971468161
1234.6617785163999 6091.83932605448
1235.508938813111 5800.058641080447
1236.3558909659114 5926.975977690499
1237.2026350333617 6055.231723743434
1238.049171074008 6009.792324364536
1238.8954991463652 5865.350665721264
1239.741619308932 5933.113771623129
1240.587531620169 7099.583529334419
1241.4332361385277 6023.396058447574
1242.2787329224248 5879.101634404523
1243.1240220302534 5791.3943846872735
1243.9691035203869 5833.277943477807
1244.813977451171 5954.005756354538
1245.6586438809263 5820.154820997265
1246.5031028679496 5802.820267732157
1247.3473544705157 5855.53270444171
1248.1913987468706 5869.805074299234
1249.0352357552383 5782.303598232635
1249.8788655538228 5834.120541340898
1250.7222882007918 5951.042268608016
1251.565503754302 5892.208920555308
1252.4085122724755 5794.347496020366
1253.2513138134182 5932.685920684082
1254.0939084352049 5965.957783351262
1254.9362961958905 5893.780572124319
1255.7784771535007 5891.800026324609
1256.6204513660432 5856.806663782318
1257.4622188915 6061.353026187951
1258.3037797878242 5939.529335430731
1259.1451341129468 5859.713187926556
1259.9862819247755 5997.8782408023535
1260.8272232811978 5951.901003240075
1261.6679582400666 6087.341402094912
1262.5084868592203 5865.272643969787
1263.34880919647 5827.054545033732
1264.1889253095997 5951.979341086794
1265.0288352563712 6014.578237163774
1265.8685390945266 5778.264830816255
1266.7080368817751 5983.802466107213
1267.5473286758115 5934.263476830338
1268.386414534294 5925.981561340087
1269.2252945148703 5793.949194348576
1270.0639686751547 5859.663964820162
1270.9024370727402 5806.024190619742
1271.7406997651997 5862.711305944762
1272.5787568100714 5736.350266657188
1273.4166082648808 5818.283285752181
1274.2542541871244 5791.098259074082
1275.091694634275 5935.138406487282
1275.9289296637817 5726.07361425393
1276.7659593330663 5920.818536633457
1277.6027836995308 5804.272248463595
1278.4394028205552 5888.969346911841
1279.2758167534867 5866.552794680021
1280.112025555658 5781.88976758145
1280.9480292843746 5865.381019278657
1281.7838279969128 5752.246770361335
1282.6194217505326 5748.771713253715
1283.4548106024686 5700.520199650542
1284.289994609926 5692.639330608071
1285.1249738300921 5827.658462258243
1285.959748320127 5710.238399365666
1286.7943181371702 5727.998702614475
1287.6286833383328 5717.027045271301
1288.4628439807038 5856.818916942632
1289.2968001213521 5821.485335608572
1290.1305518173194 5774.253596862878
1290.9640991256183 5878.036483519731
1291.7974421032523 5765.730198900922
1292.630580807183 5756.897607247339
1293.463515294361 5875.477032010729
1294.29624562171 5944.464935688364
1295.12877184613 5837.0087261221015
1295.961094024493 5761.920154649356
1296.79321221365 5881.353770724462
1297.6251264704333 5933.254126849255
1298.4568368516466 6138.689957630597
1299.2883434140658 6071.036128814675
1300.1196462144526 5929.87820790953
1300.9507453095375 6164.765854796194
1301.7816407560313 6109.480041084883
1302.6123326106172 6010.357761729454
1303.4428209299622 6049.95139368537
1304.2731057707024 6256.038830289445
1305.1031871894502 6115.34585364719
1305.933065242798 6169.516993663836
1306.7627399873181 6110.261202746633
1307.5922114795467 6374.377864854307
1308.4214797760123 6229.861174474494
1309.2505449332057 6229.716834519828
1310.0794070076026 6241.450217653293
1310.9080660556538 6356.908863459136
1311.736522133786 6335.760084016287
1312.5647752983987 6169.661539719769
1313.3928256058734 6179.736622652121
1314.2206731125661 6277.838015473661
1315.048317874809 6340.277420589666
1315.8757599489109 6289.413884309539
1316.7029993911547 6318.697144936044
1317.5300362578055 6453.578221818831
1318.356870605101 6219.951626056041
1319.183502489257 6345.025847063902
1320.0099319664623 6385.920762198988
1320.836159092889 6465.549721386002
1321.66218392468 6372.171160524124
1322.4880065179532 6173.838417977205
1323.3136269288134 6361.684607680118
1324.1390452133292 6414.846317849811
1324.9642614275563 6554.662017062797
1325.7892756275214 6326.632899902883
1326.6140878692295 6312.127596795197
1327.4386982086617 6520.317611589083
1328.2631067017755 6340.130737017343
1329.0873134045069 6313.129481241823
1329.911318372764 6317.955460989298
1330.735121662441 6241.106069623245
1331.558723329399 6267.292981278751
1332.3821234294774 6220.51867925685
1333.2053220185007 6210.453807288621
1334.0283191522612 6118.7469205896505
1334.851114886529 6151.6737115842825
1335.6737092770582 6064.028915420705
1336.4961023795695 6037.555052341547
1337.3182942497697 5984.997129441057
1338.1402849433325 6035.45477472719
1338.962074515921 5878.110217188483
1339.7836630231632 5866.001317529391
1340.6050505206676 6132.4902318751765
1341.426237064028 6036.0698671459495
1342.2472227088037 5826.3952538908825
1343.0680075105338 5695.492160396456
1343.888591524741 5884.619451323508
1344.7089748069138 5828.603417102362
1345.5291574125276 5830.005644860535
1346.3491393970307 5611.523535383999
1347.168920815846 5860.269835655564
1347.9885017243778 5831.4913274499
1348.8078821780036 5731.916665405546
1349.6270622320844 5701.285650675798
1350.4460419419447 5622.131952094502
1351.2648213629054 5683.967708368342
1352.0834005502438 5532.686495856719
1352.90177955923 5590.935647406381
1353.7199584451064 5607.074775560063
1354.5379372630887 5716.357034894501
1355.355716068374 5642.4698524929245
1356.1732949161305 5477.085105206435
1356.9906738615155 5544.654713002765
1357.8078529596478 5554.351115557077
1358.6248322656375 5602.552004086096
1359.441611834567 5511.828814561807
1360.2581917214866 5711.751380270529
1361.0745719814367 5507.985254103749
1361.890752669433 5469.199863554157
1362.7067338404577 5479.283591016519
1363.5225155494845 5536.751078696076
1364.3380978514506 5612.642947103215
1365.1534808012839 5412.513829350153
1365.9686644538815 5301.310601479796
1366.783648864117 5518.139876502718
1367.5984340868417 5636.582881511795
1368.413020176893 5514.212288631527
1369.2274071890715 5462.052798102164
1370.0415951781652 5540.809661540376
1370.8555841989346 5483.345310387044
1371.6693743061223 5279.307300157094
1372.48296555444 5311.14581017013
1373.2963579985844 5481.361598142536
1374.1095516932255 5458.838010854683
1374.9225466930166 5272.614340877373
1375.7353430525782 5533.227153545684
1376.5479408265164 5358.6788196793905
1377.36034006941 5391.717126337429
1378.1725408358216 5384.2272363643915
1378.9845431802805 5233.456490114345
1379.796347157304 5523.337643636149
1380.6079528213813 5412.6147196299335
1381.4193602269788 5285.143725258062
1382.230569428546 5294.170923553991
1383.0415804805016 5261.378447570873
1383.852393437246 5243.011209424056
1384.6630083531563 5417.373647465089
1385.4734252825892 5324.905676893578
1386.2836442798798 5392.992407728546
1387.0936653993322 5426.103165906205
1387.9034886952395 5272.428360405252
1388.713114221864 5309.054327095983
1389.5225420334482 5306.841706492997
1390.331772184214 5263.569121345571
1391.1408047283585 5226.647816063031
1391.9496397200564 5308.266646004858
1392.758277213461 5376.931885192218
1393.5667172627054 5427.208797542424
1394.3749599218918 5338.087075546654
1395.1830052451114 5261.222796148163
1395.9908532864265 5391.764496851853
1396.7985040998774 5436.920884858578
1397.6059577394808 5225.2063092328735
1398.4132142592352 5322.849806070979
1399.2202737131156 5226.919250463706
1400.027136155073 5428.411384296539
1400.8338016390353 5247.439089388218
1401.6402702189134 5210.929550603627
1402.446541948586 5354.4690123843775
1403.2526168819204 5123.142043322095
1404.058495072757 5227.714567798398
1404.8641765749107 5145.745888221277
1405.6696614421799 5294.636634915906
1406.4749497283356 5480.341600713319
1407.280041487129 5169.360154314992
1408.084936772295 4988.108560379257
1408.8896356375335 5234.8612877658825
1409.6941381365323 5215.028189632475
1410.498444322955 5116.866168536748
1411.3025542504402 5063.541527780466
1412.106467972606 5173.708646819364
1412.9101855430508 5173.848761323891
1413.7137070153458 4998.190111385922
1414.5170324430437 5070.8848101562635
1415.320161879672 5162.376637754275
1416.1230953787435 5193.254331243788
1416.925832993742 4926.5768955754975
1417.7283747781275 4955.778821840878
1418.5307207853439 5109.808051485278
1419.3328710688093 5068.754791589537
1420.134825681922 4920.84863432983
1420.9365846780584 5015.614099300326
1421.7381481105713 5204.018876362143
1422.539516032788 5104.368442255313
1423.3406884980232 4914.152831949743
1424.1416655595604 4933.489966090473
1424.942447270665 4926.18937138247
1425.7430336845828 5077.796198234353
1426.5434248545298 4886.253627792168
1427.3436208337116 5084.8923906284335
1428.143621675301 5086.344736705629
1428.9434274324558 5205.934556351737
1429.7430381583108 4979.251343155086
1430.5424539059713 5078.244693455525
1431.3416747285337 5364.626334386797
1432.1407006790632 5185.9075454545
1432.9395318106053 5126.746614111663
1433.7381681761835 5018.363664224349
1434.5366098288014 5201.367216576991
1435.3348568214424 5152.975396830408
1436.1329092070573 5188.569998813671
1436.9307670385879 5273.364138158804
1437.7284303689503 5259.707839466397
1438.5258992510335 5368.568260473115
1439.3231737377118 5187.754696086613
1440.1202538818306 5240.304790580342
1440.9171397362225 5145.858751125343
1441.7138313536925 5201.145586686633
1442.5103287870243 5085.629263792981
1443.3066320889775 5097.139530347894
1444.1027413122956 5248.587898266517
1444.8986565096966 5190.271882992387
1445.694377733882 5152.218424932702
1446.4899050375207 4905.7490285226195
1447.2852384732687 5094.589916467301
1448.0803780937622 5056.099221273907
1448.8753239516063 4942.009419728493
1449.6700760993954 4814.296996128424
1450.464634589689 4894.628072568057
1451.2589994750397 5104.021208430482
1452.0531708079689 4767.068596291248
1452.8471486409799 4812.663874298376
1453.6409330265524 4950.648033130497
1454.4345240171442 4738.6332824465335
1455.2279216651987 4778.973318192392
1456.0211260231263 4769.05637051043
1456.8141371433194 5066.64583142758
1457.6069550781594 4806.7154946506025
1458.3995798799897 4554.0040692897755
1459.1920116011424 4674.679513139645
1459.98425029393 4620.72265317205
1460.7762960106338 4703.210920879329
1461.5681488035225 4699.661977916833
1462.3598087248392 4741.975300948078
1463.1512758268036 4829.687722161383
1463.942550161617 4575.330170473642
1464.7336317814625 4592.965886292741
1465.524520738496 4686.49504045519
1466.3152170848552 4654.597174440001
1467.1057208726506 4693.931020122327
1467.8960321539817 4597.572541505678
1468.6861509809169 4525.503824625857
1469.4760774055085 4526.9015089540435
1470.265811479785 4518.682413691341
1471.055353255755 4333.8483192815
1471.844702785409 4461.808012353957
1472.6338601207044 4312.4400614088645
1473.4228253135934 4417.746960275874
1474.2115984159936 4352.552827841651
1475.0001794798063 4234.711694480069
1475.7885685569145 4395.072699210578
1476.576765699172 4297.022124714649
1477.3647709584238 4302.5284190038965
1478.1525843864802 4462.33812394027
1478.9402060351367 4464.784720334805
1479.7276359561693 4336.607172427446
1480.514874201328 4215.708285275998
1481.3019208223468 4183.642260020208
1482.0887758709323 4095.303995654199
1482.8754393987747 4338.453350226917
1483.6619114575406 4218.757059132395
1484.4481920988783 4324.481499833439
1485.2342813744108 4240.401661187777
1486.0201793357446 4441.888603259056
1486.8058860344572 4183.776392789122
1487.591401522117 4196.516360838971
1488.3767258502594 4277.020765521431
1489.1618590704056 4295.318749257708
1489.9468012340494 4104.473965666709
1490.7315523926754 4329.635399252732
1491.5161125977356 4361.630252226627
1492.3004819006637 4311.400787913151
1493.084660352877 4194.279421525569
1493.8686480057622 4209.899782039074
1494.6524449106964 4332.26722647483
1495.4360511190262 4350.286767957425
1496.219466682087 4262.6187779488855
1497.0026916511779 4287.183514474202
1497.7857260775945 4202.95183836216
1498.5685700125996 4307.066291969256
1499.3512235074395 4031.7971057262234
1500.133686613337 4130.588345819868
1500.9159593814966 4188.222738939766
1501.698041863101 4438.555354836819
1502.4799341093094 4059.9074266341545
1503.2616361712662 4035.8556409252064
1504.043148100087 4259.653293167231
1504.8244699468742 4201.947767228761
1505.6056017626997 4132.36481424609
1506.3865435986281 4060.470375109891
1507.1672955056893 4283.023228203467
1507.9478575348967 4131.696306965572
1508.7282297372512 4351.859982407569
1509.5084121637192 4112.396117035077
1510.2884048652577 4217.5079414986685
1511.0682078927948 4119.905532998028
1511.8478212972423 4109.072486588359
1512.6272451294917 4080.139847431395
1513.4064794404076 4174.0541046275775
1514.1855242808433 4279.2570910668965
1514.9643797016215 4155.108469807208
1515.743045753552 4218.74596504419
1516.5215224874191 4206.461865860083
1517.2998099539836 4012.9584254923197
1518.077908203999 4142.964600109144
1518.8558172881785 4031.4921857914715
1519.633537257234 4252.522532131081
1520.4110681618404 4157.371077319737
1521.1884100526604 4233.870665764102
1521.9655629803365 4125.367184379484
1522.7425269954856 4339.680703774787
1523.5193021487103 4375.517043106764
1524.2958884905856 4149.1089777095785
1525.0722860716687 4206.758734230274
1525.848494942502 4151.527467808372
1526.624515153595 4185.170764698348
1527.4003467554485 4147.545611312633
1528.175989798534 4270.317683791078
1528.9514443333064 4230.173024676349
1529.726710410203 4338.9179224920845
1530.5017880796331 4144.651052664629
1531.276677391992 4216.990301209257
1532.0513783976457 4336.2248756515255
1532.825891146953 4285.131378665737
1533.6002156902414 4297.503213535986
1534.3743520778207 4131.254514936218
1535.1483003599806 4277.70439600018
1535.9220605869923 4325.446702744104
1536.6956328091019 4261.381720454808
1537.4690170765407 4155.353657971197
1538.242213439511 4329.661129639561
1539.015221948208 4277.333333530589
1539.78804265279 4230.616050291101
1540.560675603405 4107.3649310146275
1541.3331208501804 4331.4925536959745
1542.1053784432224 4389.517296243319
1542.8774484326168 4280.438778182285
1543.649330868422 4230.884578077408
1544.4210258006842 4221.13186679833
1545.1925332794308 4172.773434703757
1545.9638533546604 4227.64867516454
1546.7349860763552 4179.144618227886
1547.5059314944829 4471.871628212955
1548.27668965898 4204.251776682717
1549.0472606197673 4294.812485287886
1549.817644426752 4117.013714807075
1550.5878411298072 4336.395253830946
1551.3578507787988 4251.8150120236105
1552.1276734235635 4153.8170651949795
1552.8973091139233 4278.583337123381
1553.6667578996767 4289.484875074083
1554.436019830604 4273.889475757229
1555.20509495646 4227.225136107425
1555.9739833269869 4142.362881331762
1556.7426849919011 4175.399172905071
1557.511200000903 4361.370509655102
1558.2795284036674 4294.555023785599
1559.0476702498509 4240.158228221497
1559.8156255890954 4325.852752487937
1560.5833944710157 4503.196445139839
1561.3509769452048 4255.543833762362
1562.1183730612447 4281.8474801331095
1562.8855828686865 4189.606379392758
1563.6526064170703 4531.835816180518
1564.4194437559127 4436.439537360611
1565.1860949347047 4235.046680672824
1565.9525600029283 4416.542172528889
1566.7188390100328 4499.188320520148
1567.4849320054564 4288.597695362785
1568.250839038612 4258.667792579251
1569.0165601588997 4303.445755926281
1569.7820954156887 4365.995334407207
1570.5474448583373 4274.882999294388
1571.31260853618 4317.827467786576
1572.0775864985299 4168.456386290327
1572.8423787946813 4423.832240096713
1573.6069854739108 4304.223975381785
1574.371406585471 4318.864879597668
1575.1356421785986 4382.358925924505
1575.899692302506 4209.351936501445
1576.6635570063845 4332.664494589566
1577.4272363394157 4210.554018368332
1578.190730350747 4222.62125971286
1578.9540390895163 4314.004515925263
1579.7171626048384 4012.7426355479015
1580.480100945806 4220.145453353099
1581.2428541614918 4157.724513424287
1582.0054223009538 4174.8519657889665
1582.767805413223 4064.796855886189
1583.5300035473156 4133.806344493655
1584.292016752228 4324.834491514211
1585.0538450769309 4339.222821666732
1585.8154885703807 4034.0779175131115
1586.5769472815136 4143.863252374842
1587.3382212592405 4250.577327865236
1588.099310552463 4347.677815832541
1588.8602152100484 4089.944302607159
1589.6209352808564 4246.271367877236
1590.3814708137234 4028.9420097865027
1591.14182185746 4229.516960249628
1591.9019884608679 4146.080014777534
1592.6619706727215 3971.6378107172304
1593.4217685417734 4179.710753279841
1594.1813821167616 4212.640464853472
1594.9408114464022 3865.6184193371582
1595.7000565793933 4117.472455703732
1596.459117564409 4199.910319727418
1597.2179944501113 3926.953846390186
1597.9766872851324 4053.189617026812
1598.735196118092 4181.754352857464
1599.4935209975883 4236.562004850444
1600.2516619721973 4207.522410597622
1601.0096190904787 3987.5788415082156
1601.7673924009723 3966.522342240449
1602.524981952196 3955.3758103520768
1603.2823877926476 3978.6648226378225
1604.0396099708087 3959.848896462049
1604.7966485351371 3809.5618949686623
1605.5535035340745 3977.482148043983
1606.3101750160404 4110.114926376214
1607.0666630294363 3923.1256363101866
1607.822967622642 3850.6664522578503
1608.5790888440224 3974.44619888485
1609.3350267419137 4139.631746972889
1610.0907813646445 4017.1453806117656
1610.8463527605145 3898.9896962256703
1611.601740977805 3967.9712574859855
1612.356946064785 3943.8055595480355
1613.1119680696902 3787.665741560505
1613.8668070407512 3894.762541331621
1614.6214630261748 3744.6345326022906
1615.375936074137 3962.4913029231093
1616.1302262328118 3885.35125672304
1616.8843335503425 3981.8054691709594
1617.638258074854 3731.238899225608
1618.391999854457 3970.4440197647173
1619.1455589372363 3985.5665604382475
1619.8989353712623 3894.112472341386
1620.65212920458 3806.3326174234594
1621.4051404852235 3833.248970309893
1622.1579692611976 3923.3150039188477
1622.9106155804966 3775.725380957593
1623.663079491087 3899.8504647829263
1624.4153610409248 3919.896096210072
1625.1674602779385 3822.0638326092912
1625.9193772500403 3747.5112506120067
1626.6711120051277 4070.9525643290062
1627.4226645910676 3875.112883189725
1628.174035055721 3732.0343077179364
1628.9252234469168 3796.5339779646797
1629.676229812474 3846.655999275526
1630.4270542001905 4063.0731337810894
1631.1776966578382 3778.7726819734853
1631.9281572331747 3838.155695212687
1632.678435973945 3989.6538612948207
1633.4285329278573 3886.412656719178
1634.1784481426203 3612.901726053048
1634.9281816659113 3756.667484171223
1635.677733545388 3956.5327313116513
1636.4271038286934 3913.756289726848
1637.176292563452 3983.679313020167
1637.9252997972635 3928.8246885450435
1638.674125577716 3958.9444207001698
1639.4227699523672 4154.416873391203
1640.171232968767 3734.987270485885
1640.9195146744423 3917.191877369832
1641.6676151168977 4016.602437515473
1642.4155343436178 4012.1807275568754
1643.1632724020765 3909.0035083013804
1643.9108293397167 3981.5054529067515
1644.658205203974 3868.312501579858
1645.4054000422566 4305.39308602442
1646.1524139019566 3909.390345582296
1646.8992468304423 3795.0255201490313
1647.6458988750728 3978.0001348198625
1648.3923700831765 3943.68940056205
1649.1386605020743 3850.1627792816967
1649.8847701790564 4096.227812712045
1650.6306991614038 4014.4351057106637
1651.3764474963682 3976.504263675624
1652.1220152311944 3778.824255902845
1652.867402413096 3995.6432454322835
1653.6126090892776 3922.263236550015
1654.3576353069184 4156.553458086311
1655.1024811131829 3967.9863386096904
1655.8471465552066 3911.420243741595
1656.5916316801213 4134.302018063659
1657.3359365350298 3999.431329237029
1658.0800611670165 3870.1281749674467
1658.824005623148 3927.459527807526
1659.5677699504722 3797.512749583412
1660.3113541960192 3897.281123796029
1661.054758406799 3876.590804308654
1661.7979826297997 3744.6926582673063
1662.5410269119966 3786.8645753225987
1663.283891300338 3834.588260842993
1664.0265758417645 3783.4450459937516
1664.7690805831826 3816.7213367525374
1665.5114055714948 3815.1901414069553
1666.2535508535748 4008.753805246056
1666.9955164762814 3574.6490169744125
1667.7373024864555 3772.7197229137005
1668.478908930916 3818.93546612207
1669.220335856462 3679.588200141826
1669.9615833098778 3657.1234627985928
1670.7026513379296 3691.4303849831476
1671.44353998736 3708.7316905294892
1672.1842493048916 3748.9897548357994
1672.9247793372379 3545.8653431053754
1673.6651301310812 3732.8371944978826
1674.4053017330934 3609.964526082621
1675.1452941899242 3667.8825572558017
1675.885107548207 3271.8447676741152
1676.6247418545518 3313.180768049332
1677.3641971555535 3387.4607515392513
1678.1034734977893 3636.711258977751
1678.8425709278108 3573.7968183542243
1679.5814894921605 3628.3632317532697
1680.320229237359 3523.8528391991485
1681.0587902098978 3638.4921646023795
1681.7971724562685 3476.6594995889945
1682.5353760229264 3330.39346783504
1683.2734009563173 3475.917024116661
1684.0112473028657 3254.430160517347
1684.7489151089794 3449.9672867026493
1685.4864044210462 3480.4351185150044
1686.2237152854377 3139.557381855361
1686.960847748498 3463.8805848541497
1687.6978018565642 3228.524554776132
1688.434577655944 3135.6803582143575
1689.1711751929379 3131.2694056769183
1689.9075945138156 3386.797529413292
1690.6438356648396 3187.1842155497716
1691.3798986922448 2928.216027095938
1692.1157836422499 3144.7103047058
1692.851490561059 3132.605513500652
1693.587019494853 3185.113527059605
1694.3223704897991 2996.008280692052
1695.0575435920364 2912.3065860719516
1695.792538847696 3335.8752148563444
1696.527356302886 3070.830391055079
1697.2619960036936 2944.3711282868608
1697.9964579961907 2874.1389201621214
1698.730742326432 2822.9237720407723
1699.4648490404488 2841.2605136158722
1700.1987781842563 2916.8076295936203
1700.9325298038548 2958.791777354833
1701.6661039452174 3072.7471612732975
1702.3995006543082 2933.0579124614464
1703.1327199770658 3131.7992169738313
1703.865761959416 2823.231463081005
1704.598626647261 3087.187507915485
1705.3313140864866 2759.28645463233
1706.0638243229587 2797.0184406934145
1706.7961574025303 3024.336502644535
1707.528313371029 2808.5553911885245
1708.260292274268 2756.24186748337
1708.9920941580403 2874.3919034312885
1709.7237190681226 2778.0279235823664
1710.4551670502697 2771.6293782743896
1711.18643815022 2756.9409861023682
1711.9175324136959 3054.0968746125654
1712.6484498863938 2734.146758416765
1713.379190614005 2586.788801259563
1714.109754642188 2639.8391336276445
1714.8401420165883 2763.0107548517008
1715.570352782839 3310.3841301226066
1716.3003869865497 2822.1851016810665
1717.0302446733076 2695.9073526161874
1717.7599258886876 2834.036730843601
1718.4894306782444 2927.5806383382574
1719.2187590875183 2576.847890910321
1719.9479111620203 2871.311490974561
1720.6768869472544 2632.8510043384604
1721.4056864887025 2950.339712164539
1722.1343098318284 2903.431213241789
1722.8627570220742 2787.4471635511954
1723.591028104871 2591.6568373690043
1724.3191231256242 2484.863434756571
1725.0470421297232 2708.600643114053
1725.7747851625427 2754.895536629392
1726.5023522694337 2782.957345722719
1727.2297434957363 2814.6193232466658
1727.9569588867635 2427.871535353295
1728.6839984878152 2793.3010294698483
1729.4108623441734 2421.345815867688
1730.1375505011038 2838.1310177296145
1730.8640630038426 2562.2779305014437
1731.5903998976264 2494.2943588998105
1732.316561227657 2670.2657616639394
1733.0425470391274 2539.9296684631126
1733.7683573772065 2678.041840391419
1734.4939922870508 2726.0986458906455
1735.2194518137949 2669.983919677728
1735.9447360025606 2588.4645967934193
1736.669844898439 2630.065405836859
1737.3947785465189 2543.3582414913594
1738.1195369918605 2376.0754818156515
1738.8441202795093 2561.429777486769
1739.5685284544943 2694.091763716037
1740.292761561821 2808.4013631009943
1741.0168196464838 2533.6649654209064
1741.7407027534518 2686.914686798048
1742.464410927687 2675.504939706201
1743.187944214118 2442.4155822114953
1743.9113026576688 2513.1963128117195
1744.634486303241 2560.422797045656
1745.3574951957125 2706.3362314854794
1746.0803293799509 2811.1148461583807
1746.8029889008048 2583.4148985061083
1747.5254738031017 2581.328753418854
1748.2477841316504 2427.9791103351977
1748.969919931249 2464.421168969612
1749.6918812466665 2449.101013522742
1750.4136681226646 2604.102444664353
1751.1352806039777 2587.3861552894837
1751.856718735331 2419.414668416174
1752.5779825614281 2335.059622452478
1753.2990721269507 2620.741365678888
1754.0199874765676 2510.8445917037197
1754.7407286549314 2374.156764900033
1755.4612957066693 2354.0713133881645
1756.1816886763954 2418.0784548937077
1756.9019076087097 2574.9444530286264
1757.6219525481865 2574.5318560247765
1758.3418235393856 2526.0688068986938
1759.061520626854 2539.188994032459
1759.7810438551096 2708.858040883406
1760.5003932686614 2343.2199838104725
1761.2195689119999 2549.7521164603613
1761.938570829594 2676.5391050443313
1762.657399065898 2543.7640328597286
1763.376053665348 2406.295023656629
1764.0945346723602 2329.3656085442567
1764.812842131334 2603.3651047336275
1765.5309760866512 2389.037201528842
1766.2489365826787 2381.737519866429
1766.9667236637597 2377.6946249683515
1767.684337374223 2338.2162745756937
1768.401777758383 2268.7142525703343
1769.1190448605284 2397.76193159804
1769.836138724937 2269.7171427418007
1770.5530593958665 2510.998031578645
1771.2698069175603 2600.389432210413
1771.9863813342326 2585.810710743504
1772.702782690094 2302.131300365827
1773.4190110293293 2569.6792817667756
1774.1350663961111 2453.2583781420713
1774.8509488345844 2439.343246097999
1775.5666583888924 2500.2778932258634
1776.2821951031437 2576.3548513470764
1776.9975590214362 2398.206987076155
1777.7127501878585 2510.3000485636176
1778.4277686464684 2588.21169413414
1779.1426144413108 2632.7366535576793
1779.8572876164162 2534.7335364212117
1780.571788215797 2246.4502228058973
1781.2861162834415 2527.4686863666125
1782.0002718633277 2297.51807359609
1782.7142549994132 2527.6631947529795
1783.4280657356376 2518.7982110252137
1784.141704115922 2301.640109366101
1784.855170184177 2404.4582606638473
1785.5684639842839 2448.3002041347413
1786.2815855601148 2132.307841882126
1786.9945349555237 2420.253285087269
1787.707312214343 2396.1565071542846
1788.4199173803918 2654.1956365677797
1789.132350497468 2332.964413149467
1789.8446116093583 2438.402060047246
1790.556700759822 2316.652879122817
1791.2686179926077 2317.59988136935
1791.9803633514493 2323.4774724431018
1792.6919368800554 2247.7883519286147
1793.4033386221236 2411.9126470618826
1794.1145686213295 2499.508385513069
1794.8256269213307 2437.5219671435625
1795.536513565774 2502.3254819571375
1796.247228598284 2097.463811474954
1796.9577720624693 2195.668276723222
1797.6681440019165 2411.530131484334
1798.3783444602013 2318.5350084676425
1799.0883734808776 2316.6340107601527
1799.7982311074884 2463.729773106044
1800.5079173835475 2392.4090027756056
1801.2174323525633 2359.6097096415333
1801.9267760580187 2358.0089317382785
1802.635948543386 2441.4131846489604
1803.3449498521113 2240.378070738104
1804.0537800276325 2463.5234036299016
1804.7624391133668 2347.472526333134
1805.47092715271 2034.95261192717
1806.1792441890484 2187.160450497093
1806.8873902657433 2463.236895485524
1807.5953654261448 2316.372126690429
1808.3031697135812 2266.5309503757935
1809.0108031713662 2208.297701725691
1809.71826584279 2307.1691541167907
1810.425557771141 2338.6574862148022
1811.1326789996747 2588.3025262212323
1811.839629571632 2265.5164332547997
1812.5464095302468 2122.384764799311
1813.2530189187182 2346.9239204941873
1813.959457780249 2232.748405802761
1814.6657261580076 2361.4167781700326
1815.371824095153 2232.9368746411437
1816.0777516348262 2415.2588343658126
1816.78350882015 1963.254412265962
1817.4890956942272 2074.6636684232785
1818.1945123001533 2275.8064410092124
1818.8997586809928 2342.392766294249
1819.6048348798067 2063.0240749565864
1820.3097409396287 2228.454062129889
1821.0144769034796 2430.8822167443914
1821.7190428143622 2335.4893079768244
1822.423438715261 2292.7655637631856
1823.1276646491478 2236.4433126343165
1823.8317206589727 2319.4135578743308
1824.5356067876692 2358.6504903563828
1825.2393230781581 2149.09229263892
1825.942869573335 2100.800741209334
1826.646246316086 2184.487080958352
1827.3494533492758 2268.227185687
1828.052490715756 2283.913043286436
1828.7553584583547 2266.0073285406916
1829.458056619891 2323.902237120375
1830.1605852431585 2232.062890342342
1830.8629443709433 2123.4109184626745
1831.5651340460063 2166.437450108966
1832.2671543110919 2056.2035038237127
1832.9690052089318 2289.254206956358
1833.6706867822395 2096.5576817027627
1834.3721990737104 2270.3358379018696
1835.0735421260233 2224.915035843531
1835.774715981841 2180.640999848199
1836.4757206838058 2268.0598337298325
1837.1765562745459 2228.2116214147936
1837.8772227966747 2007.845735231665
1838.5777202927839 2180.705980688655
1839.2780488054523 2120.0770809593773
1839.9782083772352 2193.8378388981123
1840.6781990506806 2327.2348487839604
1841.378020868313 2149.6629249669822
1842.0776738726418 2190.551040849686
1842.777158106157 2070.1966961623375
1843.4764736113375 2117.1876419354735
1844.1756204306403 2214.3656352769813
1844.8745986065078 2210.206988507681
1845.5734081813607 2013.72196816189
1846.2720491976124 2025.2214143151446
1846.970521697649 1998.9509135723772
1847.6688257238511 2176.3962541149695
1848.3669613185684 2256.5953116066767
1849.0649285241452 2024.1835647606463
1849.7627273829057 2205.362785231044
1850.460357937156 2162.4670085280422
1851.1578202291857 1925.3151715015788
1851.8551143012664 2172.6608718502052
1852.5522401956569 2085.440499558067
1853.2491979545957 2238.027225062641
1853.9459876203055 2000.944169109923
1854.6426092349902 2011.3179767419854
1855.3390628408451 2085.7728771486036
1856.0353484800362 2249.3857712675094
1856.7314661947203 2175.0841513764035
1857.4274160270397 2019.5161160857897
1858.123198019115 2079.053913509603
1858.8188122130487 2015.7948695622345
1859.5142586509319 2008.7184257263011
1860.209537374838 2019.8184007171512
1860.9046484268183 2207.8716907195467
1861.599591848917 2226.035454088058
1862.294367683151 1964.4624185192656
1862.988975971528 2027.61729479891
1863.6834167560355 2085.6188637229434
1864.3776900786452 2229.877601430795
1865.0717959813119 2008.4190978747029
1865.7657345059724 2040.3821431327547
1866.4595056945564 2105.597812836881
1867.1531095889586 2196.3079871395503
1867.846546231076 1912.3334291512172
1868.5398156627743 2222.707214795005
1869.2329179259123 1983.010058138879
1869.9258530623283 2190.6152479093294
1870.618621113843 2028.4783457063575
1871.3112221222636 1932.7097272879741
1872.0036561293764 2051.909401304582
1872.695923176956 2006.8800290659485
1873.3880233067594 2233.564031486605
1874.0799565605212 1918.3463117475912
1874.7717229799673 2082.798895866246
1875.4633226068036 2201.7014080895124
1876.1547554827175 2174.3640375666237
1876.8460216493859 2109.021038568817
1877.5371211484617 2095.7154075260614
1878.2280540215852 2203.5502816138896
1878.9188203103804 1875.1115598199249
1879.6094200564548 2010.352691492474
1880.299853301396 1904.622720263253
1880.9901200867826 1995.2359520197442
1881.6802204541673 2085.963145194576
1882.3701544450942 2120.366346110686
1883.059922101087 1950.267414081492
1883.7495234636517 2170.5326087409076
1884.4389585742792 1985.023731620668
1885.1282274744517 1932.8932471575226
1885.8173302056166 2438.845617001918
1886.506266809225 2109.456559147119
1887.195037326701 1756.4343680763518
1887.8836417994517 2006.0424695344875
1888.5720802688702 2253.3694165306533
1889.260352776333 2064.4635879940074
1889.9484593632042 2084.8582926898425
1890.63640007082 1921.6154170255274
1891.3241749405151 1993.1327899282642
1892.0117840135954 1991.1895456295265
1892.6992273313572 2041.3634723286675
1893.3865049350788 1860.5294657977277
1894.0736168660223 2285.866309452479
1894.7605631654333 2160.6545768410747
1895.4473438745408 1793.6289872896116
1896.133959034556 2278.2108638665886
1896.820408686679 2210.1545253226727
1897.506692872088 2076.9306501503
1898.192811631945 2047.4066804878705
1898.8787650073991 2011.5429219609464
1899.5645530395832 2136.706740506875
1900.2501757696118 2129.0929194435166
1900.9356332385796 1821.7971049703683
1901.620925487574 2225.803126057894
1902.3060525576602 2069.0213847253817
1902.9910144898859 2061.951964123089
1903.6758113252872 1883.1540451523215
1904.3604431048789 2019.8846430479869
1905.0449098696663 2083.157741511626
1905.7292116606295 1881.1407849587308
1906.4133485187394 1969.9746037206337
1907.0973204849488 1729.8625930826202
1907.7811276001976 1875.3927296621696
1908.4647699053967 1943.2956865099509
1909.1482474414588 1466.5463730754916
1909.8315602492694 1809.3928502307622
1910.5147083696957 2162.8741061570045
1911.1976918436012 2024.0067410539227
1911.880510711815 1903.215611704157
1912.5631650151681 2055.6640309269496
1913.2456547944657 2001.8511064941722
1913.927980090495 1901.8230544998864
1914.6101409440362 1966.8473534544992
1915.2921373958416 2052.3009189775394
1915.9739694866603 1990.0401893691164
1916.655637257214 2121.947360708905
1917.3371407482136 1965.2804496250058
1918.0184800003572 2198.3312797590124
1918.6996550543154 2120.2090415850753
1919.3806659507554 1950.9803673871986
1920.0615127303208 1898.3784508802212
1920.7421954336423 2084.300420004149
1921.4227141013343 2146.76382584653
1922.103068773993 1949.8650210358785
1922.783259492202 2121.1505534086073
1923.4632862965227 1978.1043416306634
1924.1431492275078 1973.752863847576
1924.8228483256917 1849.273458731205
1925.5023836315922 1824.5036787353388
1926.1817551857057 1709.2335667237926
1926.8609630285227 2124.4335555983193
1927.5400072005123 2067.342648609716
1928.218887742125 1842.7584322666607
1928.8976046938005 1808.9502256721487
1929.5761580959588 2103.3718085059563
1930.2545479890086 1938.6117893023898
1930.9327744133352 1857.2145103823536
1931.6108374093164 1969.4944526750726
1932.2887370173066 2139.503152875768
1932.9664732776473 2119.356735583641
1933.6440462306673 2099.0866270962933
1934.3214559166754 1895.3241135574358
1934.9987023759659 2043.042537608569
1935.675785648813 1859.5251714854646
1936.3527057754836 1753.3706424416316
1937.029462796223 1803.147995591773
1937.70605675126 1853.073915511089
1938.3824876808085 1845.6071693620756
1939.058755625072 1841.9731320206386
1939.7348606242267 1992.808280747345
1940.4108027184448 2000.8325532316462
1941.0865819478713 2049.00693648162
1941.7621983526478 1830.3668530281925
1942.4376519728921 1717.5199100586397
1943.1129428487038 1799.9922265782084
1943.7880710201734 2051.5499196885808
1944.4630365273733 2016.2774837479167
1945.1378394103576 1828.8768923747418
1945.8124797091714 2095.5213810505584
1946.4869574638324 1689.859043301029
1947.161272714353 1814.9472926066464
1947.8354255007234 1858.1442168217625
1948.5094158629272 1816.33316768798
1949.1832438409183 1951.4639350808218
1949.8569094746435 2020.0221618886128
1950.530412804037 2068.3459458881816
1951.2037538690092 2112.869849295658
1951.8769327094578 1896.2887160161274
1952.5499493652678 1710.3760331516055
1953.222803876306 2032.6766325579106
1953.895496282421 1904.8003728714552
1954.5680266234522 1883.7628142611254
1955.2403949392155 1971.7644804466727
1955.9126012695142 1760.4416342594516
1956.5846456541403 1835.7188073986788
1957.2565281328643 1701.183480886562
1957.9282487454457 2032.5959785956263
1958.5998075316202 2054.5958324251174
1959.27120453112 1908.4041397851893
1959.9424397836501 1893.2737411540693
1960.613513328908 1888.9254712544566
1961.2844252065697 2077.7927004909407
1961.9551754563017 1650.4157475486613
1962.6257641177453 1772.4566706666592
1963.29619123054 1769.7367276372909
1963.966456834296 1881.0284632200007
1964.6365609686181 1732.540474926181
1965.306503673086 1918.6554044564014
1965.976284987275 1754.1441243749505
1966.645904950734 1877.2760158376736
1967.315363603002 1670.052746391276
1967.9846609836077 1855.2799857378268
1968.6537971320486 1766.153656360399
1969.3227720878222 1805.2517896548022
1969.9915858904042 1839.4034061793518
1970.660238579252 1943.7655204155144
1971.3287301938108 1838.7715192291137
1971.997060773514 1808.0309895167702
1972.665230357772 1670.6048924266427
1973.3332389859843 1801.54893844078
1974.0010866975335 1673.193595711295
1974.6687735317864 1796.6572073006544
1975.3362995280932 1888.5648911375379
1976.003664725793 1854.3550683201818
1976.6708691642052 1586.2831058133631
1977.3379128826364 1761.4926269933646
1978.004795920373 1875.0813134836433
1978.6715183166925 1729.7082363273307
1979.3380801108524 1584.1638532877976
1980.0044813420973 1779.603594074557
1980.6707220496555 1615.0943395957033
1981.3368022727373 1777.0814790219279
1982.0027220505417 1862.4982717605096
1982.66848142225 1446.9599948178136
1983.3340804270283 1606.5775299932968
1983.999519104027 1781.607299573297
1984.6647974923835 1807.4956482406687
1985.329915631215 1694.7992957035506
1985.99487355963 1822.130807998897
1986.6596713167146 2082.468327627347
1987.3243089415428 1760.9811567491117
1987.9887864731754 2013.528896098409
1988.6531039506553 1701.4367782461127
1989.3172614130071 1699.8613281118037
1989.9812588992481 1698.3099121360005
1990.645096448372 1472.199424266434
1991.3087740993633 1814.7686558692162
1991.9722918911848 1813.399589746486
1992.635649862792 1857.6990328539425
1993.2988480531185 1947.8130550293185
1993.9618865010852 2117.448075218158
1994.6247652455968 1767.5948575116267
1995.287484325545 1585.1547985278323
1995.9500437798033 1687.911143034514
1996.6124436472292 1844.0615686256017
1997.2746839666706 1805.3924918533
1997.936764776954 1679.6573635357977
1998.598686116895 1796.4361074469537
1999.2604480252903 1920.6310309732526
1999.9220505409212 1813.9618145459403
2000.5834937025593 1588.7182907715282
2001.2447775489582 1877.4815742380129
2001.9059021188514 1801.9894668742759
2002.5668674509616 1649.9074747407708
2003.2276735839987 1671.8172295990905
2003.8883205566508 2016.8464742949386
2004.5488084075987 1716.5017530367227
2005.2091371755014 1702.1696415509596
2005.8693068990033 1638.2241780363163
2006.5293176167397 1830.087023916264
2007.1891693673224 1705.2774690981673
2007.848862189354 1584.5363871764685
2008.5083961214223 1771.1167868138248
2009.1677712020955 1567.2680646958156
2009.8269874699254 1597.2848888609992
2010.4860449634598 1555.5470480695112
2011.1449437212177 1513.7914981444414
2011.8036837817108 1971.6425467570466
2012.4622651834325 1887.616847191303
2013.1206879648653 1842.2099271088057
2013.7789521644736 1931.1049004435692
2014.4370578207036 1473.4794692695193
2015.0950049719922 1697.929301935518
2015.7527936567585 1843.908863245487
2016.4104239134067 1704.012186911687
2017.067895780323 1949.7367123108459
2017.725209295886 1974.7158752413095
2018.3823644984514 1999.7165344712746
2019.0393614263648 1751.771728696184
2019.6962001179545 1667.9882120680918
2020.3528806115355 1849.1672258817277
2021.0094029454067 1779.1577191339886
2021.6657671578487 1539.1832284899117
2022.321973287133 1827.973567792901
2022.9780213715148 1532.8989317856062
2023.6339114492293 1725.0857010329462
2024.2896435585026 1717.069291645778
2024.9452177375442 1799.5077025011044
2025.600634024544 1898.4669570211306
2026.2558924576842 1849.8783874813391
2026.9109930751292 1894.1658037376303
2027.565935915025 1681.8192908087217
2028.2207210155066 1893.0849023765645
2028.8753484146964 1862.5848445126535
2029.529818150695 1848.7867838458842
2030.1841302615903 1834.825052617961
2030.8382847854573 1692.3132618303614
2031.4922817603601 1716.568779355388
2032.1461212243357 1762.5914604154411
2032.7998032154192 1656.0808369950657
2033.4533277716218 1723.6639258752675
2034.1066949309443 1619.7869544068787
2034.7599047313688 1486.9913817122988
2035.4129572108704 1756.6734086220918
2036.0658524074006 1820.7740607497822
2036.7185903589016 1865.152018652017
2037.3711711032956 1778.4203430694524
2038.023594678496 1711.5503189100818
2038.675861122394 1581.7325377701093
2039.3279704728757 1847.8783971475477
2039.9799227678031 1647.3683738783734
2040.6317180450278 1709.321732439513
2041.2833563423865 1725.9552046705921
2041.9348376977014 1993.9034579221618
2042.5861621487784 1876.1383267820543
2043.2373297334088 1607.490376118109
2043.8883404893695 1871.438808552947
2044.5391944544208 1783.9355714625585
2045.1898916663158 1803.4031192937462
2045.8404321627804 1992.7813028983414
2046.4908159815368 1793.7826094877055
2047.1410431602853 1500.2751994957437
2047.7911137367173 1612.0715079980735
2048.441027748504 1794.5515005025252
2049.090785233302 1439.7313201240927
2049.7403862287592 1625.5779531151788
2050.389830772503 1876.7382514656515
2051.0391189021466 1583.290815806094
2051.688250655294 1670.692327135636
2052.337226069527 1608.7073246689165
2052.986045182417 1784.2606144932827
2053.634708031521 1389.1299278823055
2054.283214654375 1694.6642973053063
2054.931565088511 1321.5405984734602
2055.579759371436 1559.8472598921753
2056.2277975406523 1751.0126547759235
2056.8756796336384 1871.0619330070706
2057.5234056878617 1486.2714216510026
2058.1709757407752 1730.404826548039
2058.8183898298194 1733.236271477511
2059.465647992416 1781.190680579431
2060.1127502659747 1877.7468162972837
2060.759696687888 1549.322980670483
2061.4064872955405 1821.4893550398606
2062.053122126292 1893.1761543597397
2062.699601217497 1782.47525298155
2063.345924606485 1671.8350226736843
2063.992092330587 1614.542452353449
2064.638104427102 1675.3019872991226
2065.283960933324 1837.1931126226657
2065.92966188653 1680.091247034329
2066.5752073239855 1813.7527739841648
2067.2205972829397 1647.4390723695778
2067.86583180062 1629.9710949592861
2068.5109109142522 1750.1771713478115
2069.15583466104 1661.633718681585
2069.8006030781708 1573.009556766678
2070.445216202821 1382.3236268499354
2071.089674072153 1738.590062697429
2071.7339767233116 2008.5112933794255
2072.3781241934303 1669.44638842573
2073.0221165196253 1800.3806275408556
2073.6659537390024 1651.7040491820717
2074.3096358886505 1741.7542808317728
2074.953163005637 1610.1621078516268
2075.596535127028 1406.3734664667586
2076.2397522898664 1623.645864133717
2076.882814531182 1699.153617694278
2077.5257218879924 1689.9286622795985
2078.1684743973 1556.8001785773192
2078.8110720960885 1401.6736643714962
2079.453515021336 1539.1749002449362
2080.095803209997 1676.794005714502
2080.7379366990135 1740.9292304323928
2081.37991552532 1813.1384552412692
2082.0217397258275 1626.4540590310191
2082.6634093374414 1454.5704067808242
2083.3049243970418 1609.756134903973
2083.9462849415067 1611.9101031590167
2084.587491007689 1641.8815437239853
2085.2285426324324 1735.522314915169
2085.869439852564 1578.6747109141602
2086.510182704902 1637.870603592899
2087.1507712262483 1568.6939013722772
2087.791205453381 1371.9342056489072
2088.4314854230743 1759.1732946026161
2089.0716111720867 1784.9828837556256
2089.7115827371617 1854.9832667441842
2090.351400155023 1925.1635212102774
2090.991063462385 1648.8654368572854
2091.6305726959527 1715.1022997496534
2092.2699278924047 1781.5558818642537
2092.9091290884153 1551.218653898155
2093.548176320641 1549.3998920506658
2094.187069625721 1668.0525964350902
2094.8258090402887 1520.0180447974315
2095.464394600951 1621.3188673863847
2096.102826344313 1691.1645245305942
2096.741104306955 1631.9583399398093
2097.379228525453 1554.9835905427724
2098.017199036358 1427.2081581297268
2098.6550158762147 1768.224895562756
2099.2926790815527 1704.0837190886184
2099.9301886888825 1650.405455526789
2100.5675447347076 1584.7648401208185
2101.2047472555114 1771.1009363787211
2101.841796287761 1586.946455683675
2102.47869186792 1632.5323339545278
2103.1154340324265 1453.7968127181257
2103.752022817709 1563.5609922725325
2104.388458260184 1417.70511067476
2105.024740396251 1581.3116301810808
2105.660869262292 1465.00642437244
2106.296844894685 1577.734012997487
2106.93266732978 1670.436714603374
2107.5683366039284 1610.191267463223
2108.2038527534532 1680.4650513237605
2108.8392158146726 1665.752807609005
2109.4744258238843 1493.6511024197039
2110.1094828173755 1447.4418170042918
2110.744386831422 1486.6575038192143
2111.3791379022787 1525.9998009772316
2112.01373606619 1739.3673951196743
2112.648181359389 1773.1094464509383
2113.28247381809 1754.8377433250728
2113.916613478492 1685.5326084672731
2114.550600376786 1615.9692689963993
2115.1844345491445 1548.5790123451202
2115.818116031729 1366.5803351564973
2116.451644860679 1598.195611675424
2117.085021072133 1343.7709087883584
2117.718244702204 1480.4901419642465
2118.3513157869984 1512.349275402279
2118.984234362604 1355.9441624396918
2119.617000465092 1566.2422224142438
2120.249614130529 1682.5648278097935
2120.8820753949585 1584.643188051235
2121.5143842944162 1469.4475653751174
2122.14654086492 1556.6769987131154
2122.7785451424734 1466.6845793190519
2123.4103971630702 1376.6723786756495
2124.042096962681 1558.1465519125488
2124.6736445772767 1613.2107420754933
2125.305040042802 1398.0847409167238
2125.936283395191 1527.3430676746975
2126.567374670365 1742.2956451440764
2127.198313904233 1467.9929193810444
2127.8291011326855 1489.4696664248243
2128.4597363916037 1510.814346276632
2129.0902197168507 1377.862073879452
2129.720551144279 1466.0375105346334
2130.3507307097225 1788.3185995969538
2130.980758449008 1772.0235277692377
2131.6106343979427 1486.334041769214
2132.2403585923203 1740.3409767629933
2132.8699310679276 1738.717093516591
2133.499351860526 1640.921813579614
2134.1286210058715 1640.4698493843866
2134.7577385397053 1651.9359945797828
2135.3867044977487 1663.4909523015801
2136.0155189157176 1875.9927981600486
2136.644181829308 1745.80730219305
2137.2726932742025 1605.5162853506533
2137.901053286074 1733.469301806636
2138.5292619005777 1450.0169991279606
2139.1573191533535 1534.2026717279673
2139.7852250800315 1555.7035489731577
2140.4129797162295 1618.8058759435512
2141.0405830975433 1367.1198959312965
2141.6680352595613 1400.5741942338923
2142.2953362378576 1434.1085274058748
2142.9224860679915 1473.406402882289
2143.549484785508 1508.9923537748623
2144.1763324259373 1573.752360739023
2144.803029024799 1475.1441161982752
2145.429574617594 1523.388404737489
2146.0559692398165 1594.4578979988119
2146.682212926942 1387.3415506860417
2147.308305714432 1538.2488820832464
2147.9342476377333 1779.5552755160595
2148.5600387322847 1844.2217019569994
2149.185679033506 1701.4539379158862
2149.8111685768017 1413.3553459839545
2150.4365073975678 1404.2245599901196
2151.061695531187 1510.0909731408588
2151.686733013021 1663.5615265226104
2152.311619878423 1596.2208279427216
2152.9363561627342 1568.444748508478
2153.560941901278 1308.6198463432165
2154.1853771293663 1504.7737781252297
2154.809661882293 1538.0673030810333
2155.433796195348 1522.3949302488136
2156.0577801037944 1506.5119325424062
2156.681613642895 1619.032243665905
2157.3052968478896 1455.0136705376938
2157.928829754006 1624.1017940281376
2158.552212396462 1627.3258259659938
2159.1754448104566 1513.4793141860598
2159.7985270311783 1389.3543816424303
2160.4214590938027 1303.899810209346
2161.0442410334927 1231.3542372930242
2161.6668728853874 1348.6399030066027
2162.289354684628 1466.1921205556944
2162.911686466332 1565.8634445505038
2163.533868265602 1480.5030819223177
2164.1559001175337 1480.4811099412473
2164.7777820572046 1480.3958580688573
2165.399514119681 1372.5103759482565
2166.021096340013 1443.7301346260324
2166.6425287532384 1581.402792913083
2167.263811394385 1658.2308000721362
2167.8849442984574 1735.3327588860661
2168.505927500455 1538.9442614726588
2169.126761035366 1568.1301866020801
2169.7474449381552 1350.5082790026956
2170.367979243778 1184.7745640782412
2170.9883639871823 1739.4606581908465
2171.608599203293 1344.2104269792299
2172.2286849270276 1773.1533576557788
2172.8486211932886 1891.3153906104083
2173.4684080369625 1655.2723191666926
2174.0880454929265 1406.694040600094
2174.7075335960417 1305.4124020047584
2175.3268723811543 1603.2988101989256
2175.9460618831 1377.5532174137657
2176.565102136701 1525.182318571609
2177.1839931767627 1495.9832069829645
2177.802735038078 1466.7284135755158
2178.421327755432 1359.5158495792855
2179.0397713635866 1406.6187469771253
2179.658065897298 1583.255154665317
2180.276211391305 1694.7766050192863
2180.8942078803357 1514.8202275439708
2181.5120553991 1485.7352701249495
2182.129753982299 1282.232620071094
2182.7473036646206 1537.3814291650976
2183.3647044807367 1607.6841905738802
2183.9819564653044 1578.6429985194109
2184.599059652968 1549.5866783513372
2185.216014078367 1569.0357765280733
2185.832819776113 1585.1206734018524
2186.4494767808137 1601.1530547982256
2187.065985127063 1472.936108718333
2187.682344849436 1521.7944061865014
2188.298555982501 1523.149395736497
2188.9146185608097 1437.5528920702804
2189.530532618901 1649.235196110824
2190.1462981912937 1747.0806331702927
2190.761915312507 1563.52508794781
2191.377384017036 1296.6569612275632
2191.9927043393654 1385.093015625595
2192.6078763139667 1090.393348036101
2193.2228999753006 1258.774763087895
2193.837775357808 1427.518483895803
2194.452502495922 1349.6076827952445
2195.0670814240602 1594.8088345371057
2195.6815121766285 1329.0355624512877
2196.2957947880186 1292.6274090765269
2196.9099292926057 1256.1502572778695
2197.523915724758 1609.5399935830849
2198.137754118825 1481.8257807338007
2198.7514445091456 1397.3117918677065
2199.3649869300443 1312.666197974617
2199.9783814158327 1687.2529384777404
2200.5916280008096 1690.6988984686818
2201.2047267192593 1695.576396869341
2201.8176776054515 1608.9634600488641
2202.430480693649 1625.593438675503
2203.0431360180955 1642.2889976418821
2203.6556436130195 1562.3149373583942
2204.268003512645 1528.8786267238058
2204.8802157511727 1495.4196495340177
2205.492280362796 1789.7559167725944
2206.1041973816937 1572.5835565157672
2206.715966842032 1451.5097169079286
2207.3275887779655 1519.562648233769
2207.93906322363 1503.2958707531998
2208.550390213153 1568.4140167152514
2209.1615697806465 1643.2703404424537
2209.7726019602105 1445.8403297867849
2210.3834867859277 1372.0487823824365
2210.9942242918787 1303.6254089960887
2211.6048145121167 1459.6166283327389
2212.2152574806914 1814.9445893536533
2212.825553231638 1367.5347461979945
2213.435701798975 1876.0272258886023
2214.045703216707 1455.3720333624528
2214.655557518832 1160.413409640398
2215.2652647393297 1070.7170218314736
2215.874824912169 1147.0454429778788
2216.4842380713 1567.5139661412252
2217.09350425067 1330.459562368109
2217.7026234842033 1676.8489904329886
2218.311595805819 1596.2404253802147
2218.9204212494133 1453.9506365406437
2219.52909984888 1528.5133905889138
2220.137631638092 1623.1602332696734
2220.7460166509154 1717.9001216485547
2221.354254921198 1518.805506367397
2221.9623464827764 1587.6758043150871
2222.5702913694713 1541.7422994428503
2223.178089615096 1636.6372598594883
2223.7857412534486 1440.992446519097
2224.39324631831 1155.6618796937687
2225.000604843457 1228.795467895859
2225.607816862641 1385.7024054057658
2226.214882409611 1542.7894445883933
2226.8218015180973 1655.2098784830803
2227.4285742218217 1557.95435602326
2228.0352005544864 1435.87969965215
2228.6416805497847 1300.5670963124137
2229.248014241399 1489.5750198407623
2229.8542016629945 1268.6006182634585
2230.460242848223 1488.2747396428445
2231.0661378307304 1394.0905569294687
2231.671886644139 1299.8342623765516
2232.277489322065 1348.5916803532753
2232.8829458981127 1173.5494538010046
2233.48825640587 1484.15839654629
2234.0934208789095 1835.9393605288583
2234.6984393507955 1723.5528849977338
2235.3033118550793 1380.7499454597348
2235.9080384252975 1386.1353855985394
2236.5126190949723 1295.231717703658
2237.1170538976166 1334.252412372916
2237.721342866729 1063.3753871287468
2238.32548603579 1291.0707791710074
2238.9294834382763 1407.8146134180445
2239.533335107646 1609.7381055221242
2240.1370410773434 1351.3631757713054
2240.740601380803 1171.852148526283
2241.3440160514474 1557.7081057129362
2241.9472851226783 1773.6466605186142
2242.550408627896 1367.4836371331287
2243.1533866004793 1638.1713063700122
2243.756219073799 1440.580618627717
2244.3589060812064 1325.2869351023014
2244.961447656049 1339.763269510423
2245.5638438316564 1512.4516180812793
2246.166094641343 1553.8284685302767
2246.7682001184166 1487.2167926388215
2247.3701602961664 1324.1421160188966
2247.971975207871 1577.708495737024
2248.5736448867974 1475.2700301258317
2249.175169366197 1356.2219262452604
2249.7765486793123 1440.7340539277302
2250.3777828593684 1502.952464718254
2250.9788719395783 1413.1579733048611
2251.579815953146 1317.9360552512424
2252.1806149332606 1222.5284198214426
2252.781268913097 1418.8828088318894
2253.381777925817 1340.5532272187386
2253.9821420045737 1501.3287408536762
2254.5823611825035 1422.9836008933255
2255.1824354927303 1510.721397303549
2255.782364968365 1320.0130439586317
2256.38214964251 1566.02493695091
2256.9817895482483 1336.9282708495298
2257.5812847186553 1330.4608179410966
2258.180635186791 1220.35989596224
2258.779840985704 1394.3193345541463
2259.37890214843 1425.636581448028
2259.97781870799 1636.2890294544131
2260.5765906973957 1538.2493839841727
2261.175218149645 1687.5141241141446
2261.773701097718 1417.1261480311389
2262.3720395745895 1255.073444516965
2262.970233613216 1247.0234523767388
2263.568283246548 1466.0271639658445
2264.1661885075137 1235.2836164871258
2264.763949429038 1304.393168353106
2265.3615660440246 1513.1738963581142
2265.959038385374 1271.2854818939286
2266.5563664859637 1586.7438538224785
2267.153550378669 1648.036602071998
2267.7505900963424 1709.5365585759823
2268.3474856718312 1432.3217702021793
2268.9442371379664 1365.1054089945223
2269.5408445275643 1474.8870437999371
2270.1373078734377 1580.359318204018
2270.7336272083758 1294.4690772200777
2271.32980256516 1453.5603519909787
2271.925833976562 1458.1290843584047
2272.5217214753357 1714.3156605856407
2273.117465094223 1418.0471410475877
2273.7130648659586 1244.1713256287571
2274.308520823257 1363.8852547548902
2274.903832998827 1282.8014791321466
2275.4990014253563 1201.5493613264366
2276.094026135528 1451.1770770581304
2276.6889071620117 1264.039916826134
2277.2836445374614 1435.2187257768346
2277.878238294519 1470.4351228375597
2278.472688465812 1319.0316999732318
2279.066995083962 1616.0100468318392
2279.6611581815705 1436.5122027510918
2280.255177791232 1352.226515283972
2280.8490539455233 1489.9876249479078
2281.442786677013 1628.0661649481335
2282.0363760182554 1481.7448030696664
2282.6298220017943 1294.747693108256
2283.223124660155 1433.3283897883716
2283.816284025859 1383.409678643145
2284.4093001314086 1613.1709305133575
2285.002173009292 1396.0236610592156
2285.5949026919952 1535.5142245483771
2286.1874892119777 1466.716700832027
2286.7799326016993 1338.8245274016228
2287.3722328936 1210.5704707855793
2287.964390120109 1208.6137058106256
2288.556404313642 1390.7979709343074
2289.1482755066027 1563.7588794740939
2289.7400037313873 1494.0428519403572
2290.3315890203703 1185.8340743688732
2290.9230314059205 1458.4906666214702
2291.5143309203904 1467.600912500374
2292.1054875961236 1266.3344114321246
2292.6965014654506 1596.969885230607
2293.287372560684 1332.2006390937254
2293.878100914131 1297.889374296181
2294.468686558086 1263.5466264648765
2295.059129524827 1400.142959948936
2295.649429846617 1597.5370248311572
2296.239587555716 1307.5296957880742
2296.8296026843636 1422.151923613289
2297.419475264791 1409.9428635213592
2298.0092053292137 1397.6235688186373
2298.598792909839 1566.792715726386
2299.1882380388597 1310.2046048186055
2299.777540748455 1652.4305988740332
2300.3667010707904 1534.8403496016795
2300.9557190380256 1550.1781368954346
2301.544594682302 1822.3020668093136
2302.1333280357503 1822.4649241813117
2302.721919130485 1822.6605774690372
2303.3103679986198 1679.0581737198033
2303.898674672242 1670.5860094449695
2304.486839183437 1576.9501760249484
2305.0748615642697 1483.3365151473392
2305.6627418468015 1346.1153430581574
2306.2504800630704 1318.5349984555642
2306.8380762451143 1345.9168993909902
2307.425530424949 1399.274985177641
2308.012842634582 1452.7446413176801
2308.6000129060103 1715.6594180779982
2309.187041271214 1923.9413093562302
2309.773927762164 1777.3480364533073
2310.3606724108213 1630.4567750392357
2310.9472752491274 1211.7919694400614
2311.5337363090184 1392.8541542275668
2312.120055622414 1451.793093044456
2312.706233221221 1386.5097531347242
2313.2922691373424 1537.3313575667614
2313.8781634026564 1295.6016515251197
2314.463916049037 1409.6866954080695
2315.049527108342 1436.045396654175
2315.6349966124235 1707.7554995942744
2316.2203245931123 1652.0491112050477
2316.8055110822315 1243.0258177607006
2317.3905561115935 1016.43338509204
2317.9754597129977 1182.9560293811667
2318.560221918229 1161.1037145377998
2319.1448427590603 1139.227100822459
2319.729322267256 1321.4774252630011
2320.313660474563 1293.2038616247023
2320.8978574127195 1418.83610897529
2321.481913113452 1544.8715977658626
2322.0658276084705 1243.3712661792415
2322.6496009294806 1367.0972958963798
2323.233233108165 1593.2434129827275
2323.8167241762058 1463.1211440558316
2324.4000741652617 1493.6436518696307
2324.983283106987 1483.8238711183458
2325.5663510330232 1673.9953729220929
2326.1492779749933 1446.8207706791384
2326.7320639645204 1672.379487317942
2327.3147090332004 1275.6799833096845
2327.897213212629 1364.3868647608315
2328.4795765343843 1453.1120150424872
2329.0617990300307 1457.3872721888615
2329.643880731124 1783.028187649176
2330.22582166921 1356.055759686673
2330.807621875816 1756.786963841322
2331.3892813824623 1129.3692741673776
2331.9708002206517 1310.2471217822356
2332.5521784218818 1535.7135288666952
2333.133416017634 1287.3823922138201
2333.7145130393765 1338.0965323177215
2334.295469518571 1653.0216823546943
2334.876285486658 1554.1977373981204
2335.456960975076 1584.9461193962256
2336.037496015242 1615.7906848973817
2336.6178906385667 1403.7263821147567
2337.198144876451 1389.089350249148
2337.778258760278 1374.4260758420444
2338.3582323214214 1180.2591236786066
2338.938065591243 1418.8847423925763
2339.517758601087 1430.800779032027
2340.0973113822965 1442.68573605943
2340.676723966193 1499.3928218841966
2341.255996384094 1364.5191332322754
2341.835128667295 1575.0499489517858
2342.4141208470883 1595.6827855994175
2342.992972954751 1450.0941621969198
2343.5716850215467 1278.1889480958666
2344.1502570787306 977.4806095388427
2344.7286891575386 1185.1026691975246
2345.3069812892045 1306.0932908344778
2345.885133504944 1427.1888426002267
2346.4631458359618 1436.9275234747533
2347.04101831345 1141.6790913941295
2347.6187509685915 1349.8606326744543
2348.196343832553 1406.5009058619712
2348.7737969364935 1484.1598390241986
2349.351110311558 1238.8142357430481
2349.9282839888765 1064.8495567974928
2350.5053179995757 1195.0287116866616
2351.0822123747585 1160.9246104534445
2351.658967145526 1075.1529151221005
2352.2355823429643 989.299852380356
2352.812057998144 1356.9942710506405
2353.3883941421263 956.0517405559165
2353.9645908059647 1192.6619588884641
2354.540648020693 1426.2934768957325
2355.116565817336 1576.757570204925
2355.6923442269126 1727.5707487806012
2356.2679832804224 1568.7517458446018
2356.8434830088518 1098.3760698948695
2357.41884344318 1143.7566129493885
2357.994064614377 1151.9742416280817
