#exp_cfg={"servo_angle": 0.0, "laser_lim": 100.0, "servo_angle_to": 18.0, "laser_wup": 0.0, "bt_dev": "EnSpectr-25AE3", "laser_wdn_max": 0.0, "frames": 10.0, "servo_used": 0, "servo_calib_use": 0, "laser_wdn_min": 0.0, "servo_pix_from": 90.0, "cooler_tout": 300.0, "servo_angle_from": 0.0, "servo_calib": "[-1.9174921013161362e-09, 3.9322238269163779e-05, -0.27385609119055809, 653.59552119713567]", "laser_autoctl": 0, "servo_pix_to": 3682.0, "laser_pw": 100.0, "cooler_on": 0, "laser_volt": 4.0, "cooler_autoctl": 0, "cooler_curr": 70.0, "cooler_startup": 10.0, "laser_fixed_pw": 0, "gain": 1.3, "offset": 2.53059635486, "servo_calib_degree": 3.0, "laser_curr": 55.0, "shutter": 8200.0, "servo_calib_step": 1.0, "laser_fixed_curr": 0, "exp": 2000.0, "ccd_volt": 4.7, "bt_addr": "00:06:66:62:5A:E3", "servo_delay": 500.0, "laser_autooff": 1}
#proc_cfg={"flat_auto_wnd": 200.0, "flat_auto_fr": 200.0, "flat_auto_shift": 5.0, "yconv": 1, "flatten": 1, "flatten_strength": 100.0, "xfrom": 300.0, "auto_max_frame": 2000.0, "auto_signal": 48000.0, "flat_auto_tol": 0.1, "autoclip": 1, "xrel_range": 0.0, "flat_auto_to": 4000.0, "intensity_adj": 1.0, "xrel": 7852.0, "rmhot": 1, "flat_auto_slit": 4.999999999999997, "auto_ini_exp": 300.0, "auto_off": 0, "xto": 2860.0, "flat_auto_ref": "", "flat_auto_rank": 1, "autobackg": 0, "xrel_adj": 0.0, "auto_black_lvl": 1, "base_wnd": 100.0, "sub_baseline": 0, "xconv": 2, "auto_max_exp": 1000.0, "auto_total_exp": 10000.0, "auto_exp": 0, "rmripple": 0, "black_lvl": 8239.45, "shutter_clip_adj": 0.0, "auto_bckg": 0, "flat_auto_thr": 0.9, "subbackg": 1}
316.8218498245369 22245.000218013563
317.89969571804795 21926.38724656125
318.977263876126 21921.022087558616
320.05455438786703 21688.38473395094
321.1315673423287 21575.572851876692
322.2083028285215 21609.424698572067
323.2847609354267 21441.05332495013
324.3609417519747 21326.461124914447
325.43684536705587 21147.51975302456
326.5124718695279 21081.04785514232
327.58782134820103 20828.111059932355
328.66289389184385 20880.169507879833
329.7376895891921 20652.224957997118
330.8122085289342 20551.92289639632
331.88645079971866 20485.096038945296
332.9604164901575 20356.099041738762
334.03410568881554 20096.29449372553
335.1075184842266 20181.061430115566
336.18065496487543 19965.421049686065
337.2535152192122 19923.948900396223
338.32609933564163 19797.904203721613
339.39840740253203 19654.708818037976
340.4704395082099 19611.74791103106
341.5421957409617 19506.91950691324
342.6136761890357 19622.496442440945
343.6848809406365 19400.303372834034
344.75581008392874 19244.307876338265
345.82646370703696 19201.01468192881
346.8968418980512 19182.85301868507
347.96694474501055 19117.245437360667
349.0367723359268 19190.574368866637
350.106324758759 19125.979221644786
351.1756021014353 19044.30159909411
352.2446044518383 19013.51948260628
353.31333189781435 19049.433630447977
354.38178452716966 18959.637278519298
355.449962427665 19039.476788372216
356.51786568702846 18904.047079903732
357.58549439294256 19069.141789781224
358.6528486330535 18955.65504893251
359.71992849496564 18931.232105487416
360.7867340662433 19102.334070494802
361.8532654344144 19090.40814684034
362.9195226869597 19123.20074795017
363.9855059113288 19054.731162034986
365.05121519492604 19057.982850093587
366.11665062511565 19190.539419698383
367.1818122892273 19197.341635110493
368.2467002745434 19199.45852734017
369.31131466831175 19312.91609402993
370.375655557742 19282.56216194269
371.4397230299983 19275.40511558463
372.5035171722102 19279.79365876715
373.5670380714637 19199.647142451635
374.6302858148101 19394.002476449743
375.6932604892554 19442.48930352162
376.7559621817709 19491.34425269874
377.81839097928605 19216.127637857513
378.8805469686886 19304.261680968735
379.94243023683157 19284.528771736357
381.0040408705263 19140.458235199283
382.0653789565458 19075.113713725517
383.1264445816196 19148.22067394379
384.1872378324406 19032.926730150863
385.2477587956637 19114.673645393603
386.3080075579037 18995.17078367284
387.3679842057336 18835.631389601294
388.4276888256918 18910.801177285124
389.48712150426945 18844.915708840887
390.54628232792857 18824.209078607368
391.6051713830857 18727.117713161504
392.66378875611736 18763.55834945915
393.7221345333637 18678.384247848462
394.7802088011249 18639.215281514607
395.838011645661 18618.776621585326
396.89554315319765 18479.9186912223
397.9528034099112 18481.891167952414
399.00979250194723 18341.23364396972
400.06651051541485 18274.39560113386
401.1229575363741 18223.915659303577
402.17913365085224 18237.961077783944
403.23503894483656 18239.812428139336
404.2906735042761 18059.242909055374
405.3460374150818 17968.763262569002
406.401130763119 17999.685014214327
407.455953634224 17926.812380483818
408.5105061141876 17851.440785588402
409.56478828876243 17672.754974350344
410.6188002436629 17658.53087392613
411.6725420645689 17634.630382543524
412.72601383711117 17611.112990781432
413.77921564689314 17614.760736479955
414.8321475794728 17514.426882313965
415.88480972036814 17400.295637515443
416.93720215506437 17437.505731813155
417.9893249690049 17300.847039762608
419.04117824759123 17143.25473690878
420.09276207619223 17157.41657915786
421.144076540133 17136.399474863018
422.1951217247042 17062.2213974807
423.24589771515275 17062.32024120243
424.2964045966928 16918.08726437599
425.34664245449494 17005.22442615001
426.3966113736933 16880.337520131718
427.4463114393875 16801.248758651658
428.49574273662984 16745.991955494053
429.5449053504417 16745.930422837635
430.5937993658026 16708.326671338593
431.6424248676558 16521.92605721681
432.6907819409007 16531.101839971212
433.73887067040596 16480.37798423876
434.7866911409965 16430.01408508866
435.8342434374608 16426.79903229061
436.88152764455117 16326.582917260768
437.9285438469724 16336.89304822536
438.9752921294057 16249.960871913343
440.02177257648145 16215.508553351907
441.06798527279716 16176.155058973596
442.1139303029122 16196.160241929978
443.1596077513459 16168.592047682585
444.2050177025794 16187.67158772625
445.25016024105753 16141.800201045833
446.2950354511886 16138.78473067586
447.33964341733736 16121.535314549008
448.383984223834 16028.05384516482
449.4280579549686 15983.123241285703
450.471864694995 16104.019943304851
451.5154045281306 16008.505840038919
452.5586775385509 16027.942425470983
453.60168381039693 16031.398294203347
454.64442342776783 16051.993112364818
455.6868964747264 16037.813736401886
456.7291030353008 15885.169755533294
457.77104319347563 15972.457849711765
458.8127170332027 15941.802560146276
459.854124638392 15854.405449777763
460.895266092919 16062.604614755928
461.93614148061897 16066.653780565719
462.97675088529104 16118.223832965325
464.01709439069236 16099.474604566381
465.0571720805492 16123.588911009303
466.0969840385442 16121.639327022867
467.1365303483253 16194.185737157832
468.17581109350067 16211.89111162385
469.2148263576437 16232.217420107603
470.2535762242878 16336.842848854538
471.29206077693016 16429.889102775873
472.33028009902773 16481.37431002001
473.3682342740012 16559.588208302197
474.40592338523857 16713.73938105693
475.4433475160804 16820.42003635181
476.4805067498364 16930.885576233195
477.51740116978 17090.32112448217
478.5540308591426 17257.871811687175
479.59039590112116 17682.316528372306
480.6264963788726 17953.691790015586
481.6623323755193 18300.99410593797
482.6979039741436 18650.92013896693
483.7332112577915 19246.285020777457
484.76825430947247 19572.19910188676
485.80303321215797 20067.68436329483
486.837548048783 20392.251505675253
487.8717989022425 20898.454708744022
488.90578585539697 21088.692735768265
489.9395089910686 21338.82910537169
490.97296839203955 21359.76490550796
492.00616414106116 21315.64423614692
493.0390963208429 21315.337750431696
494.0717650140559 21135.00082398984
495.10417030333883 20828.722409381502
496.1363122712901 20574.71961183151
497.16819100046814 20228.067837560462
498.1998065734024 19867.185458027423
499.2311590725767 19482.69053909351
500.26224858044407 19086.72843377247
501.2930751794156 18684.8630956717
502.3236389518679 18499.634120999675
503.35393998014115 18089.116743140563
504.38397834653733 17827.461727152528
505.4137541333221 17637.460338064287
506.4432674227228 17332.32307389824
507.4725182969323 17233.541706910215
508.5015068381035 17061.028840338255
509.53023312835467 16915.314822337903
510.55869724976765 16854.74473718186
511.58689928438434 16611.193195612323
512.6148393142121 16535.94070891902
513.6425174212218 16516.029306033353
514.6699336873462 16468.483606360038
515.6970881944835 16347.90150786865
516.7239810244901 16199.865990986296
517.7506122591931 16252.237825639739
518.7769819803761 16249.19504227705
519.8030902697901 16165.691812132887
520.8289372091476 16212.195876177857
521.8545228801249 16283.617795692126
522.8798473643619 16054.142492031311
523.9049107434621 16105.665289250217
524.9297130989908 16137.892278836885
525.9542545124805 16088.60992911683
526.9785350654201 15940.113595610388
528.0025548392696 16015.316008646594
529.0263139154504 15837.887098701034
530.0498123753423 15840.978048304998
531.073050300296 15765.371946579991
532.0960277716204 15552.834213060672
533.1187448705896 15674.135292478075
534.1412016784416 15548.853027984205
535.1633982763833 15451.323555686362
536.1853347455726 15361.292277936876
537.2070111671401 15324.696966764368
538.2284276221817 15216.628452984505
539.2495841917516 15196.639510624114
540.2704809568677 15067.162346374005
541.2911179985167 15064.471566656479
542.3114953976419 15077.040650827805
543.3316132351592 14922.18179912206
544.3514715919409 14856.692700427502
545.3710705488247 14787.562468835129
546.3904101866156 14875.424545625565
547.4094905860784 14903.777533112687
548.4283118279418 14854.757910228825
549.4468739929034 14888.895022618372
550.4651771616191 14747.212857351342
551.4832214147063 14784.700036042132
552.501006832761 14868.056010250162
553.5185334963226 14703.177035666882
554.5358014859103 14855.336766065937
555.5528108820035 14829.738408481466
556.5695617650363 14745.967199884437
557.5860542154242 14844.045580422473
558.6022883135283 14882.821920540493
559.6182641396881 14725.999689654802
560.6339817741991 14808.115202042754
561.6494412973225 14723.609607658524
562.6646427892883 14850.008114753282
563.6795863302796 14716.134800999596
564.694272000459 14720.175514908497
565.7086998799423 14813.28143910928
566.7228700488104 14717.239444432562
567.7367825871115 14730.223206899353
568.7504375748576 14743.46801556234
569.7638350920224 14775.783620971091
570.7769752185486 14747.053306778278
571.7898580343353 14863.560259887183
572.802483619258 14770.748384255305
573.8148520531431 14967.670986056852
574.8269634157932 15013.284902520605
575.8388177869692 15005.044884069943
576.8504152463938 15202.213923042067
577.8617558737587 15354.237174265847
578.8728397487175 15530.512442107434
579.883666950891 15742.958209297361
580.8942375598654 15989.864118759171
581.9045516551851 16106.575300573895
582.9146093163617 16567.4486130199
583.924410622878 16515.32323409469
584.9339556541727 16635.491961352025
585.9432444896538 16761.58762959701
586.9522772086875 16882.57280858795
587.9610538906127 16868.734531106475
588.9695746147318 16670.673306822686
589.9778394603054 16686.018955529238
590.985848506567 16496.804125647534
591.9936018327098 16340.21298011408
593.0010995178891 16125.265245976116
594.0083416412344 16140.642555431772
595.0153282818283 15831.074702347509
596.0220595187293 15739.360691678152
597.0285354309508 15558.150550317976
598.0347560974806 15463.202135585065
599.0407215972609 15331.536101918979
600.0464320092051 15322.182849283552
601.0518874121954 15157.136268739258
602.0570878850685 15090.891600720011
603.062033506636 15106.611893895795
604.0667243556636 15073.994421051615
605.0711605108936 14889.007110262653
606.0753420510264 15096.319141293348
607.0792690547278 15024.571873922358
608.082941600629 15046.193755220065
609.0863597673306 15108.159686423562
610.0895236333909 15270.35024270684
611.0924332773357 15456.665832966344
612.0950887776617 15584.389947372247
613.0974902128219 15642.427956339243
614.0996376612384 15916.815760125333
615.1015312013005 16171.288990343377
616.1031709113595 16401.409459169976
617.1045568697336 16474.1167406807
618.1056891547069 16895.76074620401
619.1065678445229 17242.80047546111
620.1071930173985 17737.784900858656
621.1075647515099 18042.541640923257
622.1076831250048 18368.78509392456
623.1075482159849 18932.742444698604
624.1071601025305 19190.5659543923
625.1065188626781 19721.289008176893
626.105624574433 20196.85232656778
627.1044773157682 20481.102655635215
628.1030771646128 20906.261892670413
629.1014241988742 21289.273529050428
630.0995184964158 21685.59151035922
631.0973601350688 22048.702433241084
632.0949491926294 22270.39633270838
633.0922857468631 22157.355064009702
634.089369875499 22355.390056683224
635.0862016562278 22436.211721182106
636.0827811667077 22068.634115837165
637.0791084845641 22069.998324774067
638.0751836873878 21704.917708992933
639.0710068527369 21564.112430905363
640.0665780581294 21178.93210296191
641.0618973810506 20603.41636266979
642.0569648989604 20524.011936485804
643.0517806892676 19975.435621476252
644.0463448293649 19643.483197097252
645.040657396592 19136.80402449811
646.0347184682723 18766.481089676297
647.0285281216875 18299.42643843736
648.0220864340772 17957.592444563837
649.0153934826558 17673.202517743768
650.0084493446047 17358.302071784197
651.0012540970674 17049.687205965107
651.9938078171526 16876.38771925397
652.9861105819346 16510.976857657
653.9781624684565 16342.858450031921
654.9699635537254 16133.92550688404
655.9615139147136 16165.246519414455
656.9528136283589 15845.749272465717
657.9438627715699 15808.063348575673
658.9346614212154 15529.33684171653
659.925209654135 15294.748087521739
660.9155075471263 15280.617997074738
661.9055551769616 15190.978648748442
662.895352620375 15184.072738053408
663.8848999540678 14975.205706741432
664.8741972547068 14850.057016702805
665.863244598926 14718.387377771194
666.8520420633213 14769.656214645502
667.8405897244611 14644.587877566719
668.8288876588758 14446.064637155021
669.8169359430613 14494.179057296333
670.8047346534822 14398.383709625272
671.7922838665672 14288.92531929266
672.7795836587156 14312.987656218742
673.766634106285 14408.71004612948
674.7534352856092 14192.001947539477
675.7399872729766 14131.970213517774
676.7262901446538 14228.080516862188
677.712343976862 14222.120605385488
678.6981488457986 14264.464208007605
679.6837048276229 14124.25044121134
680.6690119984596 14142.358843721693
681.6540704344043 14048.661575320817
682.6388802115107 14014.319010929166
683.6234414058108 14002.524777414164
684.6077540932874 13925.754081682815
685.591818349907 13881.458654799153
686.575634251587 13811.794474553593
687.5592018742263 13727.450449042293
688.5425212936734 13577.682002913314
689.5255925857564 13753.538828494096
690.5084158262707 13488.893241268486
691.4909910909646 13486.131023120466
692.4733184555644 13361.149749470733
693.4553979957618 13336.589417393741
694.4372297872123 13323.926154921728
695.4188139055404 13189.842939389855
696.4001504263324 13139.702679612572
697.3812394251509 13229.792151717047
698.3620809775111 13130.155922651902
699.3426751589104 13138.117583391737
700.3230220448004 13035.361563769407
701.3031217106054 13139.72280036382
702.2829742317172 13169.358933565905
703.2625796834873 12999.23204111186
704.2419381412474 13031.148456690962
705.22104968028 13144.794663882407
706.1999143758458 13185.64781283295
707.178532303169 13114.544371343796
708.1569035374378 13198.83257053178
709.1350281538107 13230.84351569115
710.1129062274158 13310.792891598085
711.0905378333373 13551.480442410699
712.0679230466376 13570.427714463029
713.0450619423427 13862.29731480918
714.0219545954424 14114.595698417583
714.9986010808989 14061.109051177864
715.9750014736292 14464.792151075531
716.9511558485392 14739.379158869993
717.9270642804786 15005.126352671712
718.9027268442787 15090.433049050383
719.8781436147328 15199.455869058482
720.8533146666014 15282.989901615307
721.828240074612 15269.251099114903
722.8029199134635 15253.784117636655
723.7773542578125 15086.502043945118
724.751543182294 14949.588538486461
725.7254867615029 14832.04267751878
726.6991850700015 14639.757006060474
727.6726381823228 14574.64114518222
728.6458461729599 14451.44998416249
729.6188091163858 14483.476403019453
730.5915270870246 14473.837426226852
731.5640001592856 14536.18623242345
732.536228407529 14721.542397551933
733.5082119060917 14730.560240988378
734.4799507292755 14866.56817874751
735.4514449513481 15037.847147911074
736.4226946465496 15145.254201260846
737.3936998890786 15163.479979002765
738.3644607531078 15032.861318896012
739.3349773127793 14887.196102779932
740.3052496421951 14782.345020853469
741.27527781543 14646.109426969308
742.2450619065221 14328.296695681147
743.2146019894826 14189.488988489476
744.183898138288 13863.672683803768
745.1529504268801 13650.973930482909
746.1217589291682 13348.679007734923
747.0903237190341 13255.548784734961
748.058644870318 13124.132349540447
749.0267224568397 12909.560358609357
749.994556552374 12709.8824192921
750.9621472306771 12685.623395087812
751.9294945654583 12667.931166794784
752.8965986304011 12585.34400774278
753.8634594991636 12487.858439023456
754.8300772453586 12504.28395556733
755.7964519425768 12431.280373577996
756.762583664371 12543.007051381013
757.7284724842611 12467.200098863712
758.6941184757416 12459.369119153615
759.6595217122667 12536.666456124474
760.6246822672638 12484.349966282574
761.5896002141235 12370.128802218731
762.5542756262093 12440.05664945011
763.5187085768503 12472.631588974238
764.4828991393406 12391.755438590713
765.4468473869474 12319.945111018646
766.4105533929032 12367.873728726172
767.3740172304078 12160.44693999427
768.3372389726283 12179.906438504753
769.3002186926988 11965.904127900449
770.2629564637282 11887.937522364724
771.2254523587872 11752.199883829786
772.1877064509154 11763.340337441117
773.1497188131179 11543.894601115322
774.1114895183728 11484.684683418356
775.0730186396268 11473.71861572914
776.0343062497905 11425.735272141917
776.9953524217381 11285.89699601214
777.9561572283274 11265.406403687468
778.9167207423689 11200.951486332078
779.8770430366476 11214.115478504536
780.8371241839159 11144.948851312414
781.7969642568951 11187.187179225139
782.7565633282757 11334.579922077839
783.7159214707099 11181.302977326171
784.6750387568281 11238.141386963822
785.6339152592227 11121.04375232399
786.5925510504512 11008.957889037298
787.5509462030477 11114.197085105225
788.5091007895098 11160.294301452328
789.4670148823006 11180.141630504031
790.4246885538596 11233.936962238813
791.3821218765861 11200.009365420967
792.3393149228505 11140.146334958705
793.2962677649975 11172.69192388927
794.2529804753303 11324.22676917601
795.20945312613 11371.381916701535
796.1656857896378 11324.304398330652
797.1216785380675 11390.627347410058
798.0774314435985 11654.66644871599
799.0329445783846 11725.485749683292
799.9882180145414 11751.846618645355
800.9432518241574 11928.672196098101
801.89804607929 12031.942039664096
802.852600851962 12199.279988428834
803.8069162141637 12258.539980818112
804.760992237856 12364.035720795075
805.714828994971 12491.539873595731
806.6684265574077 12529.228722997994
807.6217849970271 12467.788907115442
808.574904385674 12408.96590567576
809.527784795142 12422.680588761592
810.4804262972102 12464.722399874034
811.4328289636178 12217.794229455205
812.3849928660748 12020.887419761315
813.3369180762638 11981.32133382387
814.2886046658241 11827.060100148003
815.2400527063783 11653.956688714597
816.1912622695108 11499.851073532469
817.1422334267718 11397.226740084378
818.0929662496856 11299.190840336028
819.0434608097457 10937.601308269455
819.9937171784059 10948.945289302428
820.9437354271013 10733.980570995514
821.8935156272255 10778.482193098052
822.8430578501484 10540.632491615415
823.7923621672016 10393.15506756473
824.7414286496896 10433.671882549135
825.6902573688876 10317.48582330341
826.6388483960363 10232.26535607973
827.5872018023492 10165.354268963838
828.5353176590033 10273.277106447458
829.4831960371503 10140.53324761319
830.4308370079016 10139.950869730175
831.3782406423525 10121.607170964218
832.3254070115545 10069.533129172582
833.2723361865319 9975.421299766478
834.2190282382799 9980.040488294766
835.1654832377644 10028.389035032496
836.1117012559116 9941.689491153982
837.0576823636256 10058.32956835656
838.003426631778 9904.26511005207
838.9489341312074 9914.046899328861
839.8942049327197 10073.629648339123
840.8392391070975 9976.725671083403
841.7840367250865 9987.594556516493
842.7285978573982 9904.026113409896
843.672922574724 9924.482571737008
844.6170109477152 9918.05566485314
845.560863046996 9932.05250295273
846.5044789431595 9948.949272841768
847.4478587067697 9939.648734183995
848.3910024083561 10034.605666109248
849.333910118421 9907.468100828592
850.2765819074339 9807.668508408484
851.2190178458332 9988.825448396572
852.161218004032 9864.711514750163
853.1031824524016 9987.20182220154
854.0449112612987 9918.910492885243
854.9864045010327 9951.148819883365
855.9276622418947 9857.846603945805
856.8686845541379 9863.474453321985
857.8094715079915 9880.952387457965
858.7500231736467 10061.294510226291
859.690339621271 9971.783661881309
860.6304209209939 10063.124762910775
861.5702671429244 9962.982476252546
862.5098783571284 10066.89288865489
863.4492546336569 10064.551563356112
864.3883960425155 10156.52864954114
865.3273026536863 10177.001172940723
866.2659745371238 10138.467303113079
867.2044117627465 10362.338005293219
868.1426144004472 10351.795632618265
869.0805825200823 10375.274929891568
870.0183161914847 10503.842436816249
870.9558154844526 10609.090963678016
871.8930804687552 10492.738190025071
872.8301112141307 10634.087582430171
873.7669077902865 10801.479197396966
874.7034702669062 11002.92228024248
875.6397987136315 10944.882693795511
876.5758932000863 11035.31525841292
877.5117537958522 11072.615625381815
878.4473805704911 11170.691594325097
879.3827735935283 11139.537311355745
880.3179329344603 11326.81464410933
881.2528586627541 11463.361333148016
882.1875508478479 11418.535986132962
883.1220095591489 11286.345867233673
884.0562348660296 11385.566864512417
884.9902268378391 11328.686383261445
885.9239855438955 11417.004619009547
886.8575110534839 11162.69759414619
887.7908034358588 11168.943867655009
888.7238627602474 11030.032249282925
889.6566890958475 11041.681631241587
890.5892825118208 10857.242207724887
891.5216430773125 10856.336430376785
892.4537708614189 10761.175096493
893.3856659332196 10582.480671270903
894.3173283617652 10437.747573713694
895.2487582160684 10390.756594464427
896.179955565116 10231.97431493338
897.110920477864 10199.476536357743
898.0416530232451 10025.334844562534
898.9721532701478 10025.411762078791
899.9024212874428 9973.790035717711
900.8324571439662 9893.0728722454
901.7622609085302 9786.32148097124
902.6918326499072 9709.417393376
903.6211724368477 9740.24886365614
904.5502803380696 9701.354134964731
905.4791564222614 9727.440963510175
906.4078007580792 9627.443793003911
907.3362134141571 9548.635250685957
908.2643944590909 9667.730540350209
909.1923439614493 9561.93033491942
910.1200619897754 9578.324688683804
911.0475486125779 9654.667300054938
911.9748038983344 9505.69575897592
912.9018279155007 9431.233372803983
913.8286207324982 9400.386561642717
914.7551824177117 9517.7283445902
915.6815130395116 9367.863240663444
916.6076126662283 9358.78766133624
917.533481366163 9413.78003674738
918.4591192075914 9423.265060762935
919.3845262587565 9436.059975571996
920.3097025878706 9284.807475427519
921.2346482631237 9298.027454955907
922.1593633526682 9387.247011519625
923.0838479246304 9305.651740678168
924.0081020471061 9438.09037305834
924.9321257881656 9229.04991609399
925.8559192158464 9305.305700838391
926.7794823981512 9232.328114381771
927.7028154030686 9137.593734296486
928.6259182985414 9140.427156663352
929.5487911524906 9288.344239995
930.4714340328119 9167.214352073304
931.3938470073608 8993.639632984903
932.3160301439748 9050.668747661877
933.2379835104548 9095.629152049394
934.1597071745709 9158.942597213376
935.0812012040769 9099.907888630256
936.002465666681 9143.866654663954
936.9235006300696 9131.244191890817
937.8443061619055 9074.845411586724
938.7648823298077 9021.292421020464
939.6852292013809 8983.338747574864
940.6053468441951 9111.665747652929
941.5252353257874 9034.641073616203
942.4448947136698 9093.110562937429
943.364325075323 9089.698518341442
944.2835264782043 9031.683638459845
945.2024989897309 9034.745814530703
946.1212426773054 9012.32676271048
947.0397576082851 9126.395734201042
947.9580438500125 9195.358143232323
948.8761014697939 9191.348188078837
949.7939305349064 9213.884212062589
950.7115311125999 9068.369976961734
951.6289032700952 9142.661155615173
952.5460470745875 9248.539400700274
953.4629625932339 9105.913566838835
954.3796498931715 9201.889890597624
955.2961090415029 9318.97003036831
956.2123401053068 9198.403667203349
957.1283431516276 9151.749402876248
958.0441182474842 9092.593698731074
958.9596654598663 9143.935997694922
959.8749848557309 9203.87357639924
960.7900765020167 9065.492891394973
961.7049404656209 9064.872436976748
962.6195768134185 9138.389140654024
963.5339856122537 9098.052094583549
964.4481669289453 9046.613171378638
965.3621208302793 8926.002527670178
966.2758473830145 8998.879316859257
967.1893466538822 9039.006056885488
968.1026187095813 8995.841596464625
969.0156636167867 8869.233670316044
969.9284814421426 9034.3380467848
970.8410722522622 8894.66710849227
971.753436113735 8888.457398846927
972.6655730931161 8961.099315679536
973.5774832569368 8933.679023004855
974.4891666716958 8855.310221702579
975.4006234038698 8929.67374990651
976.3118535198955 8815.000734947973
977.2228570861935 8966.618386423996
978.1336341691494 9006.409412737403
979.0441848351202 8876.29958820222
979.9545091504333 8964.911224348658
980.864607181391 8941.736171475377
981.7744789942699 9017.984484679186
982.6841246553086 8985.066027752167
983.5935442307236 8936.301885599018
984.5027377867027 8977.64274025194
985.4117053894024 9007.45288029717
986.3204471049557 8966.827540587728
987.2289629994648 9021.154486233087
988.1372531390007 9118.813340996992
989.0453175896091 9131.613624881686
989.9531564173067 9142.558910851209
990.860769688079 9105.624917808975
991.7681574678918 9216.346101111596
992.6753198226706 9179.55212286759
993.582256818323 9169.843015047976
994.4889685207218 9313.42555208436
995.3954549957143 9437.413609135972
996.301716309119 9357.154257201371
997.2077525267232 9390.756608407055
998.1135637142943 9334.764204042123
999.0191499375615 9501.474384884834
999.924511262232 9483.297124680157
1000.8296477539861 9538.509259484406
1001.7345594784656 9535.950682682975
1002.6392465012996 9481.62730015797
1003.5437088880753 9537.295463719467
1004.4479467043584 9592.328740090492
1005.3519600156869 9427.997698563831
1006.2557488875718 9538.769023875448
1007.1593133854858 9518.531484969284
1008.0626535748888 9457.789124211113
1008.9657695212009 9386.389161804542
1009.8686612898182 9568.036914410826
1010.7713289461135 9525.766712020491
1011.6737725554212 9371.13914632121
1012.5759921830577 9355.392014094647
1013.4779878943027 9445.594947151852
1014.379759754418 9325.558670859182
1015.2813078286254 9180.089066086368
1016.18263218213 9207.775365093908
1017.0837328801026 9148.19017056507
1017.9846099876886 9174.96458771692
1018.8852635700023 9132.19375671486
1019.7856936921362 9020.26906890389
1020.6859004191447 9036.445862932216
1021.5858838160675 8974.518780078824
1022.4856439479063 8921.891898385587
1023.3851808796389 8864.499149086007
1024.2844946762143 8909.207983241085
1025.183585402554 8893.76195409993
1026.082453123554 8714.05686995812
1026.9810979040776 8782.161370310363
1027.8795198089647 8710.453162684571
1028.777718903024 8587.81196652258
1029.6756952510368 8676.945159878094
1030.5734489177648 8640.422449867352
1031.4709799679313 8646.718886002087
1032.3682884662358 8777.213705109325
1033.2653744773506 8503.324272650414
1034.1622380659192 8614.8575418416
1035.058879296559 8691.492070473485
1035.9552982338591 8668.870034284177
1036.8514949423825 8695.029358566771
1037.7474694866614 8705.973992682022
1038.6432219312028 8820.084560698497
1039.5387523404825 8977.422308532326
1040.4340607789582 8943.899476734714
1041.3291473110476 9074.523850397974
1042.2240120011465 9295.396020719467
1043.1186549136273 9436.918891996353
1044.0130761128294 9424.440589935759
1044.9072756630649 9503.180775815403
1045.8012536286205 9701.07510619675
1046.6950100737577 9858.079397591278
1047.588545062701 9947.49050879541
1048.481858659663 9891.59439015449
1049.3749509288118 10058.576332638419
1050.2678219343034 9970.942995375153
1051.1604717402515 9867.321205423905
1052.0529004107575 9894.462793497569
1052.9451080098825 9893.823531111
1053.8370946016694 9868.40021229204
1054.7288602501267 9849.652852137344
1055.6204050192446 9767.128322811712
1056.511728972977 9734.963150657113
1057.402832175254 9618.32710993584
1058.2937146899785 9526.885305458949
1059.1843765810263 9466.85231042697
1060.0748179122456 9516.343328665118
1060.9650387474576 9417.291088578353
1061.855039150456 9436.975109975969
1062.7448191850071 9383.868951482084
1063.6343789148505 9307.767272194098
1064.5237184037014 9394.27396846873
1065.412837715241 9290.021243538798
1066.3017369131267 9258.722188514399
1067.190416060992 9199.703031985906
1068.0788752224398 9102.122106833785
1068.9671144610438 9081.612995036437
1069.8551338403558 9059.395651132587
1070.7429334239023 9236.18444863721
1071.6305132751695 9108.907151458548
1072.517873457633 9101.92737550105
1073.4050140347335 9018.980705701755
1074.2919350698776 8953.541783369372
1075.1786366264623 8977.772320862885
1076.0651187678395 8945.591216682153
1076.95138155735 8763.911987106047
1077.8374250582929 8816.055657364786
1078.7232493339507 8762.211893855818
1079.608854447577 8705.07648144176
1080.4942404623907 8561.654758402688
1081.3794074415982 8776.022476333399
1082.2643554483657 8695.181750367263
1083.149084545841 8630.124460378149
1084.033594797138 8531.14659159791
1084.9178862653516 8592.081731631282
1085.8019590135427 8616.678428066763
1086.6858131047484 8455.16044652986
1087.5694486019802 8625.323611149568
1088.4528655682225 8571.56201440511
1089.3360640664287 8651.807181473443
1090.2190441595321 8545.014137901682
1091.1018059104317 8571.207248031495
1091.98434938201 8652.043940198444
1092.866674637111 8647.582532315228
1093.748781738559 8548.666376353067
1094.6306707491512 8587.447614151512
1095.5123417316554 8609.683781242089
1096.3937947488157 8558.618133905711
1097.2750298633455 8587.099863861491
1098.156047137938 8496.81722576679
1099.0368466352556 8572.860645498544
1099.9174284179317 8660.680121649342
1100.7977925485757 8437.966104940537
1101.6779390897755 8497.390409153548
1102.5578681040806 8502.505734903152
1103.4375796540226 8499.989315854282
1104.3170738021054 8322.722283932268
1105.1963506108077 8245.496973881642
1106.0754101425773 8370.56307427774
1106.9542524598382 8405.825899425856
1107.8328776249855 8313.364729941251
1108.7112857003904 8316.885457998489
1109.5894767483987 8473.734372750912
1110.4674508313292 8495.986062640506
1111.3452080114657 8427.916102969853
1112.2227483510815 8465.803126022503
1113.1000719124077 8586.28483120549
1113.9771787576592 8716.195094520272
1114.854068949022 8668.45299002319
1115.7307425486542 8778.584129443949
1116.6071996186893 8917.477128208422
1117.483440221229 9312.765491073827
1118.3594644183577 9170.830642027078
1119.235272272128 9353.116788605197
1120.1108638445658 9532.225037325388
1120.9862391976712 9802.374291429975
1121.8613983934229 9911.531237099181
1122.7363414937627 9918.700401141326
1123.6110685606182 10157.867624528551
1124.485579655884 10344.457575331113
1125.359874841426 10546.289706246953
1126.2339541790916 10561.932909246707
1127.1078177306936 10783.152242444987
1127.9814655580267 10740.701846509255
1128.854897722851 10874.030451275332
1129.7281142869106 10891.615124454313
1130.6011153119125 11048.392279053738
1131.473900859548 11047.160473088052
1132.3464709914697 10960.806817855071
1133.2188257693178 10992.93480826807
1134.0909652546961 10854.338444357094
1134.96288950919 10708.604126450056
1135.8345985943506 10772.264342125467
1136.7060925717087 10569.017148638413
1137.57737150277 10559.992335232417
1138.4484354490069 10465.50313792926
1139.3192844718778 10139.697313140914
1140.1899186327992 9955.56807049407
1141.060337993178 9846.133347003022
1141.930542614382 9712.242728365884
1142.8005325577597 9557.399186791336
1143.670307884635 9325.565469275429
1144.5398686563003 9319.26240171241
1145.409214934025 9150.629556714834
1146.2783467790541 8968.150434907988
1147.1472642526023 8885.996832424174
1148.0159674158622 8806.178267416151
1148.8844563300026 8559.308975573049
1149.7527310561618 8570.183962079795
1150.6207916554504 8382.500115598277
1151.4886381889592 8271.436962964393
1152.3562707177498 8267.286101543063
1153.2236893028585 8229.965628066464
1154.090894005296 8196.393065974935
1154.9578848860474 8106.4167392477775
1155.8246620060709 8062.418746005045
1156.6912254262988 7873.352161001681
1157.5575752076438 7910.312460208852
1158.42371141098 8023.6076847760505
1159.2896340971656 7922.682280501812
1160.1553433270346 7883.334529881142
1161.0208391613887 7882.265347790485
1161.8861216610057 7794.234651335755
1162.75119088664 7861.53738602895
1163.6160468990201 7787.575281031661
1164.4806897588442 7733.140222520802
1165.3451195267917 7790.645961326765
1166.2093362635114 7751.167090015183
1167.0733400296285 7727.501586414833
1167.9371308857444 7712.237274353795
1168.8007088924278 7688.503091426624
1169.6640741102328 7659.615978612829
1170.5272265996773 7567.859596103515
1171.390166421259 7577.740756266778
1172.252893635452 7690.956851207465
1173.1154083026995 7799.24688213614
1173.977710483421 7717.9669805449275
1174.8398002380145 7568.710919880426
1175.7016776268483 7729.030230771954
1176.563342710264 7659.260591267133
1177.4247955485826 7629.49045879567
1178.2860362020947 7697.769115277993
1179.147064731069 7588.755067688775
1180.0078811957483 7705.760952870723
1180.8684856563486 7660.271341124831
1181.7288781730604 7736.38070315151
1182.589058806052 7955.0246932283535
1183.4490276154593 7985.464031944015
1184.3087846614017 7864.446944991041
1185.1683300039676 7970.181075938626
1186.027663703222 8156.640220021973
1186.8867858192025 8133.535666066382
1187.7456964119228 8212.266620266828
1188.6043955413716 8327.563855273627
1189.4628832675116 8341.949078064103
1190.3211596502842 8488.91443735139
1191.179224749596 8465.47263999367
1192.0370786253388 8487.406147412923
1192.8947213373758 8674.267560293518
1193.7521529455407 8793.208928745522
1194.6093735096438 8616.112829839389
1195.466383089477 8803.738817631755
1196.3231817447977 8811.596620289518
1197.1797695353398 8938.990265910123
1198.0361465208189 8825.975665906371
1198.8923127609214 8853.819336674973
1199.7482683153048 9012.496229878267
1200.6040132436028 9064.816962791368
1201.459547605431 8873.991449561883
1202.3148714603722 8962.632287924354
1203.1699848679855 8879.750238881083
1204.0248878878065 8976.187472948572
1204.8795805793507 8716.503856833571
1205.7340630020935 8876.478213483355
1206.5883352155033 8791.164372545147
1207.4423972790064 8740.123134297299
1208.2962492520237 8644.763417395789
1209.1498911939307 8554.870472717797
1210.0033231640937 8490.886365135833
1210.8565452218427 8338.45672969409
1211.7095574264913 8231.57030275647
1212.5623598373222 8175.977105055912
1213.4149525135963 8251.731796483611
1214.2673355145507 8178.315107032691
1215.1195088993936 7989.7820886936
1215.9714727273113 8001.272201607246
1216.8232270574663 8050.782899432628
1217.6747719489904 7831.45042264414
1218.5261074609934 7933.694458462904
1219.3772336525653 7856.342201545303
1220.2281505827668 7815.230011884138
1221.0788583106296 7853.23810778331
1221.9293568951707 7691.235234553696
1222.7796463953746 7620.8813143812
1223.629726870202 7636.946033771067
1224.4795983785934 7670.418236080097
1225.3292609794553 7598.295875489256
1226.1787147316809 7499.638792350551
1227.0279596941327 7549.354483070687
1227.8769959256424 7647.677377415872
1228.7258234850306 7512.8212771001445
1229.5744424310833 7382.443673293475
1230.422852822563 7604.257279599406
1231.2710547182105 7576.723444181238
1232.119048176739 7448.261279426932
1232.9668332568417 7377.7295612722855
1233.8144100171812 7503.750524032873
1234.6617785163999 7555.041604806183
1235.508938813111 7367.142595386475
1236.3558909659114 7386.26626019299
1237.2026350333617 7544.81136146239
1238.049171074008 7551.280009013548
1238.8954991463652 7421.635648083107
1239.741619308932 7470.952375692102
1240.587531620169 6385.158754333059
1241.4332361385277 7618.487872354295
1242.2787329224248 7399.772075218678
1243.1240220302534 7428.2632227337235
1243.9691035203869 7371.1416003596805
1244.813977451171 7547.090924433016
1245.6586438809263 7540.592027717716
1246.5031028679496 7399.756731275882
1247.3473544705157 7622.187892520019
1248.1913987468706 7579.341979855033
1249.0352357552383 7384.760994396008
1249.8788655538228 7456.227962166103
1250.7222882007918 7647.9130473301
1251.565503754302 7662.653636647371
1252.4085122724755 7441.175869108762
1253.2513138134182 7638.655786335481
1254.0939084352049 7648.643591438426
1254.9362961958905 7585.646075283863
1255.7784771535007 7542.875854392379
1256.6204513660432 7575.924910294028
1257.4622188915 7709.200085161337
1258.3037797878242 7539.440456121051
1259.1451341129468 7576.794279805314
1259.9862819247755 7605.687827373981
1260.8272232811978 7624.778345386852
1261.6679582400666 7606.755751576
1262.5084868592203 7507.117409941029
1263.34880919647 7568.002664243618
1264.1889253095997 7538.654255251504
1265.0288352563712 7640.289882448817
1265.8685390945266 7454.971714037019
1266.7080368817751 7511.698899390816
1267.5473286758115 7638.382346566886
1268.386414534294 7637.353372200436
1269.2252945148703 7438.553165820163
1270.0639686751547 7408.678811509033
1270.9024370727402 7405.2870847015265
1271.7406997651997 7394.0017413311125
1272.5787568100714 7374.248960356674
1273.4166082648808 7317.48998206182
1274.2542541871244 7401.4643708259755
1275.091694634275 7568.2259540397545
1275.9289296637817 7240.984951922774
1276.7659593330663 7449.980001129802
1277.6027836995308 7351.48395604858
1278.4394028205552 7344.334899452317
1279.2758167534867 7209.490225886601
1280.112025555658 7275.907247356864
1280.9480292843746 7308.856808339007
1281.7838279969128 7191.219224225449
1282.6194217505326 7306.234629309802
1283.4548106024686 7206.370209280362
1284.289994609926 7195.984899836389
1285.1249738300921 7435.770666813902
1285.959748320127 7248.6355504478415
1286.7943181371702 7254.213302030317
1287.6286833383328 7366.4985689756695
1288.4628439807038 7354.24471242607
1289.2968001213521 7246.419691962297
1290.1305518173194 7423.7294515626245
1290.9640991256183 7481.497142528603
1291.7974421032523 7421.3338844418995
1292.630580807183 7381.600320939155
1293.463515294361 7521.382248844342
1294.29624562171 7533.254595722651
1295.12877184613 7517.517580706134
1295.961094024493 7450.8875507489165
1296.79321221365 7584.720459650756
1297.6251264704333 7692.094483910786
1298.4568368516466 7755.100270181378
1299.2883434140658 7667.635764449893
1300.1196462144526 7636.071133283234
1300.9507453095375 7877.521398336129
1301.7816407560313 7957.50925082872
1302.6123326106172 7882.028251699351
1303.4428209299622 7853.717526452888
1304.2731057707024 8165.170211650002
1305.1031871894502 7989.382337363243
1305.933065242798 8110.21342868142
1306.7627399873181 8093.226033509403
1307.5922114795467 8393.651886998454
1308.4214797760123 8454.66410118376
1309.2505449332057 8200.919884813662
1310.0794070076026 8338.658472062603
1310.9080660556538 8388.067269430983
1311.736522133786 8437.813380355632
1312.5647752983987 8382.369983520919
1313.3928256058734 8309.573513085043
1314.2206731125661 8509.887590710043
1315.048317874809 8529.605474076661
1315.8757599489109 8557.447680545327
1316.7029993911547 8525.827326682065
1317.5300362578055 8633.555475258476
1318.356870605101 8562.2056387046
1319.183502489257 8530.824750326015
1320.0099319664623 8708.525111120594
1320.836159092889 8656.358702469466
1321.66218392468 8634.258346756953
1322.4880065179532 8676.313181883083
1323.3136269288134 8742.033018750946
1324.1390452133292 8776.05935632994
1324.9642614275563 8806.702479894844
1325.7892756275214 8636.289854805062
1326.6140878692295 8622.911577394088
1327.4386982086617 8837.776438444873
1328.2631067017755 8637.641627270415
1329.0873134045069 8692.7354287009
1329.911318372764 8568.994736237782
1330.735121662441 8574.085475253025
1331.558723329399 8448.736174099713
1332.3821234294774 8352.101439074057
1333.2053220185007 8434.07105439442
1334.0283191522612 8301.114522875494
1334.851114886529 8402.075572941727
1335.6737092770582 8220.797886053328
1336.4961023795695 8205.970450053068
1337.3182942497697 8061.773005962624
1338.1402849433325 8179.023478344754
1338.962074515921 8029.921870221621
1339.7836630231632 7832.8556216668485
1340.6050505206676 8104.974040976509
1341.426237064028 7970.852400667116
1342.2472227088037 7910.9357949173955
1343.0680075105338 7784.242084907732
1343.888591524741 7858.069402604499
1344.7089748069138 7874.517127374978
1345.5291574125276 7722.5714702133
1346.3491393970307 7635.1917693324895
1347.168920815846 7806.61141964117
1347.9885017243778 7760.098062807347
1348.8078821780036 7625.068181643219
1349.6270622320844 7580.226289992769
1350.4460419419447 7555.004130856769
1351.2648213629054 7662.496067987611
1352.0834005502438 7535.56018617148
1352.90177955923 7487.280397031359
1353.7199584451064 7553.890549634569
1354.5379372630887 7541.891306742078
1355.355716068374 7592.839898624089
1356.1732949161305 7485.059670962543
1356.9906738615155 7522.414941837956
1357.8078529596478 7495.097875817109
1358.6248322656375 7554.552057625025
1359.441611834567 7453.625584771318
1360.2581917214866 7534.547995776551
1361.0745719814367 7309.962970657754
1361.890752669433 7458.900646987509
1362.7067338404577 7339.114754824774
1363.5225155494845 7455.351102492779
1364.3380978514506 7506.601253651708
1365.1534808012839 7328.782172153669
1365.9686644538815 7239.345562277056
1366.783648864117 7493.287587295204
1367.5984340868417 7586.833667988749
1368.413020176893 7388.0114056631355
1369.2274071890715 7378.124250972866
1370.0415951781652 7399.267157793596
1370.8555841989346 7423.832389855405
1371.6693743061223 7260.360682462711
1372.48296555444 7171.4838348550065
1373.2963579985844 7432.215374131198
1374.1095516932255 7444.878127795229
1374.9225466930166 7257.624826948058
1375.7353430525782 7255.851332629258
1376.5479408265164 7322.4669524035835
1377.36034006941 7284.558960878237
1378.1725408358216 7315.595833971321
1378.9845431802805 7137.105737121879
1379.796347157304 7460.758964102582
1380.6079528213813 7231.819351722142
1381.4193602269788 7172.384202033652
1382.230569428546 7192.1766877413465
1383.0415804805016 7289.211166473794
1383.852393437246 7315.499694336408
1384.6630083531563 7294.045781342966
1385.4734252825892 7208.042607837172
1386.2836442798798 7276.132151924243
1387.0936653993322 7251.666816843662
1387.9034886952395 7360.48783283962
1388.713114221864 7321.737078872167
1389.5225420334482 7350.148802432962
1390.331772184214 7383.8367232666915
1391.1408047283585 7229.823233975061
1391.9496397200564 7332.291929629178
1392.758277213461 7385.642313411624
1393.5667172627054 7385.467143105828
1394.3749599218918 7279.8386955163805
1395.1830052451114 7209.649996916637
1395.9908532864265 7337.116640306277
1396.7985040998774 7309.972230841149
1397.6059577394808 7150.29832965674
1398.4132142592352 7257.832110169775
1399.2202737131156 7221.0953664263625
1400.027136155073 7335.719414068668
1400.8338016390353 7200.6525282160555
1401.6402702189134 7056.328762309672
1402.446541948586 7196.258540279819
1403.2526168819204 7118.404263126875
1404.058495072757 7001.992877683828
1404.8641765749107 7101.761581482718
1405.6696614421799 7188.9177337462925
1406.4749497283356 7251.1833667958945
1407.280041487129 6859.579318344577
1408.084936772295 6771.13111007778
1408.8896356375335 7023.36716153023
1409.6941381365323 6918.736721072276
1410.498444322955 6756.430218460267
1411.3025542504402 6773.687358458655
1412.106467972606 6831.18112603201
1412.9101855430508 6668.216458890331
1413.7137070153458 6538.576156009911
1414.5170324430437 6631.524748711274
1415.320161879672 6704.184521770303
1416.1230953787435 6733.789311766074
1416.925832993742 6481.7807786571275
1417.7283747781275 6404.660331095961
1418.5307207853439 6483.094012045838
1419.3328710688093 6400.048044751778
1420.134825681922 6319.177214369813
1420.9365846780584 6384.166961634622
1421.7381481105713 6498.436229786397
1422.539516032788 6397.327499587725
1423.3406884980232 6312.444092289393
1424.1416655595604 6307.725901697201
1424.942447270665 6298.618292705099
1425.7430336845828 6477.407610180062
1426.5434248545298 6361.098200505926
1427.3436208337116 6394.1938409868035
1428.143621675301 6413.255288841308
1428.9434274324558 6595.287682867672
1429.7430381583108 6282.588360013288
1430.5424539059713 6520.476570494473
1431.3416747285337 6665.67710692619
1432.1407006790632 6619.988101672701
1432.9395318106053 6472.276516383287
1433.7381681761835 6507.95476029375
1434.5366098288014 6596.583290518307
1435.3348568214424 6606.65843805168
1436.1329092070573 6500.62583824941
1436.9307670385879 6478.014220834741
1437.7284303689503 6679.653335104985
1438.5258992510335 6606.724352392814
1439.3231737377118 6535.567622879201
1440.1202538818306 6453.143637547659
1440.9171397362225 6477.759444737397
1441.7138313536925 6576.104221067132
1442.5103287870243 6459.872305024336
1443.3066320889775 6354.2298967285205
1444.1027413122956 6629.947491888428
1444.8986565096966 6401.533153236643
1445.694377733882 6441.489899003604
1446.4899050375207 6305.226683863804
1447.2852384732687 6430.5624601646105
1448.0803780937622 6354.796144090684
1448.8753239516063 6235.491619421482
1449.6700760993954 6175.557915299874
1450.464634589689 6221.836647598329
1451.2589994750397 6352.7326645861995
1452.0531708079689 6117.603503318124
1452.8471486409799 6005.516476560597
1453.6409330265524 6217.684531156892
1454.4345240171442 6011.766313788193
1455.2279216651987 6074.395844259682
1456.0211260231263 5974.556189362724
1456.8141371433194 6274.753012583453
1457.6069550781594 6136.23639911489
1458.3995798799897 5897.857862983434
1459.1920116011424 5969.64306685946
1459.98425029393 5875.432157902595
1460.7762960106338 5901.3171784356555
1461.5681488035225 5871.887464457194
1462.3598087248392 5943.547811347415
1463.1512758268036 6056.548384979113
1463.942550161617 5895.103325838364
1464.7336317814625 5827.30450893592
1465.524520738496 5865.049111406808
1466.3152170848552 5861.973197253752
1467.1057208726506 5796.33787981569
1467.8960321539817 5830.514047497077
1468.6861509809169 5729.3621528643625
1469.4760774055085 5670.555576838219
1470.265811479785 5703.3410343012365
1471.055353255755 5608.136856485471
1471.844702785409 5594.77540775795
1472.6338601207044 5674.072225039976
1473.4228253135934 5767.108767597542
1474.2115984159936 5494.1933956339635
1475.0001794798063 5493.353547349024
1475.7885685569145 5500.527909887293
1476.576765699172 5548.573756497189
1477.3647709584238 5533.21521158782
1478.1525843864802 5699.213061403365
1478.9402060351367 5569.263659297896
1479.7276359561693 5639.9858508195775
1480.514874201328 5464.343854702096
1481.3019208223468 5464.815341923387
1482.0887758709323 5427.330239362428
1482.8754393987747 5617.918026213124
1483.6619114575406 5455.678058236479
1484.4481920988783 5462.62946751871
1485.2342813744108 5501.132620368977
1486.0201793357446 5651.215841683444
1486.8058860344572 5437.108833058034
1487.591401522117 5541.986143855918
1488.3767258502594 5572.92467222994
1489.1618590704056 5580.209849067204
1489.9468012340494 5445.504043336076
1490.7315523926754 5637.6622470181155
1491.5161125977356 5584.224208130552
1492.3004819006637 5552.039450813992
1493.084660352877 5547.696840076052
1493.8686480057622 5638.053693759835
1494.6524449106964 5642.543545281028
1495.4360511190262 5691.163841506406
1496.219466682087 5699.231346750935
1497.0026916511779 5553.71555753911
1497.7857260775945 5726.721810347231
1498.5685700125996 5628.299297375493
1499.3512235074395 5557.320722017255
1500.133686613337 5460.544954139085
1500.9159593814966 5652.632354891991
1501.698041863101 5878.106068510334
1502.4799341093094 5611.459388106154
1503.2616361712662 5494.257215719195
1504.043148100087 5645.291508140066
1504.8244699468742 5668.779592668349
1505.6056017626997 5527.092504392912
1506.3865435986281 5525.87242159492
1507.1672955056893 5611.164644259834
1507.9478575348967 5531.890665698333
1508.7282297372512 5638.653575476108
1509.5084121637192 5562.083453571659
1510.2884048652577 5551.674000876667
1511.0682078927948 5547.382091380435
1511.8478212972423 5529.743077649859
1512.6272451294917 5410.651579421342
1513.4064794404076 5586.071988975442
1514.1855242808433 5634.177912080986
1514.9643797016215 5475.305762547009
1515.743045753552 5659.270188736292
1516.5215224874191 5612.279279840932
1517.2998099539836 5549.07276836892
1518.077908203999 5572.690126731763
1518.8558172881785 5550.443443086907
1519.633537257234 5730.416279517367
1520.4110681618404 5583.249118563854
1521.1884100526604 5600.99603896852
1521.9655629803365 5606.653184437958
1522.7425269954856 5705.914713266558
1523.5193021487103 5900.764829749921
1524.2958884905856 5646.726102992899
1525.0722860716687 5839.148197880078
1525.848494942502 5717.611249979314
1526.624515153595 5808.85277666563
1527.4003467554485 5778.507516964821
1528.175989798534 5836.00604445754
1528.9514443333064 5894.147216076392
1529.726710410203 5968.917428317426
1530.5017880796331 5786.8240565201095
1531.276677391992 5780.695185844097
1532.0513783976457 5971.234730025696
1532.825891146953 5889.644497342019
1533.6002156902414 6007.9428436063445
1534.3743520778207 5939.0742494321175
1535.1483003599806 5931.985573317238
1535.9220605869923 5970.206898535455
1536.6956328091019 5967.2577229762455
1537.4690170765407 5895.889107293417
1538.242213439511 6056.030772951881
1539.015221948208 5993.316070344935
1539.78804265279 6107.642377642815
1540.560675603405 5957.372876666933
1541.3331208501804 6141.309358592227
1542.1053784432224 6175.166084676993
1542.8774484326168 6039.919484247735
1543.649330868422 5999.623103991219
1544.4210258006842 6050.88937694074
1545.1925332794308 6071.790281754579
1545.9638533546604 5984.38013024644
1546.7349860763552 6016.672670094642
1547.5059314944829 6151.463064634084
1548.27668965898 5997.5131920619915
1549.0472606197673 6146.847524441724
1549.817644426752 6028.574007251744
1550.5878411298072 6145.529555740158
1551.3578507787988 6108.536248052662
1552.1276734235635 6026.102323884029
1552.8973091139233 6153.858717070578
1553.6667578996767 6261.0608539092955
1554.436019830604 6136.863905917193
1555.20509495646 6059.041115744907
1555.9739833269869 6101.542655185607
1556.7426849919011 6143.732730580285
1557.511200000903 6317.197574128388
1558.2795284036674 6256.736058042619
1559.0476702498509 6145.868241041868
1559.8156255890954 6325.336706363702
1560.5833944710157 6497.631226024814
1561.3509769452048 6149.150485584737
1562.1183730612447 6313.003688304992
1562.8855828686865 6246.117638796482
1563.6526064170703 6382.103263807286
1564.4194437559127 6358.10777860823
1565.1860949347047 6275.551042478635
1565.9525600029283 6371.06931142396
1566.7188390100328 6542.09737003958
1567.4849320054564 6210.640691663984
1568.250839038612 6213.914526048282
1569.0165601588997 6318.766991742918
1569.7820954156887 6215.433782183452
1570.5474448583373 6123.154461716109
1571.31260853618 6077.443803169212
1572.0775864985299 6157.040528829951
1572.8423787946813 6240.059265585871
1573.6069854739108 6169.535332795366
1574.371406585471 6145.794854932272
1575.1356421785986 6265.889079877275
1575.899692302506 6088.425958652309
1576.6635570063845 6133.736937937267
1577.4272363394157 6111.698899936353
1578.190730350747 6093.860995719422
1578.9540390895163 6144.895436388746
1579.7171626048384 5892.196845252012
1580.480100945806 6052.431406435973
1581.2428541614918 5982.279111151167
1582.0054223009538 6040.993016676411
1582.767805413223 5976.276514663479
1583.5300035473156 6083.948478023753
1584.292016752228 6183.4082889929
1585.0538450769309 5979.741502944273
1585.8154885703807 5902.717340722384
1586.5769472815136 5897.6565527945795
1587.3382212592405 5931.366795692598
1588.099310552463 6167.244187618775
1588.8602152100484 5898.213531908793
1589.6209352808564 6072.135221953735
1590.3814708137234 5813.2992320005105
1591.14182185746 5905.896010402593
1591.9019884608679 5918.300985188542
1592.6619706727215 5751.583037442061
1593.4217685417734 6060.926472091128
1594.1813821167616 6029.105784813519
1594.9408114464022 5881.747611360164
1595.7000565793933 5892.599266521944
1596.459117564409 5985.371664223718
1597.2179944501113 5877.420225792808
1597.9766872851324 5868.048788961228
1598.735196118092 6044.865959586607
1599.4935209975883 5953.3969280517385
1600.2516619721973 6082.167260473527
1601.0096190904787 5871.790690229611
1601.7673924009723 5794.629863973334
1602.524981952196 5933.271377326718
1603.2823877926476 5879.7496534220245
1604.0396099708087 5863.769605420936
1604.7966485351371 5847.436882080291
1605.5535035340745 5914.7737431096475
1606.3101750160404 6039.988050200575
1607.0666630294363 5853.529363214443
1607.822967622642 5785.557478273693
1608.5790888440224 5882.3657917110195
1609.3350267419137 6053.223276501851
1610.0907813646445 5850.025437882152
1610.8463527605145 5741.972824012808
1611.601740977805 5967.560703534278
1612.356946064785 5883.779265408222
1613.1119680696902 5810.636899913302
1613.8668070407512 5821.91878396381
1614.6214630261748 5863.463658767016
1615.375936074137 5831.311886010412
1616.1302262328118 5730.654177953766
1616.8843335503425 5812.914380381154
1617.638258074854 5758.792540083298
1618.391999854457 5755.51611609421
1619.1455589372363 5893.292529454926
1619.8989353712623 5860.183421463946
1620.65212920458 5706.685454914067
1621.4051404852235 5630.425794206224
1622.1579692611976 5875.092324281108
1622.9106155804966 5659.758991401763
1623.663079491087 5658.944317245112
1624.4153610409248 5814.9622332367335
1625.1674602779385 5563.819899430745
1625.9193772500403 5616.07068297233
1626.6711120051277 5772.087765371014
1627.4226645910676 5631.0842400232295
1628.174035055721 5638.915314739749
1628.9252234469168 5689.5894397909815
1629.676229812474 5560.270452203834
1630.4270542001905 5949.257581277633
1631.1776966578382 5744.758060413196
1631.9281572331747 5661.988784395766
1632.678435973945 5921.465234958673
1633.4285329278573 5780.164983593315
1634.1784481426203 5599.31679873185
1634.9281816659113 5777.965139832797
1635.677733545388 5921.374263816941
1636.4271038286934 5699.905538424275
1637.176292563452 5812.854482945586
1637.9252997972635 5954.963989662557
1638.674125577716 6075.788530740409
1639.4227699523672 6265.733331102224
1640.171232968767 5859.382298823104
1640.9195146744423 6078.748681706886
1641.6676151168977 6113.716019407689
1642.4155343436178 6279.72022099031
1643.1632724020765 6184.009147461644
1643.9108293397167 6157.699692142513
1644.658205203974 6228.496445050571
1645.4054000422566 6608.2466974565805
1646.1524139019566 6158.1131233134265
1646.8992468304423 6195.05444296952
1647.6458988750728 6243.655245657979
1648.3923700831765 6273.090094317102
1649.1386605020743 6237.2792460890705
1649.8847701790564 6329.10829104623
1650.6306991614038 6398.119421451318
1651.3764474963682 6428.358895337331
1652.1220152311944 6254.126451393944
1652.867402413096 6430.805206457409
1653.6126090892776 6404.058862021082
1654.3576353069184 6480.23475640049
1655.1024811131829 6337.01966458391
1655.8471465552066 6263.344135020362
1656.5916316801213 6412.069563108611
1657.3359365350298 6376.692823110915
1658.0800611670165 6202.04231765189
1658.824005623148 6200.7942001909305
1659.5677699504722 6151.552345090142
1660.3113541960192 6154.950823686279
1661.054758406799 6116.2613505935
1661.7979826297997 6055.536540338287
1662.5410269119966 5934.60502837979
1663.283891300338 6132.3020881275825
1664.0265758417645 5968.199788798409
1664.7690805831826 5984.189226770881
1665.5114055714948 5924.894295524709
1666.2535508535748 5993.88592897355
1666.9955164762814 5707.5973247962065
1667.7373024864555 5620.299337230502
1668.478908930916 5726.850786391998
1669.220335856462 5773.49137676053
1669.9615833098778 5581.132829873796
1670.7026513379296 5529.901378669614
1671.44353998736 5619.531663513573
1672.1842493048916 5531.499899533914
1672.9247793372379 5404.527615078533
1673.6651301310812 5528.163045350204
1674.4053017330934 5297.032702386618
1675.1452941899242 5430.950977334478
1675.885107548207 5147.607660591509
1676.6247418545518 5144.34457819319
1677.3641971555535 5208.993633578931
1678.1034734977893 5417.627253643348
1678.8425709278108 5189.670318259802
1679.5814894921605 5267.073055452105
1680.320229237359 5075.302716199243
1681.0587902098978 5270.14676583365
1681.7971724562685 5051.759248800861
1682.5353760229264 4933.130688800437
1683.2734009563173 5092.619473018421
1684.0112473028657 4774.0209017187335
1684.7489151089794 4924.328862291861
1685.4864044210462 4854.649882335872
1686.2237152854377 4683.900471476638
1686.960847748498 4675.913253864033
1687.6978018565642 4520.468331243775
1688.434577655944 4531.645978429869
1689.1711751929379 4397.222279212434
1689.9075945138156 4537.040069579365
1690.6438356648396 4470.73205658829
1691.3798986922448 4275.4590390036765
1692.1157836422499 4364.9892888954255
1692.851490561059 4350.198520412284
1693.587019494853 4296.404138127163
1694.3223704897991 4101.43485537615
1695.0575435920364 4096.4517942017965
1695.792538847696 4383.345143934328
1696.527356302886 4118.077982485047
1697.2619960036936 4041.8177182272075
1697.9964579961907 4041.592174371476
1698.730742326432 3851.956585528648
1699.4648490404488 3846.6824103422614
1700.1987781842563 3915.4603767777626
1700.9325298038548 4029.107082659347
1701.6661039452174 4013.1698538657265
1702.3995006543082 3843.9861962068608
1703.1327199770658 4002.2176530025326
1703.865761959416 3728.8092693874396
1704.598626647261 3975.077930493632
1705.3313140864866 3739.903043388525
1706.0638243229587 3662.097996935924
1706.7961574025303 3747.889980934301
1707.528313371029 3579.9627151361515
1708.260292274268 3647.187958447793
1708.9920941580403 3658.1196051976744
1709.7237190681226 3663.6225490052375
1710.4551670502697 3560.834239123063
1711.18643815022 3441.455760248614
1711.9175324136959 3750.849189372334
1712.6484498863938 3541.0193571734244
1713.379190614005 3475.7714391574796
1714.109754642188 3622.982034870235
1714.8401420165883 3397.767762809918
1715.570352782839 3927.8398257952867
1716.3003869865497 3469.2188044545737
1717.0302446733076 3348.003337421308
1717.7599258886876 3392.0372216665564
1718.4894306782444 3556.964770027144
1719.2187590875183 3297.8929124828837
1719.9479111620203 3497.2910332389306
1720.6768869472544 3297.5163631981463
1721.4056864887025 3509.2494764939133
1722.1343098318284 3629.944756969501
1722.8627570220742 3393.081706200336
1723.591028104871 3211.325384170591
1724.3191231256242 3261.3245598170424
1725.0470421297232 3390.920247829387
1725.7747851625427 3443.713476626161
1726.5023522694337 3477.4731973548055
1727.2297434957363 3229.278948202059
1727.9569588867635 3166.8319694838174
1728.6839984878152 3347.1256970358236
1729.4108623441734 3142.2134930346533
1730.1375505011038 3366.187216097176
1730.8640630038426 3224.475192193698
1731.5903998976264 3152.5608171806725
1732.316561227657 3341.333507387939
1733.0425470391274 3134.458897647755
1733.7683573772065 3260.3836226072976
1734.4939922870508 3169.3532069473786
1735.2194518137949 3262.082946092978
1735.9447360025606 3160.670043716404
1736.669844898439 3092.3421363787593
1737.3947785465189 3132.7485607479357
1738.1195369918605 2988.1368699900604
1738.8441202795093 3209.9081293961854
1739.5685284544943 3229.0761651594707
1740.292761561821 3175.3572610424626
1741.0168196464838 3222.5105128661617
1741.7407027534518 3291.1112781341863
1742.464410927687 3105.2400689307033
1743.187944214118 3111.0443512128086
1743.9113026576688 3185.355878105269
1744.634486303241 3080.9498939242267
1745.3574951957125 3111.1716026192826
1746.0803293799509 3234.783277435622
1746.8029889008048 3185.4509172197045
1747.5254738031017 3106.0678328585254
1748.2477841316504 3117.6691465453887
1748.969919931249 3090.668509606693
1749.6918812466665 3071.3351063978157
1750.4136681226646 3186.7009232809096
1751.1352806039777 3124.850571393296
1751.856718735331 2934.168270300999
1752.5779825614281 2870.5698655974525
1753.2990721269507 3241.6146493104397
1754.0199874765676 3151.887485582033
1754.7407286549314 2906.807651731832
1755.4612957066693 2982.477084695507
1756.1816886763954 3002.5857116024717
1756.9019076087097 3125.5667291553177
1757.6219525481865 3056.7310147025655
1758.3418235393856 3064.1474885757934
1759.061520626854 3082.2590435503507
1759.7810438551096 3162.8645290067348
1760.5003932686614 2951.855549982537
1761.2195689119999 3123.3728203999153
1761.938570829594 3164.13214867672
1762.657399065898 3048.89578809256
1763.376053665348 2874.032979471056
1764.0945346723602 2942.069533798526
1764.812842131334 3140.2341758710922
1765.5309760866512 2975.1750878971798
1766.2489365826787 2809.2149773674782
1766.9667236637597 2998.0506726165386
1767.684337374223 2880.230401710874
1768.401777758383 2870.572665144683
1769.1190448605284 2978.112898253081
1769.836138724937 2885.5667967546547
1770.5530593958665 2968.935473618817
1771.2698069175603 3107.2778004653055
1771.9863813342326 3164.006569929388
1772.702782690094 2955.741247672231
1773.4190110293293 3104.4732477493494
1774.1350663961111 3010.866926963826
1774.8509488345844 2933.585026130652
1775.5666583888924 2945.387245115713
1776.2821951031437 2986.6199343860817
1776.9975590214362 2935.0899091016436
1777.7127501878585 3002.7481435952122
1778.4277686464684 3024.968664021769
1779.1426144413108 2991.3045270608263
1779.8572876164162 2994.669067563222
1780.571788215797 2767.8221576128317
1781.2861162834415 3050.149049990675
1782.0002718633277 2958.268183908418
1782.7142549994132 3015.149723533184
1783.4280657356376 3014.8106497094245
1784.141704115922 2874.7309514576737
1784.855170184177 2851.270102730882
1785.5684639842839 2955.2403441666834
1786.2815855601148 2662.251730824629
1786.9945349555237 2977.275640608294
1787.707312214343 2797.320920270193
1788.4199173803918 3088.9136189481565
1789.132350497468 2779.4315488862626
1789.8446116093583 2735.1084790328505
1790.556700759822 2728.2798916553184
1791.2686179926077 2868.0120536694567
1791.9803633514493 2843.5564097076804
1792.6919368800554 2749.6924766778457
1793.4033386221236 2923.3495697474473
1794.1145686213295 2960.0059759528694
1794.8256269213307 2995.0511692868504
1795.536513565774 2933.490843517668
1796.247228598284 2769.3060872554715
1796.9577720624693 2767.258118969901
1797.6681440019165 2926.1959714440372
1798.3783444602013 2841.9375532762356
1799.0883734808776 2863.585600179874
1799.7982311074884 2854.628792996688
1800.5079173835475 2871.87003148783
1801.2174323525633 2917.01773036585
1801.9267760580187 2799.3742757382356
1802.635948543386 2773.990393245784
1803.3449498521113 2703.824369536401
1804.0537800276325 2939.6687554063
1804.7624391133668 2875.2450396933227
1805.47092715271 2576.3121426574135
1806.1792441890484 2763.6916343472103
1806.8873902657433 2792.9439641559047
1807.5953654261448 2716.0454196726073
1808.3031697135812 2821.844533127308
1809.0108031713662 2741.562626733003
1809.71826584279 2720.173855080229
1810.425557771141 2830.187638218701
1811.1326789996747 3072.633091862799
1811.839629571632 2640.0986247276055
1812.5464095302468 2818.189670870316
1813.2530189187182 2780.259135619647
1813.959457780249 2733.8701218701176
1814.6657261580076 2833.5227092251084
1815.371824095153 2802.9695533610225
1816.0777516348262 2886.099557309499
1816.78350882015 2460.2338840817174
1817.4890956942272 2612.882156136656
1818.1945123001533 2722.253254790899
1818.8997586809928 2735.4956366945557
1819.6048348798067 2692.6245027462865
1820.3097409396287 2737.6787642327854
1821.0144769034796 3018.368135036774
1821.7190428143622 2839.3302713679445
1822.423438715261 2796.8067255726346
1823.1276646491478 2733.938059664747
1823.8317206589727 2850.652711159309
1824.5356067876692 2853.055476702125
1825.2393230781581 2668.822184017894
1825.942869573335 2631.5697191136524
1826.646246316086 2667.4472647620714
1827.3494533492758 2705.8842385931002
1828.052490715756 2746.90959452996
1828.7553584583547 2721.5541002650953
1829.458056619891 2769.48340168911
1830.1605852431585 2679.475213694085
1830.8629443709433 2550.777632567743
1831.5651340460063 2840.8556422223724
1832.2671543110919 2586.7975769765417
1832.9690052089318 2769.5294920162128
1833.6706867822395 2485.139256652553
1834.3721990737104 2784.185911880636
1835.0735421260233 2696.090294763857
1835.774715981841 2635.3730775883937
1836.4757206838058 2780.962429895228
1837.1765562745459 2733.4037232048636
1837.8772227966747 2609.9975875136774
1838.5777202927839 2715.980822887279
1839.2780488054523 2660.8749571177204
1839.9782083772352 2708.59697095011
1840.6781990506806 2783.232588649617
1841.378020868313 2621.386746278007
1842.0776738726418 2658.9927845827906
1842.777158106157 2576.6273875819643
1843.4764736113375 2638.1610842058717
1844.1756204306403 2776.504629613029
1844.8745986065078 2615.000260793139
1845.5734081813607 2529.3850471501255
1846.2720491976124 2562.369351151375
1846.970521697649 2487.3321953728355
1847.6688257238511 2718.009613311373
1848.3669613185684 2650.025545018435
1849.0649285241452 2418.9975374310216
1849.7627273829057 2659.360505927131
1850.460357937156 2595.4667166469253
1851.1578202291857 2579.4507449529733
1851.8551143012664 2656.090293524395
1852.5522401956569 2565.367319032687
1853.2491979545957 2774.8244158388225
1853.9459876203055 2433.6782209627877
1854.6426092349902 2485.605151990102
1855.3390628408451 2577.5794558851776
1856.0353484800362 2855.4085606834537
1856.7314661947203 2670.181826499915
1857.4274160270397 2488.212778068584
1858.123198019115 2510.938072365151
1858.8188122130487 2397.826617005566
1859.5142586509319 2552.1463732272805
1860.209537374838 2483.925906321266
1860.9046484268183 2589.0608140239647
1861.599591848917 2708.212920220469
1862.294367683151 2641.599257141537
1862.988975971528 2558.3209639569372
1863.6834167560355 2488.811685563219
1864.3776900786452 2731.7360962574476
1865.0717959813119 2514.1177249748644
1865.7657345059724 2493.2615361350063
1866.4595056945564 2598.9507448977756
1867.1531095889586 2614.078030911374
1867.846546231076 2392.4923225497196
1868.5398156627743 2682.2817242583997
1869.2329179259123 2437.7279864357615
1869.9258530623283 2589.6506771542868
1870.618621113843 2476.9555504754894
1871.3112221222636 2306.9542064934985
1872.0036561293764 2476.5086313498186
1872.695923176956 2639.235115417042
1873.3880233067594 2655.284758215308
1874.0799565605212 2382.63805560551
1874.7717229799673 2565.947894259666
1875.4633226068036 2619.989409611374
1876.1547554827175 2672.4030358232985
1876.8460216493859 2568.610125456772
1877.5371211484617 2483.2073311896174
1878.2280540215852 2666.539082630356
1878.9188203103804 2274.731847692559
1879.6094200564548 2504.192496918864
1880.299853301396 2421.0075430880306
1880.9901200867826 2726.286412149713
1881.6802204541673 2646.6337223974283
1882.3701544450942 2574.8178340683535
1883.059922101087 2431.720925086506
1883.7495234636517 2712.832072403729
1884.4389585742792 2384.332503471579
1885.1282274744517 2380.5862520526284
1885.8173302056166 2827.097088842983
1886.506266809225 2520.273056747754
1887.195037326701 2268.4208125769405
1887.8836417994517 2403.1298763059976
1888.5720802688702 2590.838365703072
1889.260352776333 2601.718482615809
1889.9484593632042 2588.4994334585504
1890.63640007082 2482.1145856793237
1891.3241749405151 2342.418716749139
1892.0117840135954 2500.5440448059735
1892.6992273313572 2426.2668336118954
1893.3865049350788 2403.0995996710226
1894.0736168660223 2603.9101530690955
1894.7605631654333 2583.4084719815696
1895.4473438745408 2376.20355755517
1896.133959034556 2678.1095793325326
1896.820408686679 2544.429963507512
1897.506692872088 2656.094307972616
1898.192811631945 2435.3750009962037
1898.8787650073991 2387.986874579354
1899.5645530395832 2630.0668771457654
1900.2501757696118 2448.09480521092
1900.9356332385796 2313.1388412673796
1901.620925487574 2661.343005652819
1902.3060525576602 2422.383742148467
1902.9910144898859 2560.0696957930622
1903.6758113252872 2394.5150364717465
1904.3604431048789 2577.3040870388404
1905.0449098696663 2550.074371436553
1905.7292116606295 2304.790838693375
1906.4133485187394 2447.9713966908594
1907.0973204849488 2292.485031782731
1907.7811276001976 2258.330216702801
1908.4647699053967 2440.227426734461
1909.1482474414588 1906.2007902969276
1909.8315602492694 2216.4201892411384
1910.5147083696957 2449.9137062599793
1911.1976918436012 2440.9337400983923
1911.880510711815 2372.9231513145724
1912.5631650151681 2575.4507333376696
1913.2456547944657 2387.4649043414065
1913.927980090495 2438.9514653643682
1914.6101409440362 2288.406708161503
1915.2921373958416 2447.049652943323
1915.9739694866603 2377.6856006908433
1916.655637257214 2516.3585746708986
1917.3371407482136 2508.087068570944
1918.0184800003572 2628.537740832678
1918.6996550543154 2413.536683336776
1919.3806659507554 2326.137682178669
1920.0615127303208 2458.4824706592376
1920.7421954336423 2531.4254655453087
1921.4227141013343 2521.651838394938
1922.103068773993 2511.8254638311455
1922.783259492202 2471.322951807358
1923.4632862965227 2418.762510900522
1924.1431492275078 2397.9222963961574
1924.8228483256917 2334.308739405728
1925.5023836315922 2260.4609635040797
1926.1817551857057 2171.6599996050045
1926.8609630285227 2524.6476927761387
1927.5400072005123 2543.6261400969347
1928.218887742125 2268.941645924372
1928.8976046938005 2346.073795916225
1929.5761580959588 2434.7706599798553
1930.2545479890086 2436.5236115941634
1930.9327744133352 2098.2060074126757
1931.6108374093164 2368.838679001253
1932.2887370173066 2542.1465778212105
1932.9664732776473 2138.6311168422862
1933.6440462306673 2413.90241354515
1934.3214559166754 2412.7516135776814
1934.9987023759659 2487.215644589522
1935.675785648813 2429.1867888675038
1936.3527057754836 2053.40158615807
1937.029462796223 2514.0021353199018
1937.70605675126 2249.7115479203494
1938.3824876808085 2256.9509396499316
1939.058755625072 2326.1547085033803
1939.7348606242267 2300.214629281478
1940.4108027184448 2342.0001552570425
1941.0865819478713 2454.5918177235076
1941.7621983526478 2215.370517168024
1942.4376519728921 2177.6682283571467
1943.1129428487038 2230.933234080003
1943.7880710201734 2422.491934936987
1944.4630365273733 2404.9147885654065
1945.1378394103576 2161.164945765774
1945.8124797091714 2501.325535916265
1946.4869574638324 2238.7078149934455
1947.161272714353 2118.3027686566143
1947.8354255007234 2446.645069693953
1948.5094158629272 2198.5315164960766
1949.1832438409183 2347.5489592075555
1949.8569094746435 2400.970020159698
1950.530412804037 2478.708010530106
1951.2037538690092 2504.1981770014845
1951.8769327094578 2234.5649732729403
1952.5499493652678 2252.0194019798673
1953.222803876306 2441.533698316105
1953.895496282421 2408.3717832368525
1954.5680266234522 2321.469237853983
1955.2403949392155 2384.4267921674873
1955.9126012695142 2318.6705820569287
1956.5846456541403 2264.5207653661246
1957.2565281328643 2229.858774864187
1957.9282487454457 2439.4937975291277
1958.5998075316202 2327.8289664754657
1959.27120453112 2211.2021431205458
1959.9424397836501 2291.306818185135
1960.613513328908 2340.206893836231
1961.2844252065697 2416.632552243963
1961.9551754563017 2084.7389102585857
1962.6257641177453 2206.1154438729295
1963.29619123054 2069.9972257612817
1963.966456834296 2021.1403689488016
1964.6365609686181 2178.840046918421
1965.306503673086 2392.779701278154
1965.976284987275 2210.785701479299
1966.645904950734 2368.6530745978625
1967.315363603002 2029.4975110527084
1967.9846609836077 2215.8644185462654
1968.6537971320486 2097.261197008934
1969.3227720878222 2269.771488161971
1969.9915858904042 2308.0203767897515
1970.660238579252 2240.6164816760743
1971.3287301938108 2268.1929958505884
1971.997060773514 2280.188405382988
1972.665230357772 2120.2927412654594
1973.3332389859843 2063.413496587782
1974.0010866975335 2160.2482841119286
1974.6687735317864 2190.8926517873647
1975.3362995280932 2301.013663360932
1976.003664725793 2270.1255700751594
1976.6708691642052 2084.90202753177
1977.3379128826364 2076.3647202876523
1978.004795920373 2376.335129364127
1978.6715183166925 2470.344646374617
1979.3380801108524 1961.3902231028683
1980.0044813420973 2194.9566397281496
1980.6707220496555 2000.7782690611843
1981.3368022727373 2312.8651777167856
1982.0027220505417 2319.7512185945084
1982.66848142225 1881.6107694063453
1983.3340804270283 2065.6801551491653
1983.999519104027 2115.862291246653
1984.6647974923835 2222.3667000488585
1985.329915631215 2319.0173056746726
1985.99487355963 2125.211815275027
1986.6596713167146 2436.1508033506943
1987.3243089415428 1998.1331665258135
1987.9887864731754 2326.4966651220916
1988.6531039506553 2090.345622258113
1989.3172614130071 2087.5877553578603
1989.9812588992481 2084.857983567342
1990.645096448372 1997.6868583446999
1991.3087740993633 2191.885632446307
1991.9722918911848 2099.6491617062593
1992.635649862792 2174.6491169917194
1993.2988480531185 2235.6187439566597
1993.9618865010852 2435.014465714245
1994.6247652455968 2075.3150875986453
1995.287484325545 2120.3514407456432
1995.9500437798033 2069.7369872393087
1996.6124436472292 2089.532324836767
1997.2746839666706 2252.5241992305555
1997.936764776954 2137.5654772278303
1998.598686116895 2233.3776289466887
1999.2604480252903 2288.330956284763
1999.9220505409212 2481.969620773102
2000.5834937025593 2065.1924100916576
2001.2447775489582 2176.394033998327
2001.9059021188514 2151.660925877927
2002.5668674509616 1903.9921948197764
2003.2276735839987 2104.6040459792594
2003.8883205566508 2274.4054874432522
2004.5488084075987 2121.9913883759846
2005.2091371755014 2177.213264749179
2005.8693068990033 1901.4963487605323
2006.5293176167397 2284.1137770911328
2007.1891693673224 2109.9602053637905
2007.848862189354 1931.5184713056747
2008.5083961214223 2054.0774257861694
2009.1677712020955 2038.761256326606
2009.8269874699254 2062.064339778961
2010.4860449634598 2019.8787540332992
2011.1449437212177 1977.7016577421455
2011.8036837817108 2324.356201824684
2012.4622651834325 2170.707034970201
2013.1206879648653 2174.994968358828
2013.7789521644736 2328.4421361437803
2014.4370578207036 1975.5271796062657
2015.0950049719922 2190.2076880874693
2015.7527936567585 2214.5759423971163
2016.4104239134067 1948.4704670966385
2017.067895780323 2464.27627666441
2017.725209295886 2413.7108118352858
2018.3823644984514 2362.945777687298
2019.0393614263648 2142.0501125450874
2019.6962001179545 2210.888727290478
2020.3528806115355 2275.6472264657536
2021.0094029454067 2215.8152276776254
2021.6657671578487 1976.4420892807798
2022.321973287133 2136.4457783883463
2022.9780213715148 1943.5685801045886
2023.6339114492293 2039.840767345308
2024.2896435585026 2102.1542434519934
2024.9452177375442 2121.7323026910726
2025.600634024544 2295.608997888397
2026.2558924576842 2263.89428953876
2026.9109930751292 2258.0592556119936
2027.565935915025 1954.2447621778429
2028.2207210155066 2227.8410294092555
2028.8753484146964 2318.582469331143
2029.529818150695 1990.2839022237222
2030.1841302615903 2269.399644326963
2030.8382847854573 2043.4334452091557
2031.4922817603601 2138.190559755447
2032.1461212243357 2174.898760636126
2032.7998032154192 1899.9970635662226
2033.4533277716218 2159.9311963991026
2034.1066949309443 2134.4682848833736
2034.7599047313688 1995.5072457023755
2035.4129572108704 2150.0334408816743
2036.0658524074006 2147.2496153443767
2036.7185903589016 2069.536197974684
2037.3711711032956 2260.9433691643158
2038.023594678496 2235.352063420904
2038.675861122394 2122.6298086555994
2039.3279704728757 2150.3955348335426
2039.9799227678031 1954.674988924856
2040.6317180450278 2093.537886653309
2041.2833563423865 1968.524508206209
2041.9348376977014 2260.1325164506643
2042.5861621487784 2122.6580601965634
2043.2373297334088 2086.129064552306
2043.8883404893695 2054.9145689234497
2044.5391944544208 2144.0593628686993
2045.1898916663158 2186.2035877041926
2045.8404321627804 2426.2287168164758
2046.4908159815368 2049.5274775512707
2047.1410431602853 1816.6716726393533
2047.7911137367173 1967.87331527785
2048.441027748504 2092.2182800148757
2049.090785233302 1988.8515211708377
2049.7403862287592 2012.1893849992525
2050.389830772503 2206.255307958966
2051.0391189021466 2002.8474338849217
2051.688250655294 2012.9102550362957
2052.337226069527 1888.1432456424766
2052.986045182417 2268.734784656318
2053.634708031521 2254.6961382671093
2054.283214654375 2240.7869884916286
2054.931565088511 1860.2411658021024
2055.579759371436 1964.6311529003935
2056.2277975406523 2143.69779871248
2056.8756796336384 2088.720981357107
2057.5234056878617 1802.5249684909813
2058.1709757407752 2067.186953553687
2058.8183898298194 2277.403369126899
2059.465647992416 2148.7435833814593
2060.1127502659747 2103.719440026528
2060.759696687888 1923.7639478859176
2061.4064872955405 2134.7747577985056
2062.053122126292 2179.306168109889
2062.699601217497 2062.997574755837
2063.345924606485 1946.7649893071934
2063.992092330587 2074.472932259335
2064.638104427102 1977.6649158281725
2065.283960933324 2054.5313832839984
2065.92966188653 2029.2702585334785
2066.5752073239855 2102.859568928939
2067.2205972829397 1858.2356795681521
2067.86583180062 2054.664854438692
2068.5109109142522 2121.588489645781
2069.15583466104 1967.765329038104
2069.8006030781708 1813.8010196871157
2070.445216202821 2034.5337081562698
2071.089674072153 2060.532715267896
2071.7339767233116 2181.209052920176
2072.3781241934303 1960.8793027216448
2073.0221165196253 1985.7978589158233
2073.6659537390024 1933.150421953243
2074.3096358886505 2177.6213620158105
2074.953163005637 2050.8628764971522
2075.596535127028 1743.236665598592
2076.2397522898664 1911.4974114371694
2076.882814531182 1986.0450952815431
2077.5257218879924 2114.5601351188043
2078.1684743973 1884.2042316056218
2078.8110720960885 1836.0203397947002
2079.453515021336 2326.3475886886135
2080.095803209997 2196.6805830387816
2080.7379366990135 1944.9286561050674
2081.37991552532 2247.2995627433324
2082.0217397258275 1997.5347458584129
2082.6634093374414 1815.4783124806975
2083.3049243970418 1885.6094070822303
2083.9462849415067 1988.229004857548
2084.587491007689 2072.684381584112
2085.2285426324324 2135.48906161294
2085.869439852564 1789.4776149012796
2086.510182704902 2003.8255403091764
2087.1507712262483 1926.86598704347
2087.791205453381 1879.8568598935285
2088.4314854230743 1961.4245989870246
2089.0716111720867 2008.287056479645
2089.7115827371617 1875.2344927350136
2090.351400155023 2296.465813923701
2090.991063462385 1989.0948150128352
2091.6305726959527 1718.5231878878399
2092.2699278924047 2092.15512627728
2092.9091290884153 1901.8255783521909
2093.548176320641 1901.5561446124168
2094.187069625721 1911.8280306643203
2094.8258090402887 1648.1497411406003
2095.464394600951 1982.8410348611637
2096.102826344313 1919.317726430624
2096.741104306955 2078.8600141891175
2097.379228525453 1761.3004244742133
2098.017199036358 1672.6061374740577
2098.6550158762147 2152.9707141565023
2099.2926790815527 2150.60556949028
2099.9301886888825 2024.1754868978805
2100.5675447347076 1905.7233227101074
2101.2047472555114 2063.9910202184606
2101.841796287761 1843.4144217109556
2102.47869186792 2019.7583276077748
2103.1154340324265 1949.5038227316218
2103.752022817709 1993.2356367465898
2104.388458260184 1853.801913606875
2105.024740396251 1986.9155315559321
2105.660869262292 1733.8990649541308
2106.296844894685 1918.5812806114664
2106.93266732978 1910.0632374040997
2107.5683366039284 1798.6354136600203
2108.2038527534532 1876.329559668012
2108.8392158146726 2074.2417119420797
2109.4744258238843 1831.772503696394
2110.1094828173755 1939.9720135134917
2110.744386831422 2248.4302038975325
2111.3791379022787 2037.907756343581
2112.01373606619 2029.7400026975854
2112.648181359389 2170.2829392514363
2113.28247381809 2136.788152612706
2113.916613478492 2115.2509784824642
2114.550600376786 1949.101713135516
2115.1844345491445 1855.3629357737027
2115.818116031729 1811.182784503261
2116.451644860679 1921.473224686737
2117.085021072133 1703.9435718549594
2117.718244702204 1793.4126153044126
2118.3513157869984 1809.6741506138617
2118.984234362604 1675.5246465215732
2119.617000465092 1720.9243165337525
2120.249614130529 2105.5016935231247
2120.8820753949585 1853.5240228302744
2121.5143842944162 1853.8247581748365
2122.14654086492 1876.3435201815541
2122.7785451424734 2067.4109386914574
2123.4103971630702 1636.7395362063467
2124.042096962681 1999.5598336364405
2124.6736445772767 1796.249893252127
2125.305040042802 1896.243109354428
2125.936283395191 1909.9516250546524
2126.567374670365 1779.9798687710602
2127.198313904233 1866.4459267895684
2127.8291011326855 1769.2299812964313
2128.4597363916037 1671.6003951532462
2129.0902197168507 1776.2547454776898
2129.720551144279 1762.7133593936203
2130.3507307097225 2172.3635207897723
2130.980758449008 2120.1830106597395
2131.6106343979427 1847.1650832576408
2132.2403585923203 2067.6878573143194
2132.8699310679276 2054.996378202118
2133.499351860526 1918.6486889139228
2134.1286210058715 1838.3849011733369
2134.7577385397053 1656.8571203438514
2135.3867044977487 2106.718597034819
2136.0155189157176 2145.5670509221663
2136.644181829308 2025.5841134419363
2137.2726932742025 1944.3976983610082
2137.901053286074 2056.319729286358
2138.5292619005777 1763.099548550147
2139.1573191533535 1915.3978596112465
2139.7852250800315 1949.8161625365235
2140.4129797162295 1862.2560307562476
2141.0405830975433 1693.9405989957297
2141.6680352595613 1720.140273325634
2142.2953362378576 1746.4097188250093
2142.9224860679915 1985.6243737020861
2143.549484785508 1666.3568926584653
2144.1763324259373 1830.005321549082
2144.803029024799 1806.3942685526551
2145.429574617594 1654.5646695574967
2146.0559692398165 1980.8561279068822
2146.682212926942 1899.7751573282026
2147.308305714432 1884.5217015937228
2147.9342476377333 2040.8290914273196
2148.5600387322847 2138.734077424774
2149.185679033506 2146.3944882848164
2149.8111685768017 1842.0285388750763
2150.4365073975678 1675.1076064944566
2151.061695531187 1915.212040782018
2151.686733013021 2024.3618019284309
2152.311619878423 1770.6925917820445
2152.9363561627342 1708.535890858934
2153.560941901278 1652.5930556482422
2154.1853771293663 1831.1073627591425
2154.809661882293 1877.497866367902
2155.433796195348 1854.3451009184428
2156.0577801037944 1830.930875576037
2156.681613642895 1901.1655674454857
2157.3052968478896 1844.0087617936
2157.928829754006 1990.079575005661
2158.552212396462 1881.4647563707088
2159.1754448104566 1623.505171583015
2159.7985270311783 1782.9188879655558
2160.4214590938027 1419.2199973792826
2161.0442410334927 1492.5774737740371
2161.6668728853874 1832.2227171622503
2162.289354684628 1712.3618026877862
2162.911686466332 1779.9122225780386
2163.533868265602 1931.7279169166825
2164.1559001175337 2091.515746201196
2164.7777820572046 1898.6522782099983
2165.399514119681 1801.480721043931
2166.021096340013 1767.798018050807
2166.6425287532384 1986.3426755999221
2167.263811394385 1657.4987970703387
2167.8849442984574 1952.1272389439378
2168.505927500455 1809.4248801883837
2169.126761035366 1850.6710209518722
2169.7474449381552 1901.347701051763
2170.367979243778 1583.2167693823776
2170.9883639871823 1898.613608787231
2171.608599203293 1658.444631626376
2172.2286849270276 2106.215098682932
2172.8486211932886 2014.2722748060319
2173.4684080369625 1870.6224243717127
2174.0880454929265 1609.1227551178683
2174.7075335960417 1608.484051875709
2175.3268723811543 1831.3613703834399
2175.9460618831 1707.8713435071527
2176.565102136701 1646.424533963386
2177.1839931767627 1987.148316930389
2177.802735038078 1715.9193558094253
2178.421327755432 1771.4474879677214
2179.0397713635866 1749.7757369557312
2179.658065897298 1685.2741775396942
2180.276211391305 1826.3197329960938
2180.8942078803357 1923.460460046034
2181.5120553991 1850.6394870775443
2182.129753982299 1561.7258088251529
2182.7473036646206 1780.9427852481735
2183.3647044807367 1785.67179767033
2183.9819564653044 1607.4877965426454
2184.599059652968 1777.8484412838777
2185.216014078367 1798.9283492011905
2185.832819776113 1662.01337486453
2186.4494767808137 1923.5300288353396
2187.065985127063 1710.3891099342968
2187.682344849436 1539.9997142952316
2188.298555982501 1660.0226582623395
2188.9146185608097 1780.1464801675113
2189.530532618901 1901.1026465360258
2190.1462981912937 2033.1349266873308
2190.761915312507 1932.8088304405956
2191.377384017036 1678.5222660994507
2191.9927043393654 1791.8469608661987
2192.6078763139667 1892.499246141794
2193.2228999753006 1993.4014504961883
2193.837775357808 1808.1502079654583
2194.452502495922 1674.52273900178
2195.0670814240602 1799.5107844715171
2195.6815121766285 1455.785858870262
2196.2957947880186 1512.840745889604
2196.9099292926057 1570.0160755955217
2197.523915724758 1842.581166548463
2198.137754118825 1577.430219897288
2198.7514445091456 1528.858962409136
2199.3649869300443 1480.2424412508774
2199.9783814158327 1933.7783806145853
2200.5916280008096 1990.0898928129773
2201.2047267192593 2045.2003026767368
2201.8176776054515 1734.3766321395076
2202.430480693649 1511.649162304537
2203.0431360180955 1908.4440875771775
2203.6556436130195 1855.270740103199
2204.268003512645 1598.491917284116
2204.8802157511727 1644.0018935921526
2205.492280362796 1656.861035430517
2206.1041973816937 1669.7981309253496
2206.715966842032 1630.1880743563268
2207.3275887779655 1833.286167951702
2207.93906322363 1810.4047711671835
2208.550390213153 1684.4527248175295
2209.1615697806465 1817.1963277079333
2209.7726019602105 1777.8618198079268
2210.3834867859277 1508.142332859172
2210.9942242918787 1583.8183871684812
2211.6048145121167 1772.4294588543266
2212.2152574806914 2242.359270484777
2212.825553231638 2239.7843894986154
2213.435701798975 2237.3525450312372
2214.045703216707 1734.8225714971472
2214.655557518832 1540.637364050339
2215.2652647393297 1585.961930963385
2215.874824912169 1397.4405315586514
2216.4842380713 1806.832464824128
2217.09350425067 1405.0556311215735
2217.7026234842033 1960.92337610254
2218.311595805819 1857.8534278646312
2218.9204212494133 1688.7495639122637
2219.52909984888 1950.846965367602
2220.137631638092 1622.3552717257332
2220.7460166509154 1897.5866728341211
2221.354254921198 1822.692069507109
2221.9623464827764 1747.6094743203862
2222.5702913694713 1585.4662978023116
2223.178089615096 1900.3935940176034
2223.7857412534486 1641.6699838589288
2224.39324631831 1550.996198308239
2225.000604843457 1586.9988988789949
2225.607816862641 1762.9735041959452
2226.214882409611 1736.9469507497338
2226.8218015180973 1800.370447939657
2227.4285742218217 1534.001124162842
2228.0352005544864 1717.2491721652416
2228.6416805497847 1460.4684363614003
2229.248014241399 1682.8793395198304
2229.8542016629945 1704.059285215218
2230.460242848223 1757.1974651312928
2231.0661378307304 1996.183141333238
2231.671886644139 1602.46950846883
2232.277489322065 1466.9067193716105
2232.8829458981127 1398.0648378473256
2233.48825640587 1737.912751162848
2234.0934208789095 2014.165584873558
2234.6984393507955 1923.74794067648
2235.3033118550793 1831.7985717444503
2235.9080384252975 1669.762535335257
2236.5126190949723 1549.8803316872384
2237.1170538976166 1603.714420921539
2237.721342866729 1559.6964362432384
2238.32548603579 1552.1934112575211
2238.9294834382763 1774.5970032727976
2239.533335107646 1710.049010686404
2240.1370410773434 1673.251650000142
2240.740601380803 1562.9894574181985
2241.3440160514474 1693.5163047432022
2241.9472851226783 1852.2201265674958
2242.550408627896 1600.6401491140596
2243.1533866004793 1529.0887598399793
2243.756219073799 1457.4408292448104
2244.3589060812064 1433.6373490144365
2244.961447656049 1304.9678194824933
2245.5638438316564 1691.9467007792955
2246.166094641343 1773.4394309653758
2246.7682001184166 1567.8345313983693
2247.3701602961664 1483.4060607037889
2247.971975207871 1686.6790742986864
2248.5736448867974 1878.435002491581
2249.175169366197 1636.3677954991288
2249.7765486793123 1738.9805108697797
2250.3777828593684 1688.2619988558592
2250.9788719395783 1783.3994011908896
2251.579815953146 1608.6462784710886
2252.1806149332606 1357.4840670202238
2252.781268913097 1715.1833164641735
2253.381777925817 1583.2460272703897
2253.9821420045737 1794.9979114102548
2254.5823611825035 1769.1930801382653
2255.1824354927303 1617.654426602407
2255.782364968365 1507.9042623433816
2256.38214964251 1398.0491824670034
2256.9817895482483 1370.5858619599771
2257.5812847186553 1629.8614152647947
2258.180635186791 1428.3544457895994
2258.779840985704 1522.7929480844455
2259.37890214843 1603.8881862147218
2259.97781870799 1885.4982964835174
2260.5765906973957 1749.9895436149272
2261.175218149645 1858.698906992927
2261.773701097718 1639.8147027344064
2262.3720395745895 1360.04081856532
2262.970233613216 1740.8969352220306
2263.568283246548 1601.4444678410784
2264.1661885075137 1404.1360151529143
2264.763949429038 1396.034275138739
2265.3615660440246 1691.367287637689
2265.959038385374 1540.7076588942916
2266.5563664859637 1759.1127845555286
2267.153550378669 1576.4696146809822
2267.7505900963424 1775.646502277869
2268.3474856718312 1458.8850362143044
2268.9442371379664 1536.5536518583276
2269.5408445275643 1591.5614845869566
2270.1373078734377 1736.8863258506456
2270.7336272083758 1389.9768030799637
2271.32980256516 1411.3546557025918
2271.925833976562 1613.6181450623267
2272.5217214753357 1826.9986378282076
2273.117465094223 1458.6532837948887
2273.7130648659586 1558.4812117989504
2274.308520823257 1593.8605470058735
2274.903832998827 1670.8961025471635
2275.4990014253563 1402.6749241342864
2276.094026135528 1680.2747610526174
2276.6889071620117 1431.5551364788487
2277.2836445374614 1336.9412248264548
2277.878238294519 1489.6811495045338
2278.472688465812 1459.0844494494033
2279.066995083962 1428.3924814570325
2279.6611581815705 1696.1894086330199
2280.255177791232 1800.6729414072004
2280.8490539455233 1905.3940001858602
2281.442786677013 1851.0556522097693
2282.0363760182554 1848.096383088269
2282.6298220017943 1496.3584053208274
2283.223124660155 1465.9749094089252
2283.816284025859 1435.604613627213
2284.4093001314086 1892.0279786252268
2285.002173009292 1521.8770129633351
2285.5949026919952 1647.417613904332
2286.1874892119777 1666.5720438550493
2286.7799326016993 1586.7877039439786
2287.3722328936 1395.1421938143123
2287.964390120109 1218.7412043217298
2288.556404313642 1646.57803932224
2289.1482755066027 1818.1799670075775
2289.7400037313873 1731.3192536703941
2290.3315890203703 1595.3513158584897
2290.9230314059205 1711.9394576597394
2291.5143309203904 1441.4149279991218
2292.1054875961236 1282.850956785855
2292.6965014654506 1836.8321485528086
2293.287372560684 1445.4634574873676
2293.878100914131 1870.7502071118677
2294.468686558086 1578.8374578878552
2295.059129524827 1423.1075313596295
2295.649429846617 1444.5707647286474
2296.239587555716 1466.0392771656136
2296.8296026843636 1528.1650719162994
2297.419475264791 1796.369429982077
2298.0092053292137 1478.2556977889433
2298.598792909839 1711.49204299573
2299.1882380388597 1626.3470083186037
2299.777540748455 1699.5999814237105
2300.3667010707904 1516.301209834357
2300.9557190380256 1645.5351490679805
2301.544594682302 1829.42513698898
2302.1333280357503 1802.2889245249748
2302.721919130485 1775.1557034805617
2303.3103679986198 1731.2146970715257
2303.898674672242 1819.3216648729199
2304.486839183437 1452.0462209287675
2305.0748615642697 1495.3249045321893
2305.6627418468015 1471.0656659566482
2306.2504800630704 1618.0827274308826
2306.8380762451143 1605.3768483799263
2307.425530424949 1604.7947635183834
2308.012842634582 1604.1988420687214
2308.6000129060103 1909.4774097986804
2309.187041271214 2001.0086227297463
2309.773927762164 1551.1641322489716
2310.3606724108213 1649.08184306871
2310.9472752491274 1695.1025405007924
2311.5337363090184 1741.2717440815911
2312.120055622414 1624.1245698222492
2312.706233221221 1655.6088354965905
2313.2922691373424 1756.7891979121898
2313.8781634026564 1457.9107219876287
2314.463916049037 1543.4488396053252
2315.049527108342 1509.1221413593796
2315.6349966124235 1587.4634907351697
2316.2203245931123 1665.9569828695953
2316.8055110822315 1489.6300934216563
2317.3905561115935 1440.0849676837345
2317.9754597129977 1504.537312796477
2318.560221918229 1468.144242259159
2319.1448427590603 1431.7005553169843
2319.729322267256 1496.4642711357392
2320.313660474563 1456.7756639101908
2320.8978574127195 1523.5537842712527
2321.481913113452 1590.584635742353
2322.0658276084705 1425.956228195331
2322.6496009294806 1446.353853151601
2323.233233108165 1639.1500720992553
2323.8167241762058 1480.6090649731893
2324.4000741652617 1563.166660939384
2324.983283106987 1553.43717613897
2325.5663510330232 1567.0842140259756
2326.1492779749933 1543.5350773604102
2326.7320639645204 1661.318776422982
2327.3147090332004 1499.0821225355708
2327.897213212629 2030.2270676301177
2328.4795765343843 1697.0920983586152
2329.0617990300307 1810.5364205599374
2329.643880731124 1453.123576927509
2330.22582166921 1570.0417816715512
2330.807621875816 1463.6715683920197
2331.3892813824623 1357.2560761124084
2331.9708002206517 1419.5757704191315
2332.5521784218818 1623.071300103721
2333.133416017634 1454.733602822665
2333.7145130393765 1434.1459097964896
2334.295469518571 1560.0631711014316
2334.876285486658 1672.6280313795546
2335.456960975076 1718.874706781242
2336.037496015242 1765.254528336382
2336.6178906385667 1572.1863830162151
2337.198144876451 1450.6624597460075
2337.778258760278 1481.528388616319
2338.3582323214214 1519.3313837459689
2338.938065591243 1557.184095880856
2339.517758601087 1467.7003780702214
2340.0973113822965 1657.107003638881
2340.676723966193 1624.3422237078796
2341.255996384094 1601.831500677528
2341.835128667295 1674.3277886696662
2342.4141208470883 1966.7039049672408
2342.992972954751 1618.853254378541
2343.5716850215467 1649.9646585839066
2344.1502570787306 1570.0212852945792
2344.7286891575386 1489.8464574384052
2345.3069812892045 1661.5201755532446
2345.885133504944 1695.9014020382915
2346.4631458359618 1486.4429750940362
2347.04101831345 1483.943244794716
2347.6187509685915 1357.5971603560724
2348.196343832553 1463.0880353303714
2348.7737969364935 1530.3080022046775
2349.351110311558 1429.9636653153143
2349.9282839888765 1423.0401288880735
2350.5053179995757 1416.1724258965148
2351.0822123747585 1219.452189288027
2351.658967145526 1693.4205843374264
2352.2355823429643 1708.0435089779144
2352.812057998144 1722.7860503873592
2353.3883941421263 1380.1706971208573
2353.9645908059647 1691.0698084608182
2354.540648020693 1442.9064293032652
2355.116565817336 1657.7101277699305
2355.6923442269126 1509.5845750290534
2356.2679832804224 1730.2408961521342
2356.8434830088518 1445.679489178529
2357.41884344318 1643.6247110072497
2357.994064614377 1808.2363840857556
