#exp_cfg={"servo_angle": 0.0, "laser_lim": 100.0, "servo_angle_to": 18.0, "laser_wup": 0.0, "bt_dev": "EnSpectr-25AE3", "laser_wdn_max": 0.0, "frames": 10.0, "servo_used": 0, "servo_calib_use": 0, "laser_wdn_min": 0.0, "servo_pix_from": 90.0, "cooler_tout": 300.0, "servo_angle_from": 0.0, "servo_calib": "[-1.9174921013161362e-09, 3.9322238269163779e-05, -0.27385609119055809, 653.59552119713567]", "laser_autoctl": 0, "servo_pix_to": 3682.0, "laser_pw": 100.0, "cooler_on": 0, "laser_volt": 4.0, "cooler_autoctl": 0, "cooler_curr": 70.0, "cooler_startup": 10.0, "laser_fixed_pw": 0, "gain": 1.3, "offset": 2.53059635486, "servo_calib_degree": 3.0, "laser_curr": 55.0, "shutter": 8200.0, "servo_calib_step": 1.0, "laser_fixed_curr": 0, "exp": 2000.0, "ccd_volt": 4.7, "bt_addr": "00:06:66:62:5A:E3", "servo_delay": 500.0, "laser_autooff": 1}
#proc_cfg={"flat_auto_wnd": 200.0, "flat_auto_fr": 200.0, "flat_auto_shift": 5.0, "yconv": 1, "flatten": 1, "flatten_strength": 100.0, "xfrom": 300.0, "auto_max_frame": 2000.0, "auto_signal": 48000.0, "flat_auto_tol": 0.1, "autoclip": 1, "xrel_range": 0.0, "flat_auto_to": 4000.0, "intensity_adj": 1.0, "xrel": 7852.0, "rmhot": 1, "flat_auto_slit": 4.999999999999997, "auto_ini_exp": 300.0, "auto_off": 0, "xto": 2860.0, "flat_auto_ref": "", "flat_auto_rank": 1, "autobackg": 0, "xrel_adj": 0.0, "auto_black_lvl": 1, "base_wnd": 100.0, "sub_baseline": 0, "xconv": 2, "auto_max_exp": 1000.0, "auto_total_exp": 10000.0, "auto_exp": 0, "rmripple": 0, "black_lvl": 8241.2125, "shutter_clip_adj": 0.0, "auto_bckg": 0, "flat_auto_thr": 0.9, "subbackg": 1}
316.8218498245369 22449.17799946765
317.89969571804795 22169.278362654284
318.977263876126 22094.201696300002
320.05455438786703 22023.905562268916
321.1315673423287 21903.41890763624
322.2083028285215 21917.057709507666
323.2847609354267 21775.77521530698
324.3609417519747 21674.640274636608
325.43684536705587 21613.47993127795
326.5124718695279 21457.948365722605
327.58782134820103 21379.466924617744
328.66289389184385 21384.133303457194
329.7376895891921 21203.105914809203
330.8122085289342 21169.663076701738
331.88645079971866 21137.416595715367
332.9604164901575 20973.363155998057
334.03410568881554 20840.2207095397
335.1075184842266 20922.353011486535
336.18065496487543 20772.29560798077
337.2535152192122 20618.883258326707
338.32609933564163 20505.794604751274
339.39840740253203 20415.365767307354
340.4704395082099 20405.54395131073
341.5421957409617 20262.965312673834
342.6136761890357 20322.016762226547
343.6848809406365 20137.816406708447
344.75581008392874 20117.175391333712
345.82646370703696 19918.226795071718
346.8968418980512 19989.183339617
347.96694474501055 19931.45803360792
349.0367723359268 19958.041686695044
350.106324758759 19926.20844456405
351.1756021014353 19811.74093337578
352.2446044518383 19815.266451686653
353.31333189781435 19878.05227817513
354.38178452716966 19699.134402572214
355.449962427665 19745.090577157476
356.51786568702846 19647.744616182023
357.58549439294256 19841.70231891219
358.6528486330535 19707.884866521283
359.71992849496564 19719.695506656528
360.7867340662433 19659.12259955087
361.8532654344144 19762.348699166752
362.9195226869597 19663.164496610105
363.9855059113288 19674.906317395093
365.05121519492604 19687.22966930623
366.11665062511565 19674.718008519
367.1818122892273 19659.974368218907
368.2467002745434 19668.18877897269
369.31131466831175 19697.40055548808
370.375655557742 19742.517578573556
371.4397230299983 19795.04209213272
372.5035171722102 19664.668913223577
373.5670380714637 19669.878908893454
374.6302858148101 19772.950046796846
375.6932604892554 19677.91417822987
376.7559621817709 19736.955406434216
377.81839097928605 19605.54186718069
378.8805469686886 19623.18069059889
379.94243023683157 19672.589824627816
381.0040408705263 19544.767952449456
382.0653789565458 19522.166789562954
383.1264445816196 19529.780190523266
384.1872378324406 19493.894050538704
385.2477587956637 19541.227843403492
386.3080075579037 19399.74010019828
387.3679842057336 19349.46084505896
388.4276888256918 19421.34998689498
389.48712150426945 19396.964914659686
390.54628232792857 19367.905541277927
391.6051713830857 19414.694994036487
392.66378875611736 19346.469804142336
393.7221345333637 19330.18479338957
394.7802088011249 19236.242132133295
395.838011645661 19243.371242096975
396.89554315319765 19187.907449505576
397.9528034099112 19136.018256362346
399.00979250194723 19078.151809607214
400.06651051541485 19004.6916352748
401.1229575363741 18992.56368701782
402.17913365085224 19045.683372720683
403.23503894483656 19030.465471914446
404.2906735042761 18925.69970941446
405.3460374150818 18748.477951268862
406.401130763119 18825.52801614235
407.455953634224 18800.689897568445
408.5105061141876 18819.926274862904
409.56478828876243 18556.73963184598
410.6188002436629 18657.256800129624
411.6725420645689 18604.96303017882
412.72601383711117 18583.358362388095
413.77921564689314 18659.396722852827
414.8321475794728 18546.42632382939
415.88480972036814 18424.373872263975
416.93720215506437 18452.30826850736
417.9893249690049 18286.05716558433
419.04117824759123 18322.17014833559
420.09276207619223 18260.962847707866
421.144076540133 18183.20434784462
422.1951217247042 18168.802945480576
423.24589771515275 18074.436921302284
424.2964045966928 17973.04842805716
425.34664245449494 17988.260153759424
426.3966113736933 17916.28363323745
427.4463114393875 17812.883231477725
428.49574273662984 17774.961463067004
429.5449053504417 17763.228951052508
430.5937993658026 17791.308039515032
431.6424248676558 17666.17581289817
432.6907819409007 17659.926385834784
433.73887067040596 17622.362604270584
434.7866911409965 17499.589521578
435.8342434374608 17564.42581723193
436.88152764455117 17484.288409988676
437.9285438469724 17478.224550434108
438.9752921294057 17364.70217659069
440.02177257648145 17363.62222307032
441.06798527279716 17161.67639430403
442.1139303029122 17399.962496098677
443.1596077513459 17214.173481787766
444.2050177025794 17249.33798702113
445.25016024105753 17257.65648371392
446.2950354511886 17297.038900572345
447.33964341733736 17195.811106880537
448.383984223834 17120.75889114228
449.4280579549686 17035.63965533163
450.471864694995 17151.885429927766
451.5154045281306 17078.97199638622
452.5586775385509 16936.464948387707
453.60168381039693 16969.180235651518
454.64442342776783 17125.925636264095
455.6868964747264 17050.820400193912
456.7291030353008 16931.670809475236
457.77104319347563 16887.26070479262
458.8127170332027 16822.959493798182
459.854124638392 16918.7726600216
460.895266092919 17016.05320112424
461.93614148061897 17004.1385571011
462.97675088529104 17027.178338345835
464.01709439069236 16938.138543589284
465.0571720805492 16914.561464987004
466.0969840385442 16981.27452867107
467.1365303483253 17071.118096167193
468.17581109350067 16951.846736886902
469.2148263576437 17009.031990544525
470.2535762242878 17028.48831981247
471.29206077693016 17139.499282409975
472.33028009902773 17169.425487120716
473.3682342740012 17210.986539638416
474.40592338523857 17270.601370665412
475.4433475160804 17391.74396596926
476.4805067498364 17408.429416208586
477.51740116978 17498.288466561287
478.5540308591426 17750.539498919105
479.59039590112116 17980.577642704404
480.6264963788726 18021.04675094747
481.6623323755193 18364.719806332585
482.6979039741436 18471.25060578143
483.7332112577915 18791.784181876188
484.76825430947247 19085.034338470134
485.80303321215797 19324.597915237962
486.837548048783 19535.45487633143
487.8717989022425 19721.777182407306
488.90578585539697 19824.92073749123
489.9395089910686 20040.99044915781
490.97296839203955 20016.085588028236
492.00616414106116 19905.984959900376
493.0390963208429 19909.90192424823
494.0717650140559 19748.671670606273
495.10417030333883 19577.44804013677
496.1363122712901 19458.09679141174
497.16819100046814 19245.243054981267
498.1998065734024 18966.70050534632
499.2311590725767 18908.421795216058
500.26224858044407 18548.9458274774
501.2930751794156 18404.116001668353
502.3236389518679 18274.892990322314
503.35393998014115 18050.477534348924
504.38397834653733 17953.70186355949
505.4137541333221 17751.678215051666
506.4432674227228 17600.855395571893
507.4725182969323 17485.425953273407
508.5015068381035 17400.442982747492
509.53023312835467 17345.103237692143
510.55869724976765 17363.88507633997
511.58689928438434 17164.838150360876
512.6148393142121 17163.949282380385
513.6425174212218 17128.115279805443
514.6699336873462 17131.495132291915
515.6970881944835 16995.754768625804
516.7239810244901 16858.432928088827
517.7506122591931 16792.480574919704
518.7769819803761 16793.607274572874
519.8030902697901 16687.334285003944
520.8289372091476 16717.53385795499
521.8545228801249 16676.399937961294
522.8798473643619 16648.66102301169
523.9049107434621 16539.208747987235
524.9297130989908 16536.748633558956
525.9542545124805 16505.40281506533
526.9785350654201 16489.635765390507
528.0025548392696 16491.707327596603
529.0263139154504 16448.54663913111
530.0498123753423 16278.178272161302
531.073050300296 16275.248691603314
532.0960277716204 16152.873329334005
533.1187448705896 16198.386147921705
534.1412016784416 16071.942563914836
535.1633982763833 16091.004544582995
536.1853347455726 16076.010631296536
537.2070111671401 16021.464615146993
538.2284276221817 15916.991330530087
539.2495841917516 15983.540926548292
540.2704809568677 15825.364081040214
541.2911179985167 15929.817232811049
542.3114953976419 15877.893495320564
543.3316132351592 15892.990085440219
544.3514715919409 15796.509989625676
545.3710705488247 15865.74573888167
546.3904101866156 15889.579422625326
547.4094905860784 15849.400481467634
548.4283118279418 15866.778200190214
549.4468739929034 15832.947895093637
550.4651771616191 15813.593604473139
551.4832214147063 15702.692327689272
552.501006832761 15840.587506148519
553.5185334963226 15744.825105384643
554.5358014859103 15782.872616508044
555.5528108820035 15829.956965817346
556.5695617650363 15753.628696037636
557.5860542154242 15898.124494755868
558.6022883135283 15787.652909941075
559.6182641396881 15681.722217091903
560.6339817741991 15764.050379232864
561.6494412973225 15693.652633259737
562.6646427892883 15746.896608650874
563.6795863302796 15609.134891441974
564.694272000459 15581.24083238306
565.7086998799423 15767.817889417445
566.7228700488104 15646.444691565688
567.7367825871115 15514.645841593034
568.7504375748576 15614.148237591271
569.7638350920224 15564.372620628355
570.7769752185486 15614.764747413501
571.7898580343353 15656.628374675938
572.802483619258 15564.16060869401
573.8148520531431 15704.444809980097
574.8269634157932 15690.282476181877
575.8388177869692 15630.731794493613
576.8504152463938 15751.218680330092
577.8617558737587 15883.329940000962
578.8728397487175 15889.970235542904
579.883666950891 15986.688230787724
580.8942375598654 16201.083680036556
581.9045516551851 16314.505189378333
582.9146093163617 16554.859009759042
583.924410622878 16467.24557551087
584.9339556541727 16518.995536122984
585.9432444896538 16475.800790746358
586.9522772086875 16455.12651858528
587.9610538906127 16531.927507342185
588.9695746147318 16538.977771757316
589.9778394603054 16531.18763194015
590.985848506567 16509.361944399938
591.9936018327098 16316.938889759116
593.0010995178891 16143.028014407271
594.0083416412344 16225.726760078793
595.0153282818283 16039.189501814797
596.0220595187293 15954.603758994985
597.0285354309508 15911.714194083275
598.0347560974806 15868.768601261943
599.0407215972609 15779.51380360936
600.0464320092051 15748.746252217588
601.0518874121954 15672.063602142283
602.0570878850685 15640.52068663065
603.062033506636 15702.205652341936
604.0667243556636 15587.087906393534
605.0711605108936 15479.964778156316
606.0753420510264 15614.34122609266
607.0792690547278 15623.62644899181
608.082941600629 15541.066453051553
609.0863597673306 15530.68662160654
610.0895236333909 15741.947124917773
611.0924332773357 15782.783935559059
612.0950887776617 15754.217707558175
613.0974902128219 15933.604480292686
614.0996376612384 16013.356258594784
615.1015312013005 16156.18248088672
616.1031709113595 16292.678511750088
617.1045568697336 16269.33368083261
618.1056891547069 16513.759393160984
619.1065678445229 16727.014396907376
620.1071930173985 17067.072954802767
621.1075647515099 17104.009613316703
622.1076831250048 17288.068242852118
623.1075482159849 17554.191382211375
624.1071601025305 17732.257511166994
625.1065188626781 17954.225643076796
626.105624574433 18355.930982338912
627.1044773157682 18405.314890234964
628.1030771646128 18635.06798665582
629.1014241988742 18838.94169260128
630.0995184964158 19002.10397560454
631.0973601350688 19240.563143976142
632.0949491926294 19446.64566460982
633.0922857468631 19243.47327255611
634.089369875499 19288.115590624835
635.0862016562278 19375.12757949675
636.0827811667077 19246.793870616217
637.0791084845641 19236.142721390504
638.0751836873878 19058.09858689228
639.0710068527369 19005.888249530653
640.0665780581294 18747.543896657313
641.0618973810506 18519.51911950192
642.0569648989604 18371.6285125636
643.0517806892676 18115.162345560202
644.0463448293649 17889.793701204722
645.040657396592 17699.759407022088
646.0347184682723 17494.303700722572
647.0285281216875 17261.972684364897
648.0220864340772 17017.19182297225
649.0153934826558 16861.610447087878
650.0084493446047 16813.35336208152
651.0012540970674 16668.92250300777
651.9938078171526 16551.73420240536
652.9861105819346 16357.158587892704
653.9781624684565 16268.619483060345
654.9699635537254 16111.110130385114
655.9615139147136 16136.74272042191
656.9528136283589 15924.180287954834
657.9438627715699 15921.97603568185
658.9346614212154 15816.22854886998
659.925209654135 15629.24724572821
660.9155075471263 15670.913638642389
661.9055551769616 15588.875664876477
662.895352620375 15597.989393731215
663.8848999540678 15466.265057506203
664.8741972547068 15209.136312962906
665.863244598926 15216.7107789908
666.8520420633213 15145.62922435824
667.8405897244611 15027.681921560648
668.8288876588758 14957.066960137023
669.8169359430613 14976.404884768195
670.8047346534822 14925.492465076703
671.7922838665672 14898.6579987809
672.7795836587156 14904.785803110624
673.766634106285 15015.881774689396
674.7534352856092 14798.096405063936
675.7399872729766 14798.286649134996
676.7262901446538 14872.191221506535
677.712343976862 14865.374003704443
678.6981488457986 14996.778264350618
679.6837048276229 14788.021291259638
680.6690119984596 14805.864661989559
681.6540704344043 14791.249396586645
682.6388802115107 14724.314540919842
683.6234414058108 14615.068585580631
684.6077540932874 14653.529525191532
685.591818349907 14533.707517374078
686.575634251587 14469.068977461484
687.5592018742263 14409.855440582027
688.5425212936734 14216.369624213194
689.5255925857564 14392.839279448632
690.5084158262707 14200.234758655244
691.4909910909646 14130.524480258435
692.4733184555644 13978.006408750847
693.4553979957618 14142.992584855607
694.4372297872123 13951.952559288906
695.4188139055404 13936.009014537649
696.4001504263324 13909.789443656631
697.3812394251509 14032.40303713273
698.3620809775111 13954.517840667857
699.3426751589104 13910.258303380728
700.3230220448004 13914.642969136481
701.3031217106054 13968.693374946699
702.2829742317172 14073.977731615762
703.2625796834873 13820.74916949191
704.2419381412474 13845.340181679552
705.22104968028 13930.539319748903
706.1999143758458 13944.317136652386
707.178532303169 13928.502944670396
708.1569035374378 14073.164909955507
709.1350281538107 14093.168400488177
710.1129062274158 14095.005775480988
711.0905378333373 14337.559253632964
712.0679230466376 14285.225534490944
713.0450619423427 14464.665065179832
714.0219545954424 14537.598757024825
714.9986010808989 14559.603860325788
715.9750014736292 14691.85972493735
716.9511558485392 14934.669951310047
717.9270642804786 14980.291402367726
718.9027268442787 15131.759943264868
719.8781436147328 15137.824531730463
720.8533146666014 15207.83401505042
721.828240074612 15136.990177942524
722.8029199134635 15139.987555078586
723.7773542578125 15011.461710060123
724.751543182294 15047.989850606955
725.7254867615029 14854.414606272883
726.6991850700015 14763.118961000011
727.6726381823228 14827.923567979675
728.6458461729599 14824.947089479541
729.6188091163858 14962.373249199114
730.5915270870246 15014.435373416161
731.5640001592856 15171.3929355151
732.536228407529 15397.945290854565
733.5082119060917 15389.537222014038
734.4799507292755 15618.102930342196
735.4514449513481 15755.775090807147
736.4226946465496 15884.033241006979
737.3936998890786 15851.264451256724
738.3644607531078 15740.36406477144
739.3349773127793 15659.948027189554
740.3052496421951 15449.711404662812
741.27527781543 15297.664525548413
742.2450619065221 15083.98363967465
743.2146019894826 14836.779793002603
744.183898138288 14601.574995495688
745.1529504268801 14343.726913058414
746.1217589291682 14181.655578097798
747.0903237190341 13891.846578520339
748.058644870318 13939.72860871703
749.0267224568397 13738.336398433297
749.994556552374 13665.308006286781
750.9621472306771 13579.749251584595
751.9294945654583 13466.80146982094
752.8965986304011 13459.065307926878
753.8634594991636 13290.007739270153
754.8300772453586 13419.591296545052
755.7964519425768 13355.479396844335
756.762583664371 13352.077816178313
757.7284724842611 13383.60135281944
758.6941184757416 13278.37088225126
759.6595217122667 13299.094256561477
760.6246822672638 13340.161467041142
761.5896002141235 13118.530084140182
762.5542756262093 13208.899156270829
763.5187085768503 13207.041726560192
764.4828991393406 13071.170385249083
765.4468473869474 13021.615293282965
766.4105533929032 13070.41785750126
767.3740172304078 12927.405095674745
768.3372389726283 13017.212298928118
769.3002186926988 12800.1809994227
770.2629564637282 12724.707397337206
771.2254523587872 12691.01366131178
772.1877064509154 12601.322405213254
773.1497188131179 12565.755597208801
774.1114895183728 12497.555817610159
775.0730186396268 12490.742624432592
776.0343062497905 12435.820747059795
776.9953524217381 12372.45875459928
777.9561572283274 12456.724096756247
778.9167207423689 12475.826731551659
779.8770430366476 12419.773376410925
780.8371241839159 12387.0206191534
781.7969642568951 12329.846865545693
782.7565633282757 12428.536482596648
783.7159214707099 12386.995998798146
784.6750387568281 12380.563422568579
785.6339152592227 12314.538532691347
786.5925510504512 12206.30801010813
787.5509462030477 12381.573929312472
788.5091007895098 12225.101841942784
789.4670148823006 12336.573420223032
790.4246885538596 12288.737697122097
791.3821218765861 12398.469480981745
792.3393149228505 12292.665405903423
793.2962677649975 12371.838144881254
794.2529804753303 12432.229562180746
795.20945312613 12500.791124112595
796.1656857896378 12509.9737153392
797.1216785380675 12531.389517358391
798.0774314435985 12675.337191387182
799.0329445783846 12878.52736475368
799.9882180145414 12836.247805912546
800.9432518241574 12907.262100011334
801.89804607929 12929.351410199746
802.852600851962 12998.002183611641
803.8069162141637 12956.904222692667
804.760992237856 13034.08272626633
805.714828994971 13089.732570881275
806.6684265574077 13025.162948162153
807.6217849970271 13011.092388281815
808.574904385674 12956.735712645004
809.527784795142 12954.189392128563
810.4804262972102 12937.28094256352
811.4328289636178 12733.888976340484
812.3849928660748 12576.967244559137
813.3369180762638 12477.511711763598
814.2886046658241 12532.579502620752
815.2400527063783 12426.827194188256
816.1912622695108 12218.936936266815
817.1422334267718 12182.872957123327
818.0929662496856 12071.453107353582
819.0434608097457 11962.65146480613
819.9937171784059 11796.223008676045
820.9437354271013 11765.361438333643
821.8935156272255 11696.307773980076
822.8430578501484 11685.456846288369
823.7923621672016 11530.096661084093
824.7414286496896 11622.465547785834
825.6902573688876 11524.259645232736
826.6388483960363 11582.752058019742
827.5872018023492 11469.369488697586
828.5353176590033 11555.131030002338
829.4831960371503 11437.654905130392
830.4308370079016 11363.50678051504
831.3782406423525 11354.678391454172
832.3254070115545 11345.692736148749
833.2723361865319 11300.254077016212
834.2190282382799 11276.998491962866
835.1654832377644 11355.546851944004
836.1117012559116 11263.968941991567
837.0576823636256 11421.416182770135
838.003426631778 11185.655601286977
838.9489341312074 11189.723183461014
839.8942049327197 11281.227766602546
840.8392391070975 11322.483189730045
841.7840367250865 11267.34633675179
842.7285978573982 11186.348441462218
843.672922574724 11225.105035374258
844.6170109477152 11219.095036615703
845.560863046996 11177.861037669836
846.5044789431595 11162.635389864678
847.4478587067697 11150.901275769973
848.3910024083561 11226.678273739839
849.333910118421 11149.251556689987
850.2765819074339 11139.358497596359
851.2190178458332 11218.61606893594
852.161218004032 11257.133442368602
853.1031824524016 11204.27822472134
854.0449112612987 11162.844116814253
854.9864045010327 11233.564192184303
855.9276622418947 11198.546740563532
856.8686845541379 11102.605098159978
857.8094715079915 11138.065428466693
858.7500231736467 11252.046404028939
859.690339621271 11208.529192459348
860.6304209209939 11233.070382848806
861.5702671429244 11167.387504833587
862.5098783571284 11271.152953734963
863.4492546336569 11198.888434235483
864.3883960425155 11234.664904929266
865.3273026536863 11160.816514598015
866.2659745371238 11243.1313646844
867.2044117627465 11308.100264963401
868.1426144004472 11222.112611378188
869.0805825200823 11442.045140604276
870.0183161914847 11476.684498050541
870.9558154844526 11501.804459423409
871.8930804687552 11453.420288934944
872.8301112141307 11434.908072267193
873.7669077902865 11615.920112908318
874.7034702669062 11760.911634473528
875.6397987136315 11660.365311035628
876.5758932000863 11744.719940212832
877.5117537958522 11693.4649889244
878.4473805704911 11713.410744829274
879.3827735935283 11733.801814279152
880.3179329344603 11744.366202793284
881.2528586627541 11914.399010030244
882.1875508478479 11867.671711678191
883.1220095591489 11797.714122673442
884.0562348660296 11820.210977853056
884.9902268378391 11856.283313838858
885.9239855438955 11829.309624552285
886.8575110534839 11763.706097237915
887.7908034358588 11679.424591067762
888.7238627602474 11740.449401621996
889.6566890958475 11660.829245760722
890.5892825118208 11504.852619936215
891.5216430773125 11528.848724179876
892.4537708614189 11586.643381683127
893.3856659332196 11392.381252306292
894.3173283617652 11309.933947123827
895.2487582160684 11307.766448553582
896.179955565116 11261.408094660566
897.110920477864 11129.018137656307
898.0416530232451 11125.995802280308
898.9721532701478 11072.703596839492
899.9024212874428 11120.953538890953
900.8324571439662 11038.998077662243
901.7622609085302 10984.455394908542
902.6918326499072 10954.608958052293
903.6211724368477 10969.903724249207
904.5502803380696 10970.914411411179
905.4791564222614 10940.893494188305
906.4078007580792 10853.312201219838
907.3362134141571 10886.941182339735
908.2643944590909 10961.542422954453
909.1923439614493 10824.598719869795
910.1200619897754 10873.970968227912
911.0475486125779 10913.880052994075
911.9748038983344 10839.212630294347
912.9018279155007 10789.649651217745
913.8286207324982 10749.99704432939
914.7551824177117 10873.368568351594
915.6815130395116 10812.39510496581
916.6076126662283 10711.342214119966
917.533481366163 10672.333053271152
918.4591192075914 10645.338543887132
919.3845262587565 10713.887434679538
920.3097025878706 10599.0513415161
921.2346482631237 10594.628349178402
922.1593633526682 10584.575191151966
923.0838479246304 10654.488600440378
924.0081020471061 10633.915384351361
924.9321257881656 10481.280943972464
925.8559192158464 10533.507996098153
926.7794823981512 10394.01521854077
927.7028154030686 10429.673004459406
928.6259182985414 10366.0068963911
929.5487911524906 10557.844846967173
930.4714340328119 10474.766183189487
931.3938470073608 10274.962871560227
932.3160301439748 10310.7407246863
933.2379835104548 10402.311099771652
934.1597071745709 10456.789566340838
935.0812012040769 10386.57901349664
936.002465666681 10411.294274746093
936.9235006300696 10422.743391107279
937.8443061619055 10372.642741553169
938.7648823298077 10351.334656226212
939.6852292013809 10327.474267302528
940.6053468441951 10407.444108130889
941.5252353257874 10346.503269132205
942.4448947136698 10383.51631890904
943.364325075323 10279.97558634067
944.2835264782043 10406.597186351933
945.2024989897309 10375.986692946395
946.1212426773054 10290.907670672987
947.0397576082851 10356.125667982273
947.9580438500125 10378.500318386172
948.8761014697939 10424.71766175159
949.7939305349064 10400.8750142916
950.7115311125999 10375.139037368814
951.6289032700952 10434.170078141151
952.5460470745875 10384.129783361419
953.4629625932339 10384.92960750448
954.3796498931715 10430.761929222639
955.2961090415029 10403.944967572685
956.2123401053068 10420.845109064607
957.1283431516276 10381.870624375808
958.0441182474842 10298.573875118234
958.9596654598663 10428.554694574577
959.8749848557309 10338.087383733235
960.7900765020167 10225.751150965882
961.7049404656209 10304.140093392376
962.6195768134185 10318.618230452335
963.5339856122537 10349.45630493137
964.4481669289453 10302.721796493362
965.3621208302793 10186.469126716098
966.2758473830145 10189.035825542624
967.1893466538822 10302.93753863507
968.1026187095813 10264.069953927012
969.0156636167867 10254.11162202027
969.9284814421426 10279.746865727142
970.8410722522622 10176.676549939995
971.753436113735 10151.461673999202
972.6655730931161 10095.900261981533
973.5774832569368 10153.021550902085
974.4891666716958 10113.216029506353
975.4006234038698 10064.727530942568
976.3118535198955 10126.100572205323
977.2228570861935 10202.706854316577
978.1336341691494 10146.016730349851
979.0441848351202 10060.209322563505
979.9545091504333 10163.723171603393
980.864607181391 10194.449425127776
981.7744789942699 10145.86108296657
982.6841246553086 10172.861208042552
983.5935442307236 10189.037427995921
984.5027377867027 10136.966901129617
985.4117053894024 10170.487806482577
986.3204471049557 10008.035864262072
987.2289629994648 10151.062605937774
988.1372531390007 10254.925763323501
989.0453175896091 10177.8060295993
989.9531564173067 10222.545588534886
990.860769688079 10131.317170760713
991.7681574678918 10203.272956350611
992.6753198226706 10217.426306492704
993.582256818323 10207.997079305624
994.4889685207218 10212.529659783952
995.3954549957143 10425.2777290501
996.301716309119 10388.713273069148
997.2077525267232 10328.479805291792
998.1135637142943 10275.52234491944
999.0191499375615 10364.901813733512
999.924511262232 10350.401955187233
1000.8296477539861 10459.04613527281
1001.7345594784656 10324.130150397355
1002.6392465012996 10386.765167780866
1003.5437088880753 10330.65868013615
1004.4479467043584 10448.334721438292
1005.3519600156869 10268.752681456997
1006.2557488875718 10453.936645074175
1007.1593133854858 10330.574364935106
1008.0626535748888 10283.442448944203
1008.9657695212009 10195.35695952867
1009.8686612898182 10315.4298951002
1010.7713289461135 10374.861763788642
1011.6737725554212 10272.517654874606
1012.5759921830577 10250.715457196293
1013.4779878943027 10326.4916789878
1014.379759754418 10221.86913266763
1015.2813078286254 10163.363051368424
1016.18263218213 10011.584375221822
1017.0837328801026 10174.804574232727
1017.9846099876886 10158.329311290694
1018.8852635700023 10056.787706067691
1019.7856936921362 9969.321532240794
1020.6859004191447 10089.126286483086
1021.5858838160675 10023.539643397657
1022.4856439479063 9961.695149331641
1023.3851808796389 9951.93288276871
1024.2844946762143 10003.311914264923
1025.183585402554 9949.326467256953
1026.082453123554 9790.299125908217
1026.9810979040776 9804.08307006798
1027.8795198089647 9820.704894569793
1028.777718903024 9857.727245708038
1029.6756952510368 9842.576951402552
1030.5734489177648 9761.973460085572
1031.4709799679313 9841.433566886615
1032.3682884662358 9954.326197876539
1033.2653744773506 9694.636024403315
1034.1622380659192 9718.366292815734
1035.058879296559 9938.765074030924
1035.9552982338591 9920.011284801914
1036.8514949423825 9921.839019193116
1037.7474694866614 10010.61494920068
1038.6432219312028 10051.338541108507
1039.5387523404825 10248.509462699318
1040.4340607789582 10260.162277325637
1041.3291473110476 10295.713001128419
1042.2240120011465 10580.204039588087
1043.1186549136273 10604.913759829586
1044.0130761128294 10682.940422825903
1044.9072756630649 10735.437152000886
1045.8012536286205 11010.254382295581
1046.6950100737577 11085.683079437524
1047.588545062701 11262.073781835044
1048.481858659663 11240.22569441124
1049.3749509288118 11442.47385732461
1050.2678219343034 11378.684891435474
1051.1604717402515 11357.540360239003
1052.0529004107575 11319.291506422142
1052.9451080098825 11391.259055111175
1053.8370946016694 11178.919036683099
1054.7288602501267 11280.793038652413
1055.6204050192446 11170.562034275341
1056.511728972977 11051.699787268462
1057.402832175254 10922.145480422078
1058.2937146899785 10786.47744309772
1059.1843765810263 10775.446640241684
1060.0748179122456 10717.625145185306
1060.9650387474576 10695.695274941874
1061.855039150456 10573.481735525675
1062.7448191850071 10466.84144521457
1063.6343789148505 10431.898308831209
1064.5237184037014 10498.435583795344
1065.412837715241 10379.571771597495
1066.3017369131267 10286.336825086253
1067.190416060992 10198.97857339052
1068.0788752224398 10146.996772385613
1068.9671144610438 10065.47398444512
1069.8551338403558 10084.934580976846
1070.7429334239023 10097.91974277321
1071.6305132751695 9978.99854567059
1072.517873457633 10106.902405551366
1073.4050140347335 9964.54267501926
1074.2919350698776 9955.786357432704
1075.1786366264623 9997.170918908418
1076.0651187678395 9960.042960390243
1076.95138155735 9799.489081449461
1077.8374250582929 9910.929401462441
1078.7232493339507 9803.203664259572
1079.608854447577 9775.89453351125
1080.4942404623907 9750.44938410177
1081.3794074415982 9891.515894500628
1082.2643554483657 9795.851253011295
1083.149084545841 9775.737155777237
1084.033594797138 9602.196414944981
1084.9178862653516 9690.162425470004
1085.8019590135427 9818.550486104905
1086.6858131047484 9599.183644096756
1087.5694486019802 9706.297590636077
1088.4528655682225 9721.191301654624
1089.3360640664287 9803.425058392455
1090.2190441595321 9652.245999924833
1091.1018059104317 9813.24027259553
1091.98434938201 9823.306345670395
1092.866674637111 9892.45178906473
1093.748781738559 9754.200501822874
1094.6306707491512 9764.271996924852
1095.5123417316554 9841.832973767161
1096.3937947488157 9858.093539687989
1097.2750298633455 9760.873439047162
1098.156047137938 9731.83424597545
1099.0368466352556 9843.19820110484
1099.9174284179317 9837.271153264823
1100.7977925485757 9603.590396940675
1101.6779390897755 9713.229444317034
1102.5578681040806 9749.192875407829
1103.4375796540226 9704.712994885593
1104.3170738021054 9593.404567208703
1105.1963506108077 9587.855050911083
1106.0754101425773 9568.979882209209
1106.9542524598382 9652.368618051734
1107.8328776249855 9518.03189808956
1108.7112857003904 9598.241084327266
1109.5894767483987 9600.789829720112
1110.4674508313292 9662.056992120892
1111.3452080114657 9575.590234805197
1112.2227483510815 9625.670427090266
1113.1000719124077 9774.132806228276
1113.9771787576592 9701.64516176258
1114.854068949022 9767.079929165935
1115.7307425486542 9674.250145076747
1116.6071996186893 9863.72406584565
1117.483440221229 10215.199154751774
1118.3594644183577 10000.09018957654
1119.235272272128 10062.643417228577
1120.1108638445658 10122.524252534882
1120.9862391976712 10367.750309164581
1121.8613983934229 10390.668249238082
1122.7363414937627 10486.777069338472
1123.6110685606182 10526.889196723487
1124.485579655884 10590.969511031883
1125.359874841426 10663.411705917932
1126.2339541790916 10704.667632022449
1127.1078177306936 10872.159352431288
1127.9814655580267 10808.802327637455
1128.854897722851 10889.436884278617
1129.7281142869106 10817.086910190514
1130.6011153119125 10958.513598700243
1131.473900859548 10961.74807929479
1132.3464709914697 10892.696596029165
1133.2188257693178 10866.79490376721
1134.0909652546961 10851.178377228722
1134.96288950919 10594.691355563926
1135.8345985943506 10718.032871164476
1136.7060925717087 10545.485597124574
1137.57737150277 10497.748557239911
1138.4484354490069 10481.06832073466
1139.3192844718778 10255.349053895117
1140.1899186327992 10108.09924081223
1141.060337993178 10189.04508093342
1141.930542614382 10048.478101780307
1142.8005325577597 9903.700935038847
1143.670307884635 9864.889560603082
1144.5398686563003 9905.452852411352
1145.409214934025 9813.63598485176
1146.2783467790541 9601.170340950544
1147.1472642526023 9547.946177089432
1148.0159674158622 9558.691603691708
1148.8844563300026 9456.17070591098
1149.7527310561618 9448.427862999515
1150.6207916554504 9381.669185852446
1151.4886381889592 9288.338602175005
1152.3562707177498 9382.395970694837
1153.2236893028585 9219.873674196002
1154.090894005296 9268.37616515032
1154.9578848860474 9208.309254490063
1155.8246620060709 9146.222345410391
1156.6912254262988 9064.841011453173
1157.5575752076438 9067.143863754398
1158.42371141098 9148.316319583202
1159.2896340971656 9168.524767572242
1160.1553433270346 9080.966858533864
1161.0208391613887 9121.629823315387
1161.8861216610057 9064.376204302538
1162.75119088664 8955.944380657917
1163.6160468990201 8938.478997353199
1164.4806897588442 8857.728298753558
1165.3451195267917 8912.459593466101
1166.2093362635114 8908.366308030187
1167.0733400296285 8864.39485847932
1167.9371308857444 8828.764271179552
1168.8007088924278 8819.826560620491
1169.6640741102328 8800.115260991688
1170.5272265996773 8810.913072155092
1171.390166421259 8739.056193041655
1172.252893635452 8803.58231963788
1173.1154083026995 8904.544070810642
1173.977710483421 9000.376412350817
1174.8398002380145 8753.2612544919
1175.7016776268483 8863.645670692777
1176.563342710264 8782.021492486685
1177.4247955485826 8791.135475962594
1178.2860362020947 8849.340857535431
1179.147064731069 8805.799323131669
1180.0078811957483 8960.089182329424
1180.8684856563486 8930.132181816165
1181.7288781730604 8965.551511926813
1182.589058806052 8989.481225472595
1183.4490276154593 9121.190716539011
1184.3087846614017 8984.129065972948
1185.1683300039676 8999.041062134269
1186.027663703222 9234.981361796741
1186.8867858192025 9221.138455781513
1187.7456964119228 9263.08915820477
1188.6043955413716 9299.819869271543
1189.4628832675116 9397.879496519305
1190.3211596502842 9409.367049543189
1191.179224749596 9459.445579132256
1192.0370786253388 9371.992549454651
1192.8947213373758 9511.378672109875
1193.7521529455407 9654.128713768485
1194.6093735096438 9492.529300900282
1195.466383089477 9578.006942643373
1196.3231817447977 9497.731864872581
1197.1797695353398 9696.260110061037
1198.0361465208189 9629.760362065947
1198.8923127609214 9605.594428271641
1199.7482683153048 9684.738327812822
1200.6040132436028 9807.039512393112
1201.459547605431 9627.771916805734
1202.3148714603722 9612.242550666675
1203.1699848679855 9605.565829016994
1204.0248878878065 9693.057639609044
1204.8795805793507 9496.781454742712
1205.7340630020935 9529.21963859758
1206.5883352155033 9631.391882623862
1207.4423972790064 9553.296182956394
1208.2962492520237 9367.267463690547
1209.1498911939307 9419.580312140784
1210.0033231640937 9414.29153701064
1210.8565452218427 9365.331556036286
1211.7095574264913 9202.696348762955
1212.5623598373222 9175.303864902093
1213.4149525135963 9192.49035744465
1214.2673355145507 9139.653086549444
1215.1195088993936 8988.746507605876
1215.9714727273113 9048.224239735278
1216.8232270574663 9115.246708010427
1217.6747719489904 8936.805877838986
1218.5261074609934 8980.132572632157
1219.3772336525653 8935.134269259566
1220.2281505827668 9039.493183371123
1221.0788583106296 8932.807194915207
1221.9293568951707 8779.278903295242
1222.7796463953746 8692.093724742816
1223.629726870202 8882.852637467859
1224.4795983785934 8789.182794690485
1225.3292609794553 8682.922461991748
1226.1787147316809 8603.476342271002
1227.0279596941327 8670.602082723053
1227.8769959256424 8722.004685154156
1228.7258234850306 8704.380565111645
1229.5744424310833 8542.62422297918
1230.422852822563 8689.083285350811
1231.2710547182105 8721.266609499866
1232.119048176739 8650.609679526016
1232.9668332568417 8512.501890153657
1233.8144100171812 8623.52417138835
1234.6617785163999 8688.833947974137
1235.508938813111 8423.97518956386
1236.3558909659114 8512.454864964702
1237.2026350333617 8731.422235189944
1238.049171074008 8721.833794274018
1238.8954991463652 8615.560618126063
1239.741619308932 8552.84044948904
1240.587531620169 7414.173737373737
1241.4332361385277 8674.034770056522
1242.2787329224248 8521.610008753454
1243.1240220302534 8515.05702509432
1243.9691035203869 8479.937374961617
1244.813977451171 8658.794453878698
1245.6586438809263 8568.625889979889
1246.5031028679496 8543.713367157097
1247.3473544705157 8669.286561865583
1248.1913987468706 8748.422846439918
1249.0352357552383 8574.741808044259
1249.8788655538228 8601.851708317696
1250.7222882007918 8754.792218526398
1251.565503754302 8738.317417474103
1252.4085122724755 8551.08316115037
1253.2513138134182 8770.868708827777
1254.0939084352049 8674.300139402141
1254.9362961958905 8724.673439500522
1255.7784771535007 8718.295407096095
1256.6204513660432 8673.40910750938
1257.4622188915 8976.10635346406
1258.3037797878242 8858.597872004988
1259.1451341129468 8637.130618487037
1259.9862819247755 8775.15920502026
1260.8272232811978 8791.342448911491
1261.6679582400666 8905.534237744178
1262.5084868592203 8675.028518514995
1263.34880919647 8683.845548667246
1264.1889253095997 8705.686948033652
1265.0288352563712 8649.286801825414
1265.8685390945266 8565.052144208126
1266.7080368817751 8586.970105869728
1267.5473286758115 8695.404787935375
1268.386414534294 8730.921122139214
1269.2252945148703 8543.433307394702
1270.0639686751547 8563.170207152396
1270.9024370727402 8619.598211006596
1271.7406997651997 8446.380051937067
1272.5787568100714 8451.022082788393
1273.4166082648808 8424.015122384684
1274.2542541871244 8609.502120758301
1275.091694634275 8593.712545552946
1275.9289296637817 8381.532564795427
1276.7659593330663 8536.749195426533
1277.6027836995308 8463.08820394538
1278.4394028205552 8628.845695944223
1279.2758167534867 8529.63111330954
1280.112025555658 8474.624231413733
1280.9480292843746 8624.670022623559
1281.7838279969128 8440.23723508807
1282.6194217505326 8503.404153586023
1283.4548106024686 8495.152263935974
1284.289994609926 8549.766109231996
1285.1249738300921 8675.76153469051
1285.959748320127 8559.105067952089
1286.7943181371702 8588.426068801757
1287.6286833383328 8561.207966802416
1288.4628439807038 8570.209153815758
1289.2968001213521 8535.612477418505
1290.1305518173194 8520.478406925744
1290.9640991256183 8788.920606987285
1291.7974421032523 8616.503408915269
1292.630580807183 8653.636035592352
1293.463515294361 8765.556754093759
1294.29624562171 8905.703278420951
1295.12877184613 8882.354996346037
1295.961094024493 8747.378205606994
1296.79321221365 8925.389460775616
1297.6251264704333 9096.805287682439
1298.4568368516466 9124.471779629243
1299.2883434140658 9123.492846040966
1300.1196462144526 9081.873360416084
1300.9507453095375 9247.241854931997
1301.7816407560313 9290.266516271848
1302.6123326106172 9236.941755938955
1303.4428209299622 9218.886140054838
1304.2731057707024 9458.395498216376
1305.1031871894502 9475.85589418361
1305.933065242798 9342.481873585428
1306.7627399873181 9441.061235746738
1307.5922114795467 9538.154109119321
1308.4214797760123 9665.75832420011
1309.2505449332057 9512.257930916268
1310.0794070076026 9537.269134178572
1310.9080660556538 9686.510662479403
1311.736522133786 9625.776243456246
1312.5647752983987 9550.121139696672
1313.3928256058734 9506.35127900409
1314.2206731125661 9758.873964912449
1315.048317874809 9705.444923018169
1315.8757599489109 9620.217361230665
1316.7029993911547 9620.13916133295
1317.5300362578055 9767.541182518446
1318.356870605101 9681.88281267361
1319.183502489257 9569.454456870659
1320.0099319664623 9696.360075810957
1320.836159092889 9715.383161464524
1321.66218392468 9668.3281959729
1322.4880065179532 9605.78116349064
1323.3136269288134 9530.18330648243
1324.1390452133292 9617.282989182862
1324.9642614275563 9677.711452363012
1325.7892756275214 9488.771976263657
1326.6140878692295 9423.186670728814
1327.4386982086617 9667.847185176712
1328.2631067017755 9400.532532126208
1329.0873134045069 9431.21510691637
1329.911318372764 9287.07495479332
1330.735121662441 9319.28548772695
1331.558723329399 9275.333760476778
1332.3821234294774 9134.645634913031
1333.2053220185007 9189.406909136884
1334.0283191522612 9095.373090827039
1334.851114886529 8998.688220195876
1335.6737092770582 8858.349720297574
1336.4961023795695 8921.013385039278
1337.3182942497697 8774.205321662956
1338.1402849433325 8875.996092376783
1338.962074515921 8661.995421074433
1339.7836630231632 8617.4328147327
1340.6050505206676 8952.041902844509
1341.426237064028 8709.150575942904
1342.2472227088037 8672.020539665626
1343.0680075105338 8396.001193152453
1343.888591524741 8578.950482938402
1344.7089748069138 8645.662497189705
1345.5291574125276 8443.015340758615
1346.3491393970307 8398.195622110647
1347.168920815846 8557.227796673764
1347.9885017243778 8506.611530782615
1348.8078821780036 8413.721599018572
1349.6270622320844 8341.893086636252
1350.4460419419447 8337.001630361732
1351.2648213629054 8312.74905778663
1352.0834005502438 8214.424220374689
1352.90177955923 8236.53332456555
1353.7199584451064 8261.93626579426
1354.5379372630887 8137.113888627241
1355.355716068374 8213.630525333421
1356.1732949161305 8105.318072795315
1356.9906738615155 8255.806128758191
1357.8078529596478 8146.851214810222
1358.6248322656375 8267.774648457282
1359.441611834567 8103.98751118879
1360.2581917214866 8197.639999852732
1361.0745719814367 8044.22506661849
1361.890752669433 8055.359866932337
1362.7067338404577 8091.694072655581
1363.5225155494845 8107.319539413467
1364.3380978514506 8106.875800510787
1365.1534808012839 7982.991974551007
1365.9686644538815 7912.113138046914
1366.783648864117 8306.437671311363
1367.5984340868417 8320.608445391283
1368.413020176893 8035.8958753995375
1369.2274071890715 7909.173750975437
1370.0415951781652 8223.927582839377
1370.8555841989346 8038.002680249572
1371.6693743061223 7983.953304154982
1372.48296555444 7974.801790335182
1373.2963579985844 7983.040759998507
1374.1095516932255 7997.608620609986
1374.9225466930166 7951.937013414545
1375.7353430525782 7968.6912272928985
1376.5479408265164 7970.602764923009
1377.36034006941 8056.434968453323
1378.1725408358216 8091.669971911006
1378.9845431802805 7887.979024819305
1379.796347157304 8153.232525134283
1380.6079528213813 8084.762853157707
1381.4193602269788 7903.177277120325
1382.230569428546 7920.723100234066
1383.0415804805016 8034.277053144072
1383.852393437246 8024.516855585246
1384.6630083531563 8070.055933292109
1385.4734252825892 7991.488275222444
1386.2836442798798 8022.400393429251
1387.0936653993322 8002.113946722134
1387.9034886952395 8021.4751711105155
1388.713114221864 8027.749107590178
1389.5225420334482 8019.344921604141
1390.331772184214 7981.139794742429
1391.1408047283585 7904.501152413916
1391.9496397200564 8024.530893868121
1392.758277213461 8013.425451323206
1393.5667172627054 8068.0351806452
1394.3749599218918 7933.513698077504
1395.1830052451114 7947.852784695441
1395.9908532864265 7973.981242634587
1396.7985040998774 7937.870701210583
1397.6059577394808 7915.251226395904
1398.4132142592352 7830.992378846262
1399.2202737131156 7963.883769579965
1400.027136155073 7978.652006016909
1400.8338016390353 7853.1118858913105
1401.6402702189134 7787.224883059175
1402.446541948586 7805.61162391029
1403.2526168819204 7819.4450913549135
1404.058495072757 7696.5990474236505
1404.8641765749107 7713.282050032729
1405.6696614421799 7725.377215418256
1406.4749497283356 7827.419657665178
1407.280041487129 7556.396247733112
1408.084936772295 7421.656036721479
1408.8896356375335 7736.801980366383
1409.6941381365323 7608.753890736101
1410.498444322955 7417.512189540446
1411.3025542504402 7525.81310504931
1412.106467972606 7472.666141154545
1412.9101855430508 7385.010518357356
1413.7137070153458 7273.676862601586
1414.5170324430437 7227.60990603698
1415.320161879672 7427.534098129679
1416.1230953787435 7560.374138379874
1416.925832993742 7295.887505877994
1417.7283747781275 7197.946688349095
1418.5307207853439 7246.656345076692
1419.3328710688093 7500.613305852319
1420.134825681922 7251.257843339964
1420.9365846780584 7266.655125096775
1421.7381481105713 7398.409061182856
1422.539516032788 7368.183402683064
1423.3406884980232 7298.790624479187
1424.1416655595604 7207.7911377487035
1424.942447270665 7347.325999222792
1425.7430336845828 7576.362788706136
1426.5434248545298 7462.9305961916125
1427.3436208337116 7557.574851681713
1428.143621675301 7596.889017001554
1428.9434274324558 7688.860212061229
1429.7430381583108 7561.219060911042
1430.5424539059713 7582.110222386977
1431.3416747285337 7870.045482056861
1432.1407006790632 7761.529021493373
1432.9395318106053 7689.380831738819
1433.7381681761835 7660.406917450497
1434.5366098288014 7811.749867316861
1435.3348568214424 7677.317622218681
1436.1329092070573 7717.087876794323
1436.9307670385879 7814.501944330917
1437.7284303689503 7879.1873724898205
1438.5258992510335 7758.083699812402
1439.3231737377118 7672.1849940613465
1440.1202538818306 7763.681517281427
1440.9171397362225 7646.936665198278
1441.7138313536925 7735.196734520975
1442.5103287870243 7636.817560083626
1443.3066320889775 7446.902161044721
1444.1027413122956 7646.13730747099
1444.8986565096966 7521.804136495698
1445.694377733882 7515.984199715832
1446.4899050375207 7418.059157821459
1447.2852384732687 7518.63329416981
1448.0803780937622 7400.1999683717395
1448.8753239516063 7265.693594670614
1449.6700760993954 7276.200806236006
1450.464634589689 7378.030438094242
1451.2589994750397 7454.496646692161
1452.0531708079689 7049.526280487448
1452.8471486409799 6972.160173656672
1453.6409330265524 7216.200662864629
1454.4345240171442 7097.657967523654
1455.2279216651987 7074.899876862104
1456.0211260231263 7198.535396468612
1456.8141371433194 7345.015175226229
1457.6069550781594 7216.555883197856
1458.3995798799897 6847.35169202916
1459.1920116011424 6975.56747654115
1459.98425029393 6971.556138110682
1460.7762960106338 6952.343660445624
1461.5681488035225 6957.9963454958315
1462.3598087248392 7033.915478893349
1463.1512758268036 6967.111023905103
1463.942550161617 6891.954424889203
1464.7336317814625 6851.649191141235
1465.524520738496 6960.111174422792
1466.3152170848552 6813.522304383789
1467.1057208726506 6796.440740105378
1467.8960321539817 6855.242488136972
1468.6861509809169 6741.262877137866
1469.4760774055085 6665.4669224075915
1470.265811479785 6683.5335590458
1471.055353255755 6618.088629210093
1471.844702785409 6501.984786308747
1472.6338601207044 6552.353014859704
1473.4228253135934 6764.927183242491
1474.2115984159936 6477.858885661308
1475.0001794798063 6409.457115979393
1475.7885685569145 6546.571378759766
1476.576765699172 6499.4720878571015
1477.3647709584238 6544.271859018711
1478.1525843864802 6612.020947435641
1478.9402060351367 6621.825639962439
1479.7276359561693 6555.7539935568075
1480.514874201328 6498.091777013027
1481.3019208223468 6337.877716367735
1482.0887758709323 6324.456616913583
1482.8754393987747 6610.056411155332
1483.6619114575406 6292.169771762625
1484.4481920988783 6424.406105946758
1485.2342813744108 6455.737336548618
1486.0201793357446 6565.495816751619
1486.8058860344572 6439.671054055265
1487.591401522117 6377.923424666833
1488.3767258502594 6417.719736531632
1489.1618590704056 6403.594346423097
1489.9468012340494 6299.160339073202
1490.7315523926754 6528.165705821873
1491.5161125977356 6634.797323595924
1492.3004819006637 6429.400057960366
1493.084660352877 6298.085112474924
1493.8686480057622 6391.274743451267
1494.6524449106964 6452.2803660371665
1495.4360511190262 6524.646733230284
1496.219466682087 6405.387622288055
1497.0026916511779 6370.233015752818
1497.7857260775945 6438.474670835954
1498.5685700125996 6517.546880071718
1499.3512235074395 6410.566377274969
1500.133686613337 6269.966571080513
1500.9159593814966 6394.22032206483
1501.698041863101 6554.796478713205
1502.4799341093094 6333.0190040995385
1503.2616361712662 6251.17720432544
1504.043148100087 6358.339047831946
1504.8244699468742 6391.461672601703
1505.6056017626997 6290.179359229198
1506.3865435986281 6334.305157416364
1507.1672955056893 6349.837963981159
1507.9478575348967 6292.476090377268
1508.7282297372512 6461.702703187718
1509.5084121637192 6289.139836354194
1510.2884048652577 6273.976565671737
1511.0682078927948 6315.781381308455
1511.8478212972423 6315.106981792176
1512.6272451294917 6274.841015132462
1513.4064794404076 6348.670231157992
1514.1855242808433 6511.983977894548
1514.9643797016215 6299.958833584029
1515.743045753552 6368.071209318505
1516.5215224874191 6294.595292545355
1517.2998099539836 6331.530417300195
1518.077908203999 6351.903671553643
1518.8558172881785 6489.184953337999
1519.633537257234 6490.497700803693
1520.4110681618404 6424.442022332887
1521.1884100526604 6469.100610723787
1521.9655629803365 6550.015569620265
1522.7425269954856 6611.486806419547
1523.5193021487103 6641.139228855485
1524.2958884905856 6509.585766543672
1525.0722860716687 6605.163019316252
1525.848494942502 6581.125895463416
1526.624515153595 6602.983748650478
1527.4003467554485 6667.81588764348
1528.175989798534 6615.257169254303
1528.9514443333064 6701.004152221979
1529.726710410203 6914.84740428944
1530.5017880796331 6648.97739805232
1531.276677391992 6663.13288803238
1532.0513783976457 6793.154226230299
1532.825891146953 6734.896653582489
1533.6002156902414 6819.717468877262
1534.3743520778207 6738.335504920788
1535.1483003599806 6752.112074707725
1535.9220605869923 6728.3394575735465
1536.6956328091019 6792.742755702273
1537.4690170765407 6730.011032262812
1538.242213439511 6859.171829881941
1539.015221948208 6741.884307422942
1539.78804265279 6722.074577687845
1540.560675603405 6638.825943097707
1541.3331208501804 6751.77408481682
1542.1053784432224 6731.3064873759995
1542.8774484326168 6724.151165962995
1543.649330868422 6700.51092269184
1544.4210258006842 6681.743452345543
1545.1925332794308 6728.033454397587
1545.9638533546604 6559.8981442204695
1546.7349860763552 6667.666533720844
1547.5059314944829 6800.524987795778
1548.27668965898 6637.161299671466
1549.0472606197673 6736.963065888597
1549.817644426752 6546.475351486286
1550.5878411298072 6647.597985479972
1551.3578507787988 6675.827353878235
1552.1276734235635 6617.2012681169435
1552.8973091139233 6658.587635009304
1553.6667578996767 6732.215464411334
1554.436019830604 6623.597969234247
1555.20509495646 6564.53027546731
1555.9739833269869 6512.017899692502
1556.7426849919011 6588.696390023806
1557.511200000903 6737.159712509555
1558.2795284036674 6620.594160603648
1559.0476702498509 6516.923684155096
1559.8156255890954 6786.68594515127
1560.5833944710157 6944.682280750916
1561.3509769452048 6583.1838824575925
1562.1183730612447 6574.491163849954
1562.8855828686865 6597.544513071123
1563.6526064170703 6922.373238941963
1564.4194437559127 6680.915849985315
1565.1860949347047 6625.506774030937
1565.9525600029283 6786.562547667185
1566.7188390100328 6936.92148991892
1567.4849320054564 6484.869603519943
1568.250839038612 6574.263339266526
1569.0165601588997 6725.607035171366
1569.7820954156887 6874.208226132469
1570.5474448583373 6503.656143351962
1571.31260853618 6507.715977235926
1572.0775864985299 6510.429013412837
1572.8423787946813 6777.810199788031
1573.6069854739108 6600.763010777957
1574.371406585471 6627.683652661426
1575.1356421785986 6788.896938880415
1575.899692302506 6486.005475620128
1576.6635570063845 6646.919887721912
1577.4272363394157 6661.799160555711
1578.190730350747 6518.87929605873
1578.9540390895163 6589.9653713004645
1579.7171626048384 6426.280942035185
1580.480100945806 6348.243599789718
1581.2428541614918 6561.9360048497565
1582.0054223009538 6495.306027994345
1582.767805413223 6521.084333888416
1583.5300035473156 6335.11335669038
1584.292016752228 6530.20257306696
1585.0538450769309 6579.9442299262955
1585.8154885703807 6316.042983980908
1586.5769472815136 6391.792390140601
1587.3382212592405 6493.964893500134
1588.099310552463 6599.02793117932
1588.8602152100484 6290.900029092404
1589.6209352808564 6519.582065686555
1590.3814708137234 6236.728305608042
1591.14182185746 6457.825863643609
1591.9019884608679 6432.428066568712
1592.6619706727215 6311.470559227244
1593.4217685417734 6432.747295101303
1594.1813821167616 6436.75674486262
1594.9408114464022 6169.595269350566
1595.7000565793933 6482.919376740358
1596.459117564409 6447.928127671309
1597.2179944501113 6358.1081897825525
1597.9766872851324 6259.117028920314
1598.735196118092 6282.68183497659
1599.4935209975883 6294.702667744544
1600.2516619721973 6325.657757160536
1601.0096190904787 6358.940319962628
1601.7673924009723 6278.2245764526215
1602.524981952196 6198.66315594142
1603.2823877926476 6251.7778426757395
1604.0396099708087 6226.773781057864
1604.7966485351371 6201.382933037842
1605.5535035340745 6285.626586566511
1606.3101750160404 6425.087260004862
1607.0666630294363 6288.9223946418
1607.822967622642 6167.78599951559
1608.5790888440224 6313.586439061973
1609.3350267419137 6350.296046102735
1610.0907813646445 6178.6705677715345
1610.8463527605145 6197.8781145470675
1611.601740977805 6388.821937487003
1612.356946064785 6245.586307425246
1613.1119680696902 6149.7871125268375
1613.8668070407512 6195.349011715019
1614.6214630261748 6191.448002476755
1615.375936074137 6316.294271908133
1616.1302262328118 6168.852318438194
1616.8843335503425 6147.261257209944
1617.638258074854 6112.690676764041
1618.391999854457 6253.143086239693
1619.1455589372363 6179.558428331633
1619.8989353712623 6166.685483217889
1620.65212920458 6102.671031260028
1621.4051404852235 6103.258710071316
1622.1579692611976 6154.512268514087
1622.9106155804966 5961.625147098613
1623.663079491087 6009.609086455258
1624.4153610409248 6138.317826460343
1625.1674602779385 6020.53973067161
1625.9193772500403 6009.03805517318
1626.6711120051277 6122.792827572857
1627.4226645910676 6065.348080578126
1628.174035055721 5897.987909196
1628.9252234469168 6065.412576978458
1629.676229812474 5934.931524736312
1630.4270542001905 6157.170067203923
1631.1776966578382 6053.9550614560385
1631.9281572331747 6038.636580746349
1632.678435973945 6337.121457759187
1633.4285329278573 6043.0408539140935
1634.1784481426203 5901.881360242299
1634.9281816659113 6005.804561230294
1635.677733545388 6185.5238379979655
1636.4271038286934 6087.0843841387195
1637.176292563452 6198.963888782602
1637.9252997972635 6120.622909139981
1638.674125577716 6221.754190728642
1639.4227699523672 6465.930724214055
1640.171232968767 6059.094537376634
1640.9195146744423 6181.922956534489
1641.6676151168977 6360.53626494817
1642.4155343436178 6411.9700847664935
1643.1632724020765 6317.74953151904
1643.9108293397167 6293.6069321905
1644.658205203974 6229.443843133961
1645.4054000422566 6560.248139574278
1646.1524139019566 6238.376926333254
1646.8992468304423 6253.270938267475
1647.6458988750728 6274.284448969067
1648.3923700831765 6392.807695511665
1649.1386605020743 6283.133021619475
1649.8847701790564 6370.839529889088
1650.6306991614038 6393.5373251296005
1651.3764474963682 6410.622866138134
1652.1220152311944 6106.149487612771
1652.867402413096 6416.505958301066
1653.6126090892776 6297.453936599349
1654.3576353069184 6465.214416586626
1655.1024811131829 6252.459440582262
1655.8471465552066 6151.55695888923
1656.5916316801213 6316.884996698711
1657.3359365350298 6247.226120318113
1658.0800611670165 6104.542809973631
1658.824005623148 5935.3686230412695
1659.5677699504722 5992.892377928905
1660.3113541960192 6042.345565691094
1661.054758406799 6025.265274173832
1661.7979826297997 5877.255499378496
1662.5410269119966 5923.607442953571
1663.283891300338 5933.833736377542
1664.0265758417645 5855.573108679662
1664.7690805831826 5904.633729514275
1665.5114055714948 5854.445601240353
1666.2535508535748 5916.287441197079
1666.9955164762814 5640.55383572605
1667.7373024864555 5768.772283423831
1668.478908930916 5781.052170127203
1669.220335856462 5689.957179020278
1669.9615833098778 5489.016312241488
1670.7026513379296 5614.076302208719
1671.44353998736 5650.394771974739
1672.1842493048916 5536.039059058547
1672.9247793372379 5496.002212098609
1673.6651301310812 5467.099056282261
1674.4053017330934 5405.800974602119
1675.1452941899242 5524.108370487397
1675.885107548207 5121.410728937999
1676.6247418545518 5196.8821845156535
1677.3641971555535 5331.107069292974
1678.1034734977893 5309.567948345026
1678.8425709278108 5324.21051190873
1679.5814894921605 5261.593772461142
1680.320229237359 5225.148710866479
1681.0587902098978 5263.220587918337
1681.7971724562685 5175.160589191701
1682.5353760229264 4947.090637621748
1683.2734009563173 5149.845485730738
1684.0112473028657 4987.8267734446035
1684.7489151089794 5091.350085488142
1685.4864044210462 5171.307537102439
1686.2237152854377 4788.263240602378
1686.960847748498 5139.892037367574
1687.6978018565642 4864.642768700007
1688.434577655944 4836.26476185684
1689.1711751929379 4837.746862054062
1689.9075945138156 5063.635269814758
1690.6438356648396 4852.48569745337
1691.3798986922448 4581.189883434711
1692.1157836422499 4789.6279959164885
1692.851490561059 4700.866034873391
1693.587019494853 4674.2912410829385
1694.3223704897991 4572.929128291684
1695.0575435920364 4641.197819683772
1695.792538847696 4815.185171337746
1696.527356302886 4628.300114014956
1697.2619960036936 4629.029076804122
1697.9964579961907 4502.576926434881
1698.730742326432 4316.83449433715
1699.4648490404488 4385.012059347163
1700.1987781842563 4384.504431219602
1700.9325298038548 4525.536974339508
1701.6661039452174 4521.627836789865
1702.3995006543082 4646.270815642106
1703.1327199770658 4487.838356859532
1703.865761959416 4413.170569127714
1704.598626647261 4508.48319186544
1705.3313140864866 4255.348866063226
1706.0638243229587 4266.378463927526
1706.7961574025303 4441.90784312627
1707.528313371029 4440.607390183117
1708.260292274268 4207.242865341142
1708.9920941580403 4265.9046644209975
1709.7237190681226 4308.809133986314
1710.4551670502697 4264.888414346559
1711.18643815022 4183.680623189421
1711.9175324136959 4427.551410938045
1712.6484498863938 4150.656431789566
1713.379190614005 4056.8670523732535
1714.109754642188 4223.789008165104
1714.8401420165883 4119.397008489577
1715.570352782839 4533.352561146761
1716.3003869865497 4154.904294087745
1717.0302446733076 4178.823994580742
1717.7599258886876 4173.6572828827775
1718.4894306782444 4395.2419380876145
1719.2187590875183 4185.440658982572
1719.9479111620203 4230.862999253941
1720.6768869472544 4072.1098443708206
1721.4056864887025 4297.984732962746
1722.1343098318284 4306.949899193751
1722.8627570220742 4148.6833439756165
1723.591028104871 3981.0900679615224
1724.3191231256242 4081.3163448672967
1725.0470421297232 4114.548409094398
1725.7747851625427 4112.168327388369
1726.5023522694337 4112.4618078245785
1727.2297434957363 4086.0946465032093
1727.9569588867635 3842.4340952121247
1728.6839984878152 4078.866126669839
1729.4108623441734 3789.094031752285
1730.1375505011038 4051.230544477148
1730.8640630038426 3959.914124918164
1731.5903998976264 3864.4736049042563
1732.316561227657 4006.29762629121
1733.0425470391274 3862.3320659730853
1733.7683573772065 3962.570480453075
1734.4939922870508 4061.560298779839
1735.2194518137949 4070.9125595356973
1735.9447360025606 3942.2351979515574
1736.669844898439 3989.07228398874
1737.3947785465189 3786.9484474346987
1738.1195369918605 3806.3507291560686
1738.8441202795093 3956.171762068664
1739.5685284544943 4011.0683766518932
1740.292761561821 3956.3404431298586
1741.0168196464838 4022.35827173005
1741.7407027534518 4066.9159857412233
1742.464410927687 3952.0583730900603
1743.187944214118 3951.493881838715
1743.9113026576688 3941.1574882554364
1744.634486303241 3984.848871454299
1745.3574951957125 3951.987224442238
1746.0803293799509 3967.050889664776
1746.8029889008048 3926.114601123771
1747.5254738031017 3997.068716712826
1748.2477841316504 3733.203632867153
1748.969919931249 3869.094871632487
1749.6918812466665 3777.832583926859
1750.4136681226646 3865.261922297552
1751.1352806039777 3911.0648547069395
1751.856718735331 3689.398849269842
1752.5779825614281 3750.1251720339183
1753.2990721269507 3978.3032781391726
1754.0199874765676 3787.4322506551666
1754.7407286549314 3658.4128811616124
1755.4612957066693 3853.4776191171536
1756.1816886763954 3792.439275532427
1756.9019076087097 3891.0933964346414
1757.6219525481865 3827.5261009556352
1758.3418235393856 3920.748790163758
1759.061520626854 3850.0460464108864
1759.7810438551096 4021.9068992644666
1760.5003932686614 3819.9071447210576
1761.2195689119999 3890.651167786891
1761.938570829594 3770.1539563010847
1762.657399065898 3862.5038274583503
1763.376053665348 3659.0786300927307
1764.0945346723602 3663.990107744981
1764.812842131334 3900.475001764258
1765.5309760866512 3701.413264962407
1766.2489365826787 3709.483783474654
1766.9667236637597 3807.6737366297734
1767.684337374223 3679.6062399459324
1768.401777758383 3687.376982103091
1769.1190448605284 3695.3050344636817
1769.836138724937 3618.6056244188003
1770.5530593958665 3742.457686031299
1771.2698069175603 3986.479769015494
1771.9863813342326 3831.1747449329473
1772.702782690094 3676.1394593956256
1773.4190110293293 3787.3647701685013
1774.1350663961111 3746.206660992193
1774.8509488345844 3624.855286933057
1775.5666583888924 3691.4781533737305
1776.2821951031437 3793.1666283702507
1776.9975590214362 3712.6031270922003
1777.7127501878585 3819.2107819100106
1778.4277686464684 3828.4173170040085
1779.1426144413108 3736.0879156614405
1779.8572876164162 3663.0919964185427
1780.571788215797 3495.4649060076126
1781.2861162834415 3700.548849061647
1782.0002718633277 3581.966416316144
1782.7142549994132 3731.2572185824574
1783.4280657356376 3705.8128467105425
1784.141704115922 3640.5662546485764
1784.855170184177 3698.4717772995473
1785.5684639842839 3654.4228502810633
1786.2815855601148 3389.4275257977015
1786.9945349555237 3782.644504342098
1787.707312214343 3557.139577835759
1788.4199173803918 3959.5651530409764
1789.132350497468 3500.815373291237
1789.8446116093583 3626.9023232697245
1790.556700759822 3510.4880539378623
1791.2686179926077 3705.606849731802
1791.9803633514493 3611.2265238609166
1792.6919368800554 3532.0859279727256
1793.4033386221236 3633.125843772809
1794.1145686213295 3845.44859743745
1794.8256269213307 3669.527017793681
1795.536513565774 3675.834435272484
1796.247228598284 3351.729953209354
1796.9577720624693 3571.885083475098
1797.6681440019165 3703.7146932508635
1798.3783444602013 3648.1923227810557
1799.0883734808776 3563.597200748467
1799.7982311074884 3632.7191882736784
1800.5079173835475 3785.8506703336425
1801.2174323525633 3622.09477703018
1801.9267760580187 3560.292051582857
1802.635948543386 3544.51171609831
1803.3449498521113 3355.7605369325997
1804.0537800276325 3604.4208301031417
1804.7624391133668 3641.4181775314405
1805.47092715271 3324.739752143299
1806.1792441890484 3530.845468092589
1806.8873902657433 3539.879021753877
1807.5953654261448 3516.637255413879
1808.3031697135812 3434.4288855632467
1809.0108031713662 3399.47946200949
1809.71826584279 3469.2290888809703
1810.425557771141 3486.4977194484222
1811.1326789996747 3740.1689956203145
1811.839629571632 3494.6940124765765
1812.5464095302468 3382.192419241256
1813.2530189187182 3549.7406787337773
1813.959457780249 3522.874709903305
1814.6657261580076 3624.5232290585154
1815.371824095153 3518.2903486554433
1816.0777516348262 3582.515552842622
1816.78350882015 3280.712452733909
1817.4890956942272 3411.1916566109894
1818.1945123001533 3458.2235734679152
1818.8997586809928 3584.087028076604
1819.6048348798067 3381.6607190697396
1820.3097409396287 3443.0170644395134
1821.0144769034796 3761.807529452994
1821.7190428143622 3541.151836070762
1822.423438715261 3617.2705215938863
1823.1276646491478 3424.5210200430993
1823.8317206589727 3560.756554160853
1824.5356067876692 3371.7737406557344
1825.2393230781581 3305.314030781958
1825.942869573335 3266.5171472985085
1826.646246316086 3394.173338312875
1827.3494533492758 3450.4320723228725
1828.052490715756 3516.0295609989903
1828.7553584583547 3482.4639221342086
1829.458056619891 3619.8275294683763
1830.1605852431585 3426.54803116416
1830.8629443709433 3412.6698085446346
1831.5651340460063 3470.5653901174383
1832.2671543110919 3280.0312990046345
1832.9690052089318 3582.0597569610704
1833.6706867822395 3293.1062126836214
1834.3721990737104 3520.9418782489593
1835.0735421260233 3498.5515777551964
1835.774715981841 3518.1847191507622
1836.4757206838058 3476.798696934108
1837.1765562745459 3412.472690930657
1837.8772227966747 3351.4916813956647
1838.5777202927839 3346.599000976279
1839.2780488054523 3398.8359464882074
1839.9782083772352 3288.349592084845
1840.6781990506806 3584.1111311821005
1841.378020868313 3404.421410804092
1842.0776738726418 3399.77185029069
1842.777158106157 3297.169829279931
1843.4764736113375 3261.988812257011
1844.1756204306403 3458.9049062519384
1844.8745986065078 3328.029618874248
1845.5734081813607 3287.4806789659365
1846.2720491976124 3314.170845500382
1846.970521697649 3266.384431627669
1847.6688257238511 3479.1755095141607
1848.3669613185684 3324.153429522238
1849.0649285241452 3132.2411973091066
1849.7627273829057 3384.0967462784997
1850.460357937156 3372.2700243332715
1851.1578202291857 3212.860271512854
1851.8551143012664 3386.5891212885554
1852.5522401956569 3317.3010980817226
1853.2491979545957 3467.413874013204
1853.9459876203055 3189.334474216987
1854.6426092349902 3293.298924485987
1855.3390628408451 3248.6607675522414
1856.0353484800362 3349.2208843306844
1856.7314661947203 3410.4270480088335
1857.4274160270397 3193.6069247236433
1858.123198019115 3166.7361431389245
1858.8188122130487 3215.113846776022
1859.5142586509319 3300.7875241326037
1860.209537374838 3275.6227765090266
1860.9046484268183 3208.7438860435213
1861.599591848917 3433.405224971883
1862.294367683151 3202.2692110837684
1862.988975971528 3282.8425903061884
1863.6834167560355 3143.381502058599
1864.3776900786452 3348.4621268727874
1865.0717959813119 3252.38217918225
1865.7657345059724 3188.4649167056637
1866.4595056945564 3301.6528431111815
1867.1531095889586 3321.6948026351442
1867.846546231076 3082.3349825000187
1868.5398156627743 3313.233191871876
1869.2329179259123 3228.546532411354
1869.9258530623283 3406.5589430354826
1870.618621113843 3251.5830479955816
1871.3112221222636 3150.663510192659
1872.0036561293764 3074.9547601091163
1872.695923176956 3289.993377333039
1873.3880233067594 3360.1867472800236
1874.0799565605212 3132.0849254754676
1874.7717229799673 3250.7806283926993
1875.4633226068036 3268.333056812825
1876.1547554827175 3354.800839436198
1876.8460216493859 3224.188265729995
1877.5371211484617 3246.2598520005035
1878.2280540215852 3293.10804629849
1878.9188203103804 2998.286343718907
1879.6094200564548 3138.8367227062035
1880.299853301396 3121.7482308702106
1880.9901200867826 3424.009001041109
1881.6802204541673 3270.291640501521
1882.3701544450942 3281.569592072665
1883.059922101087 3027.827396175019
1883.7495234636517 3418.805756306493
1884.4389585742792 3033.8005686283914
1885.1282274744517 3085.7347565907335
1885.8173302056166 3434.635131904744
1886.506266809225 3295.063937386172
1887.195037326701 3036.595787508287
1887.8836417994517 3230.8094633074497
1888.5720802688702 3352.9515514645304
1889.260352776333 3241.816278373188
1889.9484593632042 3195.0626831142067
1890.63640007082 3116.0437943156458
1891.3241749405151 2966.996440491425
1892.0117840135954 3154.3624535957433
1892.6992273313572 3200.116304830778
1893.3865049350788 3031.0311041661234
1894.0736168660223 3341.2319549813574
1894.7605631654333 3213.23354009795
1895.4473438745408 2974.9435442053573
1896.133959034556 3343.085625148911
1896.820408686679 3268.477217669308
1897.506692872088 3267.706480191097
1898.192811631945 3144.909263186236
1898.8787650073991 3083.4731505410227
1899.5645530395832 3335.9331159532803
1900.2501757696118 3263.051564630181
1900.9356332385796 3006.4181249052644
1901.620925487574 3301.7061797365764
1902.3060525576602 3158.5978528957785
1902.9910144898859 3248.862921557559
1903.6758113252872 2939.459131010394
1904.3604431048789 3222.0425275115754
1905.0449098696663 3104.40617722863
1905.7292116606295 3019.3689269062716
1906.4133485187394 3129.5520177834483
1907.0973204849488 2823.0539325412597
1907.7811276001976 2953.2802491962548
1908.4647699053967 3160.6324452279255
1909.1482474414588 2608.065996045031
1909.8315602492694 2918.9510974188784
1910.5147083696957 3198.0885390948997
1911.1976918436012 3054.572126838136
1911.880510711815 2951.1574605153937
1912.5631650151681 3150.4334768968647
1913.2456547944657 3010.782681832485
1913.927980090495 3158.619384460185
1914.6101409440362 3000.2785567343894
1915.2921373958416 3040.2982986079405
1915.9739694866603 3146.969103593952
1916.655637257214 3213.153646208033
1917.3371407482136 3038.8030359811587
1918.0184800003572 3313.417627052765
1918.6996550543154 3212.0043030527427
1919.3806659507554 3092.6853589168577
1920.0615127303208 3138.2648532351586
1920.7421954336423 3236.6791723251463
1921.4227141013343 3120.4272697464617
1922.103068773993 3081.165596031334
1922.783259492202 3189.8071788390316
1923.4632862965227 2941.269662898129
1924.1431492275078 2895.6097738615567
1924.8228483256917 2984.2455307791306
1925.5023836315922 2941.6478641335098
1926.1817551857057 2815.1018508324255
1926.8609630285227 3112.562552204386
1927.5400072005123 3225.5336785162503
1928.218887742125 2892.5131326841515
1928.8976046938005 2998.3496345712115
1929.5761580959588 3097.099540502933
1930.2545479890086 3016.0420492751045
1930.9327744133352 2843.7936416566226
1931.6108374093164 3056.9738780100815
1932.2887370173066 3123.7099279617405
1932.9664732776473 2745.3909965869184
1933.6440462306673 3024.1788640520053
1934.3214559166754 3034.0899450325223
1934.9987023759659 3105.42702261893
1935.675785648813 2912.597031779458
1936.3527057754836 2749.7009321324235
1937.029462796223 3297.4069395633865
1937.70605675126 2964.5975815994443
1938.3824876808085 2880.357613336658
1939.058755625072 3033.113376660972
1939.7348606242267 2953.6393274837083
1940.4108027184448 3016.2222636835204
1941.0865819478713 3095.1901738125202
1941.7621983526478 2947.5890093339476
1942.4376519728921 2898.2699527850673
1943.1129428487038 3011.792826313125
1943.7880710201734 2946.9582291795177
1944.4630365273733 3082.73284175196
1945.1378394103576 2891.6335270397094
1945.8124797091714 3166.090876958323
1946.4869574638324 2765.327940351267
1947.161272714353 2798.817557505738
1947.8354255007234 3233.042989181661
1948.5094158629272 2811.6677959969743
1949.1832438409183 3073.452912751376
1949.8569094746435 3099.44502892298
1950.530412804037 3108.9999138015255
1951.2037538690092 3113.7125080246265
1951.8769327094578 2942.6697126786808
1952.5499493652678 2949.068688605138
1953.222803876306 3020.509825625836
1953.895496282421 2996.5509761627363
1954.5680266234522 2943.1815741879345
1955.2403949392155 2994.862465682764
1955.9126012695142 2749.09015071571
1956.5846456541403 2937.21107917368
1957.2565281328643 2828.7759323265464
1957.9282487454457 3014.3904007769115
1958.5998075316202 2999.942142115306
1959.27120453112 2852.5149815318873
1959.9424397836501 3023.227398707583
1960.613513328908 2921.7822740440984
1961.2844252065697 3044.7767753417497
1961.9551754563017 2939.1511667776435
1962.6257641177453 2861.73039223716
1963.29619123054 2763.4164976719358
1963.966456834296 2666.7986550233354
1964.6365609686181 2750.0788926137952
1965.306503673086 3086.4549998866373
1965.976284987275 2791.518010595146
1966.645904950734 2813.6342806625757
1967.315363603002 2777.4828951037844
1967.9846609836077 2803.3327453691127
1968.6537971320486 2681.002495614568
1969.3227720878222 2972.1978477220337
1969.9915858904042 2858.557347400151
1970.660238579252 2998.830773824431
1971.3287301938108 2949.608459400418
1971.997060773514 2811.620459528523
1972.665230357772 2751.995627806468
1973.3332389859843 2799.5555562900854
1974.0010866975335 2729.5008068642906
1974.6687735317864 2799.325841312852
1975.3362995280932 3054.9255909243793
1976.003664725793 2913.374391162247
1976.6708691642052 2716.7055870717577
1977.3379128826364 2865.8149182488787
1978.004795920373 2885.4920159605417
1978.6715183166925 3067.4613485480904
1979.3380801108524 2570.8086127859433
1980.0044813420973 2859.596317464696
1980.6707220496555 2560.0605125655516
1981.3368022727373 2812.630328800443
1982.0027220505417 2803.9307974937424
1982.66848142225 2581.3291074362214
1983.3340804270283 2625.8667257210836
1983.999519104027 2844.0181512705967
1984.6647974923835 2889.04535170737
1985.329915631215 2734.241877529143
1985.99487355963 2786.1709764880356
1986.6596713167146 2960.8563364263055
1987.3243089415428 2679.433684126946
1987.9887864731754 2824.901145286643
1988.6531039506553 2666.8665646868
1989.3172614130071 2669.6507721351904
1989.9812588992481 2672.4818045273587
1990.645096448372 2550.4255358458663
1991.3087740993633 2701.5852681824863
1991.9722918911848 2659.47959254947
1992.635649862792 2897.313061581113
1993.2988480531185 2836.10770286085
1993.9618865010852 3088.9509377619984
1994.6247652455968 2776.731524436796
1995.287484325545 2732.895997831378
1995.9500437798033 2669.7217138866017
1996.6124436472292 2707.5800879408357
1997.2746839666706 2861.093515486555
1997.936764776954 2679.328533935683
1998.598686116895 2722.5113444992276
1999.2604480252903 3032.4504564007852
1999.9220505409212 2851.0524386655
2000.5834937025593 2608.430738443967
2001.2447775489582 2781.937803351371
2001.9059021188514 2775.287836559085
2002.5668674509616 2712.7071927887137
2003.2276735839987 2659.0819251681573
2003.8883205566508 3004.8121300923663
2004.5488084075987 2696.8709446413304
2005.2091371755014 2755.5890541144445
2005.8693068990033 2619.981688172481
2006.5293176167397 2856.129236044731
2007.1891693673224 2523.9065291571837
2007.848862189354 2424.7245508957967
2008.5083961214223 2621.5566425552083
2009.1677712020955 2622.489974069922
2009.8269874699254 2685.0236654248465
2010.4860449634598 3052.262676118635
2011.1449437212177 2594.9872617519154
2011.8036837817108 2943.5486490799285
2012.4622651834325 2762.533667428697
2013.1206879648653 2682.7886422488987
2013.7789521644736 2968.250236569388
2014.4370578207036 2450.16896047444
2015.0950049719922 2653.9854001915805
2015.7527936567585 2802.4487881865934
2016.4104239134067 2606.9168312783045
2017.067895780323 2916.3412311870457
2017.725209295886 2487.19661784031
2018.3823644984514 2809.9053611445756
2019.0393614263648 2617.235122170951
2019.6962001179545 2587.8014150963954
2020.3528806115355 2819.214525477639
2021.0094029454067 2725.9933028406535
2021.6657671578487 2553.535679633068
2022.321973287133 2654.4652002983576
2022.9780213715148 2687.2588478835446
2023.6339114492293 2709.575189594613
2024.2896435585026 2649.397897718891
2024.9452177375442 2691.392574786466
2025.600634024544 2873.7723557718373
2026.2558924576842 2766.382049395248
2026.9109930751292 2786.2895050911457
2027.565935915025 2683.8276676043674
2028.2207210155066 2916.346538909117
2028.8753484146964 2862.5724833822264
2029.529818150695 2486.170388275155
2030.1841302615903 2649.3712167482927
2030.8382847854573 2620.6004742358573
2031.4922817603601 2734.7645269633135
2032.1461212243357 2698.856933621204
2032.7998032154192 2488.164823171075
2033.4533277716218 2585.1528574632207
2034.1066949309443 2564.4795579245756
2034.7599047313688 2500.6554549640414
2035.4129572108704 2772.2287288376433
2036.0658524074006 2616.8292555392586
2036.7185903589016 2667.3272017367685
2037.3711711032956 2716.923837029929
2038.023594678496 2682.9054970788134
2038.675861122394 2596.044429348889
2039.3279704728757 2822.3638877552557
2039.9799227678031 2492.305800470471
2040.6317180450278 2700.603569244763
2041.2833563423865 2670.7609068251995
2041.9348376977014 2843.181798897581
2042.5861621487784 2679.710554048259
2043.2373297334088 2748.602347481896
2043.8883404893695 2641.1164851813146
2044.5391944544208 2634.788235438029
2045.1898916663158 2784.683020521108
2045.8404321627804 2914.4251749510795
2046.4908159815368 2590.685017798498
2047.1410431602853 2378.3296738692793
2047.7911137367173 2530.9634761195202
2048.441027748504 2794.6473980447267
2049.090785233302 2560.3404291686634
2049.7403862287592 2561.4848870228952
2050.389830772503 2920.875684788557
2051.0391189021466 2359.417895241288
2051.688250655294 2507.9354079798486
2052.337226069527 2494.817962120922
2052.986045182417 2685.6062718620897
2053.634708031521 2335.092772041769
2054.283214654375 2754.1465457079294
2054.931565088511 2352.6102404307953
2055.579759371436 2538.739642129486
2056.2277975406523 2619.9495059296523
2056.8756796336384 2754.2105172997008
2057.5234056878617 2334.8721376964563
2058.1709757407752 2545.433142732963
2058.8183898298194 2749.010134385157
2059.465647992416 2629.514958843947
2060.1127502659747 2717.124287015782
2060.759696687888 2414.85032327306
2061.4064872955405 2680.3149278294977
2062.053122126292 2786.136992022684
2062.699601217497 2248.2174154019563
2063.345924606485 2374.7173323165075
2063.992092330587 2740.7942903841245
2064.638104427102 2480.8229301338447
2065.283960933324 2713.4289286190083
2065.92966188653 2469.2400721687145
2066.5752073239855 2713.4565286280717
2067.2205972829397 2538.4401680478113
2067.86583180062 2467.914982909532
2068.5109109142522 2539.577333022282
2069.15583466104 2503.1932861710725
2069.8006030781708 2466.77792800284
2070.445216202821 2516.908540645527
2071.089674072153 2605.8190756959457
2071.7339767233116 2749.5507510538714
2072.3781241934303 2648.139011061265
2073.0221165196253 2644.8530276122265
2073.6659537390024 2474.9150603841817
2074.3096358886505 2654.554078408896
2074.953163005637 2506.3560983791986
2075.596535127028 2348.88966849535
2076.2397522898664 2456.8626845037647
2076.882814531182 2568.419759293226
2077.5257218879924 2727.11270687099
2078.1684743973 2494.85186105495
2078.8110720960885 2395.3986015536016
2079.453515021336 2843.568924780994
2080.095803209997 2633.7616314702727
2080.7379366990135 2609.8848678609434
2081.37991552532 2658.383055489945
2082.0217397258275 2518.1554109595327
2082.6634093374414 2372.0609132150576
2083.3049243970418 2546.188347036115
2083.9462849415067 2666.510862140714
2084.587491007689 2753.7494203166243
2085.2285426324324 2511.1388691735738
2085.869439852564 2561.771638621135
2086.510182704902 2437.9407585430226
2087.1507712262483 2440.069940941964
2087.791205453381 2408.5598137487277
2088.4314854230743 2536.945867142156
2089.0716111720867 2581.959029927841
2089.7115827371617 2264.725814121353
2090.351400155023 2817.6402705713435
2090.991063462385 2461.882038087719
2091.6305726959527 2481.7451669735156
2092.2699278924047 2652.1517935441148
2092.9091290884153 2496.260035248465
2093.548176320641 2430.0460795164095
2094.187069625721 2532.1213844482018
2094.8258090402887 2210.5827611826307
2095.464394600951 2681.8571487505947
2096.102826344313 2613.237879557618
2096.741104306955 2658.429887118974
2097.379228525453 2520.270010215595
2098.017199036358 2218.147552424243
2098.6550158762147 2697.9352107976147
2099.2926790815527 2634.8107668044513
2099.9301886888825 2530.1639907528015
2100.5675447347076 2519.852954374163
2101.2047472555114 2618.40331834804
2101.841796287761 2300.065151865218
2102.47869186792 2431.8207577675958
2103.1154340324265 2377.4491168980867
2103.752022817709 2626.119714496895
2104.388458260184 2390.9827273158526
2105.024740396251 2481.801437290697
2105.660869262292 2374.858012478772
2106.296844894685 2581.766921079568
2106.93266732978 2468.8181914121524
2107.5683366039284 2358.057932619785
2108.2038527534532 2430.442612337524
2108.8392158146726 2603.844914145159
2109.4744258238843 2419.7117823987005
2110.1094828173755 2549.1125496327923
2110.744386831422 2694.5479053170516
2111.3791379022787 2567.8316153077158
2112.01373606619 2828.4722442856946
2112.648181359389 2607.287151501195
2113.28247381809 2586.4710002424104
2113.916613478492 2621.2744796218476
2114.550600376786 2499.4416698162618
2115.1844345491445 2390.5447937776125
2115.818116031729 2305.5910495370663
2116.451644860679 2551.586735519713
2117.085021072133 2199.3619461428875
2117.718244702204 2377.1583162416855
2118.3513157869984 2295.012162576697
2118.984234362604 2224.8394159570807
2119.617000465092 2503.127886895875
2120.249614130529 2622.637090391352
2120.8820753949585 2545.063167818804
2121.5143842944162 2300.668035148388
2122.14654086492 2349.360983914309
2122.7785451424734 2716.591642019377
2123.4103971630702 2178.3987711934265
2124.042096962681 2613.3051707709333
2124.6736445772767 2515.6130246553685
2125.305040042802 2263.4371476234596
2125.936283395191 2235.6055254382377
2126.567374670365 2379.677472691232
2127.198313904233 2310.6865537544672
2127.8291011326855 2768.673124472347
2128.4597363916037 2324.216294166677
2129.0902197168507 2339.92559388292
2129.720551144279 2316.871183500866
2130.3507307097225 2669.637491695975
2130.980758449008 2495.6750765282254
2131.6106343979427 2330.0911888817545
2132.2403585923203 2374.999456060051
2132.8699310679276 2377.4374541305942
2133.499351860526 2467.2353519092003
2134.1286210058715 2463.437329032246
2134.7577385397053 2113.5063460064866
2135.3867044977487 2641.155316252927
2136.0155189157176 2624.028112250463
2136.644181829308 2476.8269368436363
2137.2726932742025 2349.6143452099977
2137.901053286074 2612.352973408996
2138.5292619005777 2243.0391720442426
2139.1573191533535 2226.1641940380273
2139.7852250800315 2425.5804222598763
2140.4129797162295 2254.136053785925
2141.0405830975433 2189.4861314186496
2141.6680352595613 2155.632789493566
2142.2953362378576 2121.7391123012003
2142.9224860679915 2310.7844791184457
2143.549484785508 2334.543638877441
2144.1763324259373 2446.9428295444022
2144.803029024799 2223.7235305434706
2145.429574617594 2220.6437531493357
2146.0559692398165 2445.8666850247446
2146.682212926942 2244.467135645826
2147.308305714432 2348.9197063788224
2147.9342476377333 2562.7408271356653
2148.5600387322847 2580.781007711
2149.185679033506 2472.8380829214375
2149.8111685768017 2340.7005682052277
2150.4365073975678 2295.2935046694342
2151.061695531187 2333.0155753959953
2151.686733013021 2529.434283056384
2152.311619878423 2466.821342602248
2152.9363561627342 2148.0908514948032
2153.560941901278 2160.504136768724
2154.1853771293663 2307.4213298175337
2154.809661882293 2405.5366202214054
2155.433796195348 2287.6865812750707
2156.0577801037944 2169.4060986371214
2156.681613642895 2426.218013351433
2157.3052968478896 2101.731072718674
2157.928829754006 2386.8570681594947
2158.552212396462 2533.263937801225
2159.1754448104566 2204.7829639171846
2159.7985270311783 2212.4816210794397
2160.4214590938027 2046.3490655529004
2161.0442410334927 2020.830699754474
2161.6668728853874 2296.3524419819755
2162.289354684628 2263.5168967163813
2162.911686466332 2506.238676768941
2163.533868265602 2416.5416858164576
2164.1559001175337 2695.9888279686284
2164.7777820572046 2390.76634493935
2165.399514119681 2293.9811929052407
2166.021096340013 2225.6017581532574
2166.6425287532384 2453.612257267457
2167.263811394385 2140.7834455904795
2167.8849442984574 2538.766752010789
2168.505927500455 2185.4410220245863
2169.126761035366 2244.0905714094806
2169.7474449381552 2334.4710312763145
2170.367979243778 2101.9850851366036
2170.9883639871823 2440.3725461235585
2171.608599203293 2313.8169352365812
2172.2286849270276 2642.892143287474
2172.8486211932886 2563.507106015647
2173.4684080369625 2522.0256106706447
2174.0880454929265 2114.905946503623
2174.7075335960417 2038.2827468438832
2175.3268723811543 2448.180081545761
2175.9460618831 2169.207658927985
2176.565102136701 2254.2101851481384
2177.1839931767627 2612.991746432581
2177.802735038078 2147.163433900119
2178.421327755432 2154.0089247097994
2179.0397713635866 2195.488263390677
2179.658065897298 2318.4094053536965
2180.276211391305 2266.467215178808
2180.8942078803357 2170.1329965471778
2181.5120553991 2267.6967958313476
2182.129753982299 2225.9725896541395
2182.7473036646206 2262.0247059441276
2183.3647044807367 2303.5913754696276
2183.9819564653044 2012.9968812891082
2184.599059652968 2466.759449883674
2185.216014078367 2423.946146707054
2185.832819776113 2434.316578359043
2186.4494767808137 2444.5723412633456
2187.065985127063 2188.678838781842
2187.682344849436 2251.784923420745
2188.298555982501 2463.972979203604
2188.9146185608097 2295.0123082809523
2189.530532618901 2313.156776756426
2190.1462981912937 2317.744930632112
2190.761915312507 2277.5190059104903
2191.377384017036 2068.472528395637
2191.9927043393654 2193.063941407192
2192.6078763139667 2452.3618300646153
2193.2228999753006 2086.7767956832076
2193.837775357808 2341.8035746408946
2194.452502495922 1935.03636395706
2195.0670814240602 2254.803536354077
2195.6815121766285 1955.416844754387
2196.2957947880186 2018.4649793045926
2196.9099292926057 2081.647415003612
2197.523915724758 2303.8496778476956
2198.137754118825 2099.7695049759272
2198.7514445091456 2584.5099301987093
2199.3649869300443 2613.6891675177903
2199.9783814158327 2643.046325172219
2200.5916280008096 2384.839901526825
2201.2047267192593 2353.187887936136
2201.8176776054515 2243.8297251241675
2202.430480693649 2002.3124818791307
2203.0431360180955 2370.5442404586342
2203.6556436130195 2394.5460788059904
2204.268003512645 2385.2353637917504
2204.8802157511727 2376.0071946184307
2205.492280362796 2688.390929661002
2206.1041973816937 2158.9335683236995
2206.715966842032 2219.5900518933186
2207.3275887779655 2249.419575085251
2207.93906322363 2187.722544665795
2208.550390213153 2307.1380742852516
2209.1615697806465 2412.331427424445
2209.7726019602105 2095.692850605973
2210.3834867859277 2136.65992242315
2210.9942242918787 2198.5661937665554
2211.6048145121167 2271.623290005628
2212.2152574806914 2719.1487825215213
2212.825553231638 2109.53456939679
2213.435701798975 2567.4696827064513
2214.045703216707 2213.754263001178
2214.655557518832 1847.1182325409598
2215.2652647393297 1922.488184597607
2215.874824912169 1911.7128388882015
2216.4842380713 2220.822387221046
2217.09350425067 2406.367819800379
2217.7026234842033 2037.661740391839
2218.311595805819 2254.8634152805053
2218.9204212494133 2073.3878675883116
2219.52909984888 2351.648407393664
2220.137631638092 1987.8078126745918
2220.7460166509154 2418.1136327707845
2221.354254921198 2026.119524041803
2221.9623464827764 2256.2039268891176
2222.5702913694713 2154.865882187739
2223.178089615096 2599.729809492375
2223.7857412534486 2190.542387645416
2224.39324631831 1731.6021293354825
2225.000604843457 2099.387504808582
2225.607816862641 2231.0674565557424
2226.214882409611 2114.43030303552
2226.8218015180973 2306.761333050776
2227.4285742218217 2143.407498513551
2228.0352005544864 2188.0976047924205
2228.6416805497847 1973.5644171637512
2229.248014241399 2199.1422110936223
2229.8542016629945 2003.182338736065
2230.460242848223 2136.245270319257
2231.0661378307304 2065.6518745239728
2231.671886644139 1995.033248977135
2232.277489322065 2064.565650161084
2232.8829458981127 1895.7966362308732
2233.48825640587 2225.783000848427
2234.0934208789095 2518.3665727849025
2234.6984393507955 2238.9254226045464
2235.3033118550793 2303.163062230638
2235.9080384252975 2023.316404405971
2236.5126190949723 1969.398184462768
2237.1170538976166 1966.5887082723443
2237.721342866729 1840.9846316353219
2238.32548603579 2042.975913455851
2238.9294834382763 2214.5161861133124
2239.533335107646 2229.4671223589767
2240.1370410773434 2231.216119996354
2240.740601380803 1998.0758094626422
2241.3440160514474 2131.8857044527967
2241.9472851226783 2449.746063701798
2242.550408627896 2186.888514939091
2243.1533866004793 2434.7040279939565
2243.756219073799 1957.7192098503685
2244.3589060812064 2052.387372291395
2244.961447656049 1983.3406515920008
2245.5638438316564 2161.054281808903
2246.166094641343 2160.1396603984645
2246.7682001184166 1950.467978048163
2247.3701602961664 2139.176974304527
2247.971975207871 2276.325830464687
2248.5736448867974 2254.7718198921675
2249.175169366197 1990.7546430395112
2249.7765486793123 2139.8044052945484
2250.3777828593684 2397.6689648010247
2250.9788719395783 2190.804685611893
2251.579815953146 2105.808295352993
2252.1806149332606 1862.4252376727484
2252.781268913097 2198.036490161635
2253.381777925817 1990.193015583239
2253.9821420045737 2188.736977501703
2254.5823611825035 2100.3499733290773
2255.1824354927303 2104.700227590906
2255.782364968365 2035.7222440340743
2256.38214964251 1966.7122219077803
2256.9817895482483 1831.6667340524025
2257.5812847186553 1918.6596097374816
2258.180635186791 2109.524858632789
2258.779840985704 1974.471211893237
2259.37890214843 1986.7293637347452
2259.97781870799 2356.049077220753
2260.5765906973957 2165.1774133670874
2261.175218149645 2177.6779349246303
2261.773701097718 2098.030151877968
2262.3720395745895 1777.8317528963967
2262.970233613216 1635.5599526660942
2263.568283246548 2025.9602087106098
2264.1661885075137 1780.4789384831686
2264.763949429038 1839.3611598783373
2265.3615660440246 2265.4933072260587
2265.959038385374 1899.6208936302453
2266.5563664859637 2315.821694724751
2267.153550378669 1984.5820235216488
2267.7505900963424 2173.447631143035
2268.3474856718312 2033.75600460574
2268.9442371379664 2188.2285182856203
2269.5408445275643 2198.115936364447
2270.1373078734377 2116.4094060139746
2270.7336272083758 1971.8186645246751
2271.32980256516 1849.8727971842
2271.925833976562 2133.831083831455
2272.5217214753357 2258.742266378026
2273.117465094223 1794.0619427997813
2273.7130648659586 1821.9595694506381
2274.308520823257 1949.9327058988642
2274.903832998827 2169.035914392685
2275.4990014253563 1781.026126618052
2276.094026135528 1787.3477838879353
2276.6889071620117 1793.619732270019
2277.2836445374614 2075.0371464183927
2277.878238294519 2004.00461591141
2278.472688465812 1938.9611128238735
2279.066995083962 1873.7541570344001
2279.6611581815705 2048.8231059075456
2280.255177791232 1985.1732880406375
2280.8490539455233 2491.5645292082386
2281.442786677013 2291.593488917506
2282.0363760182554 2285.928826211112
2282.6298220017943 1909.7041726093728
2283.223124660155 2287.497776278382
2283.816284025859 1923.212623067159
2284.4093001314086 2189.5406120923913
2285.002173009292 1968.3777159891392
2285.5949026919952 2102.2760101840922
2286.1874892119777 1918.0820047167829
2286.7799326016993 2078.789036426516
2287.3722328936 1950.5272507618672
2287.964390120109 1661.4013819624258
2288.556404313642 2173.0972258845486
2289.1482755066027 2029.951294222827
2289.7400037313873 2224.0103445913433
2290.3315890203703 2055.281303770943
2290.9230314059205 2260.700026647157
2291.5143309203904 1868.8887731025836
2292.1054875961236 1941.732544489761
2292.6965014654506 2203.30763300134
2293.287372560684 1702.9059790855154
2293.878100914131 1791.9880423922737
2294.468686558086 1881.318047656168
2295.059129524827 2007.4614307191757
2295.649429846617 2270.807519036414
2296.239587555716 1873.1229663602244
2296.8296026843636 2010.6595323960396
2297.419475264791 1939.9192627308535
2298.0092053292137 1868.9268555013307
2298.598792909839 1987.2907607627308
2299.1882380388597 1870.3340864233821
2299.777540748455 1847.6177041592146
2300.3667010707904 1969.0570664222644
2300.9557190380256 2215.6718170102467
2301.544594682302 2247.378804150817
2302.1333280357503 2122.4950882250405
2302.721919130485 1997.51466967609
2303.3103679986198 2230.2692153078524
2303.898674672242 2384.698172523992
2304.486839183437 1748.9573148318566
2305.0748615642697 1882.7815900291105
2305.6627418468015 1999.3060140940943
2306.2504800630704 1944.9905624231583
2306.8380762451143 1968.2366913367944
2307.425530424949 2037.6916673793864
2308.012842634582 2107.29018717218
2308.6000129060103 2284.942718720692
2309.187041271214 2154.3309457785062
2309.773927762164 1746.9529859557358
2310.3606724108213 2040.5136006717626
2310.9472752491274 1819.6240496376704
2311.5337363090184 2107.543822434724
2312.120055622414 2043.1546336885847
2312.706233221221 1962.2447339841904
2313.2922691373424 1758.2228935560702
2313.8781634026564 2275.5054963831103
2314.463916049037 2048.31624187862
2315.049527108342 1922.5042330673018
2315.6349966124235 2239.242433518378
2316.2203245931123 2363.823076615105
2316.8055110822315 1782.3373014207325
2317.3905561115935 1716.5994542010528
2317.9754597129977 1943.442529569671
2318.560221918229 2155.90674554064
2319.1448427590603 1727.3857268109182
2319.729322267256 1810.7559978662648
2320.313660474563 1861.1874722274565
2320.8978574127195 2022.4965906963068
2321.481913113452 2184.3334798014625
2322.0658276084705 1868.7065130156145
2322.6496009294806 2066.831406788653
2323.233233108165 2043.0031871517162
2323.8167241762058 2143.055698046278
2324.4000741652617 1797.0072495148738
2324.983283106987 2212.6111262437657
2325.5663510330232 2321.2441490512892
2326.1492779749933 1860.724326911394
2326.7320639645204 1950.1613409370784
2327.3147090332004 1860.7004979696383
2327.897213212629 1934.6398035199018
2328.4795765343843 2008.5335720853905
2329.0617990300307 1906.6673583456625
2329.643880731124 1868.9661717942304
2330.22582166921 1831.3099350589212
2330.807621875816 2223.929701334197
2331.3892813824623 1686.7437348985761
2331.9708002206517 1730.701139090957
2332.5521784218818 1883.5524308639415
2333.133416017634 1723.9831061133402
2333.7145130393765 1749.6303545384897
2334.295469518571 2156.9994988056587
2334.876285486658 2203.6988906194338
2335.456960975076 2166.0147714371933
2336.037496015242 2128.2839350595573
2336.6178906385667 1973.2816232577832
2337.198144876451 1855.652894732307
2337.778258760278 2058.530037616466
2338.3582323214214 2107.314239285384
2338.938065591243 2156.158918214711
2339.517758601087 2246.357223080283
2340.0973113822965 2021.332381315276
2340.676723966193 1716.4102039990146
2341.255996384094 1984.078160746234
2341.835128667295 2278.2049638850626
2342.4141208470883 2200.9305865617334
2342.992972954751 1981.4850432229482
2343.5716850215467 2006.028483901219
2344.1502570787306 1537.698912719948
2344.7286891575386 1690.2586530538897
2345.3069812892045 1841.2438280524311
2345.885133504944 1992.344314635687
2346.4631458359618 1828.3716541880738
2347.04101831345 1836.5526398666534
2347.6187509685915 1884.7706944922534
2348.196343832553 1856.2541025038809
2348.7737969364935 1923.7129110198246
2349.351110311558 1949.3748508691938
2349.9282839888765 1817.8253461907138
2350.5053179995757 1876.824730236763
2351.0822123747585 1795.976190144572
2351.658967145526 1848.2338452317902
2352.2355823429643 1753.4101614907042
2352.812057998144 1690.1006080358322
2353.3883941421263 1626.7591455922156
2353.9645908059647 1886.9160682045745
2354.540648020693 1947.0160182523741
2355.116565817336 2079.544543380776
2355.6923442269126 2212.3887588896328
2356.2679832804224 2197.157578175964
2356.8434830088518 1730.9920658856267
2357.41884344318 2100.9061266680596
2357.994064614377 1817.7586625152076
