#exp_cfg={"servo_angle": 0.0, "laser_lim": 100.0, "servo_angle_to": 18.0, "laser_wup": 0.0, "bt_dev": "EnSpectr-25AE3", "laser_wdn_max": 0.0, "frames": 10.0, "servo_used": 0, "servo_calib_use": 0, "laser_wdn_min": 0.0, "servo_pix_from": 90.0, "cooler_tout": 300.0, "servo_angle_from": 0.0, "servo_calib": "[-1.9174921013161362e-09, 3.9322238269163779e-05, -0.27385609119055809, 653.59552119713567]", "laser_autoctl": 0, "servo_pix_to": 3682.0, "laser_pw": 100.0, "cooler_on": 0, "laser_volt": 4.0, "cooler_autoctl": 0, "cooler_curr": 70.0, "cooler_startup": 10.0, "laser_fixed_pw": 0, "gain": 1.3, "offset": 2.53059635486, "servo_calib_degree": 3.0, "laser_curr": 55.0, "shutter": 8200.0, "servo_calib_step": 1.0, "laser_fixed_curr": 0, "exp": 2000.0, "ccd_volt": 4.7, "bt_addr": "00:06:66:62:5A:E3", "servo_delay": 500.0, "laser_autooff": 1}
#proc_cfg={"flat_auto_wnd": 200.0, "flat_auto_fr": 200.0, "flat_auto_shift": 5.0, "yconv": 1, "flatten": 1, "flatten_strength": 100.0, "xfrom": 300.0, "auto_max_frame": 2000.0, "auto_signal": 48000.0, "flat_auto_tol": 0.1, "autoclip": 1, "xrel_range": 0.0, "flat_auto_to": 4000.0, "intensity_adj": 1.0, "xrel": 7852.0, "rmhot": 1, "flat_auto_slit": 4.999999999999997, "auto_ini_exp": 300.0, "auto_off": 0, "xto": 2860.0, "flat_auto_ref": "", "flat_auto_rank": 1, "autobackg": 0, "xrel_adj": 0.0, "auto_black_lvl": 1, "base_wnd": 100.0, "sub_baseline": 0, "xconv": 2, "auto_max_exp": 1000.0, "auto_total_exp": 10000.0, "auto_exp": 0, "rmripple": 0, "black_lvl": 8242.0625, "shutter_clip_adj": 0.0, "auto_bckg": 0, "flat_auto_thr": 0.9, "subbackg": 1}
316.8218498245369 22816.420344095954
317.89969571804795 22664.311626030536
318.977263876126 22534.05150903998
320.05455438786703 22378.439145875094
321.1315673423287 22181.20677799696
322.2083028285215 22116.110319649553
323.2847609354267 22075.831347484982
324.3609417519747 21890.01406655535
325.43684536705587 21796.532768292367
326.5124718695279 21738.759743285766
327.58782134820103 21466.387688211893
328.66289389184385 21481.873154672434
329.7376895891921 21237.214101831738
330.8122085289342 21190.563024369414
331.88645079971866 20958.26900631541
332.9604164901575 20808.651782788504
334.03410568881554 20591.421450421774
335.1075184842266 20648.338540703837
336.18065496487543 20470.122289446477
337.2535152192122 20297.561630909284
338.32609933564163 20257.099960905143
339.39840740253203 20107.097484633523
340.4704395082099 20181.395158716266
341.5421957409617 19881.60335356847
342.6136761890357 19900.708102663957
343.6848809406365 19855.435541478266
344.75581008392874 19685.099964736968
345.82646370703696 19573.49775071477
346.8968418980512 19583.216378112316
347.96694474501055 19585.51798724414
349.0367723359268 19507.32497503682
350.106324758759 19402.189550935294
351.1756021014353 19402.66813328874
352.2446044518383 19439.09942033936
353.31333189781435 19436.637154678952
354.38178452716966 19360.13815759539
355.449962427665 19419.785050209386
356.51786568702846 19276.12242103843
357.58549439294256 19396.908057351135
358.6528486330535 19436.08945104777
359.71992849496564 19350.803721540997
360.7867340662433 19424.750432319877
361.8532654344144 19335.051672511527
362.9195226869597 19390.44675275613
363.9855059113288 19411.034469586855
365.05121519492604 19384.02893851475
366.11665062511565 19579.09137950316
367.1818122892273 19512.08123150479
368.2467002745434 19564.38439760969
369.31131466831175 19607.733358071484
370.375655557742 19665.179815289768
371.4397230299983 19723.859141136083
372.5035171722102 19630.87645836395
373.5670380714637 19665.701686717664
374.6302858148101 19749.70199388317
375.6932604892554 19694.41833814688
376.7559621817709 19834.846408563604
377.81839097928605 19641.143072098148
378.8805469686886 19630.26873819368
379.94243023683157 19695.32811402895
381.0040408705263 19565.442390698994
382.0653789565458 19446.362638174254
383.1264445816196 19624.8749232607
384.1872378324406 19482.09837987078
385.2477587956637 19474.563441789232
386.3080075579037 19355.18991290294
387.3679842057336 19316.890534158265
388.4276888256918 19385.99897462441
389.48712150426945 19364.371763336057
390.54628232792857 19235.77012540989
391.6051713830857 19303.53507875665
392.66378875611736 19232.958204896706
393.7221345333637 19227.72596677835
394.7802088011249 19157.100153363812
395.838011645661 19149.38558711422
396.89554315319765 19044.339123833346
397.9528034099112 19059.778217091378
399.00979250194723 18936.998223935934
400.06651051541485 18836.584170208393
401.1229575363741 18830.4127255613
402.17913365085224 18774.18532008163
403.23503894483656 18846.358874384998
404.2906735042761 18595.4557562442
405.3460374150818 18503.11653969501
406.401130763119 18447.58435224596
407.455953634224 18479.310955699842
408.5105061141876 18377.20625153601
409.56478828876243 18176.419974763376
410.6188002436629 18163.59834763653
411.6725420645689 18060.976313592717
412.72601383711117 18125.321276004284
413.77921564689314 18120.637409830633
414.8321475794728 17886.210959925964
415.88480972036814 17851.268949026642
416.93720215506437 17827.357116523497
417.9893249690049 17752.756162285215
419.04117824759123 17581.96482653743
420.09276207619223 17601.655231090277
421.144076540133 17618.06454220568
422.1951217247042 17584.887058522712
423.24589771515275 17467.504530118982
424.2964045966928 17289.969374529846
425.34664245449494 17342.326149939625
426.3966113736933 17223.078545510863
427.4463114393875 17138.553475131725
428.49574273662984 17133.45725616855
429.5449053504417 17107.444984559195
430.5937993658026 17052.58457514296
431.6424248676558 16836.160250288543
432.6907819409007 16875.033879909428
433.73887067040596 16845.063338919506
434.7866911409965 16753.29264746195
435.8342434374608 16799.47701420857
436.88152764455117 16606.207129451355
437.9285438469724 16632.315132000695
438.9752921294057 16497.20549833014
440.02177257648145 16529.060290757254
441.06798527279716 16401.38021501632
442.1139303029122 16513.871087577565
443.1596077513459 16442.778414778386
444.2050177025794 16370.984421132807
445.25016024105753 16390.87659144449
446.2950354511886 16351.373802906097
447.33964341733736 16399.77283407993
448.383984223834 16183.267122247835
449.4280579549686 16205.48481407098
450.471864694995 16289.556143307072
451.5154045281306 16204.467776396723
452.5586775385509 16185.570111754956
453.60168381039693 16199.213006952685
454.64442342776783 16301.874727169552
455.6868964747264 16191.054856281791
456.7291030353008 16065.415322689985
457.77104319347563 16227.296859989332
458.8127170332027 16139.402700990278
459.854124638392 16151.245538198025
460.895266092919 16277.341899322646
461.93614148061897 16200.13073090997
462.97675088529104 16238.77606700729
464.01709439069236 16208.773145524992
465.0571720805492 16260.717167010891
466.0969840385442 16326.729116044715
467.1365303483253 16383.955627712052
468.17581109350067 16350.041355940071
469.2148263576437 16321.577569427387
470.2535762242878 16368.37761915628
471.29206077693016 16592.34586771495
472.33028009902773 16617.022670196293
473.3682342740012 16805.785644427244
474.40592338523857 16886.500507065844
475.4433475160804 17011.28166821332
476.4805067498364 17230.342382232913
477.51740116978 17394.083550425876
478.5540308591426 17692.787170722244
479.59039590112116 18148.617863168078
480.6264963788726 18310.039440626486
481.6623323755193 18788.902571010938
482.6979039741436 19098.53905148397
483.7332112577915 19714.587727311962
484.76825430947247 20206.947478097904
485.80303321215797 20592.814864763557
486.837548048783 20923.240626249055
487.8717989022425 21521.596653051794
488.90578585539697 21581.518266602627
489.9395089910686 22053.287190701485
490.97296839203955 21971.728424613793
492.00616414106116 21952.857490077447
493.0390963208429 21942.077054917296
494.0717650140559 21719.177163338598
495.10417030333883 21520.429137181836
496.1363122712901 21339.531233713944
497.16819100046814 20843.112359529674
498.1998065734024 20356.84661785393
499.2311590725767 20019.462857787126
500.26224858044407 19659.359057555048
501.2930751794156 19276.15028723748
502.3236389518679 18973.260722939296
503.35393998014115 18573.432859403238
504.38397834653733 18309.38676512264
505.4137541333221 18180.960192563718
506.4432674227228 17764.937882540937
507.4725182969323 17622.900275288128
508.5015068381035 17378.61665174123
509.53023312835467 17210.080391508498
510.55869724976765 17182.921079309723
511.58689928438434 16898.679980306915
512.6148393142121 16710.711558032028
513.6425174212218 16777.86177165886
514.6699336873462 16737.724263277545
515.6970881944835 16645.708784321814
516.7239810244901 16481.973375019894
517.7506122591931 16483.49236733446
518.7769819803761 16407.326115761498
519.8030902697901 16446.97573242917
520.8289372091476 16398.55623215602
521.8545228801249 16404.145765925463
522.8798473643619 16288.106533351058
523.9049107434621 16253.701083640277
524.9297130989908 16277.794333036194
525.9542545124805 16173.702660741332
526.9785350654201 16134.77068910964
528.0025548392696 16106.601043086299
529.0263139154504 16072.39935591084
530.0498123753423 15998.645208438043
531.073050300296 15942.318423083885
532.0960277716204 15806.578098873239
533.1187448705896 15813.991250574789
534.1412016784416 15546.627585205671
535.1633982763833 15551.693233342728
536.1853347455726 15410.397357851263
537.2070111671401 15403.192854514014
538.2284276221817 15339.761003371594
539.2495841917516 15226.344365765204
540.2704809568677 15126.325994511362
541.2911179985167 15185.659324114386
542.3114953976419 15126.659018350538
543.3316132351592 14947.928590321306
544.3514715919409 15007.248737051923
545.3710705488247 15005.521598995674
546.3904101866156 15010.391213500781
547.4094905860784 14997.74010081432
548.4283118279418 14896.682048459004
549.4468739929034 15037.881210641688
550.4651771616191 14947.38088428719
551.4832214147063 14910.79893193371
552.501006832761 14935.115572124214
553.5185334963226 14758.743752105884
554.5358014859103 14929.08858200642
555.5528108820035 14870.743561596599
556.5695617650363 14921.154926568506
557.5860542154242 14967.293060321826
558.6022883135283 14839.311499702268
559.6182641396881 14725.535077838402
560.6339817741991 14887.923398951261
561.6494412973225 14782.162447761522
562.6646427892883 14918.092307682891
563.6795863302796 14764.989557664516
564.694272000459 14782.162066043336
565.7086998799423 14887.895276928413
566.7228700488104 14804.230855765782
567.7367825871115 14760.893112266163
568.7504375748576 14862.957686448344
569.7638350920224 14816.518319492103
570.7769752185486 14893.163844570328
571.7898580343353 14874.690079687318
572.802483619258 14932.708379946303
573.8148520531431 15024.72412515064
574.8269634157932 15174.881097558304
575.8388177869692 15134.961975827848
576.8504152463938 15421.825512567122
577.8617558737587 15632.35086659117
578.8728397487175 15713.860800558943
579.883666950891 15970.34580793809
580.8942375598654 16229.495314484908
581.9045516551851 16418.7613068005
582.9146093163617 16859.550063484898
583.924410622878 16818.147732117406
584.9339556541727 16980.65755820454
585.9432444896538 16973.392579034276
586.9522772086875 16988.405385735856
587.9610538906127 17087.68016928071
588.9695746147318 16995.793618765034
589.9778394603054 17013.05268458086
590.985848506567 16858.206467649878
591.9936018327098 16659.1524149575
593.0010995178891 16511.87336216832
594.0083416412344 16406.567243151578
595.0153282818283 16167.591425178145
596.0220595187293 15969.64378296145
597.0285354309508 15898.91146160682
598.0347560974806 15795.80309577878
599.0407215972609 15708.075120319074
600.0464320092051 15602.197561919229
601.0518874121954 15462.327293218677
602.0570878850685 15452.59783466494
603.062033506636 15331.701365644316
604.0667243556636 15409.423369295979
605.0711605108936 15260.924004176937
606.0753420510264 15435.72475366375
607.0792690547278 15363.593672546092
608.082941600629 15311.552927373641
609.0863597673306 15376.741558230347
610.0895236333909 15531.412218131012
611.0924332773357 15653.898054904756
612.0950887776617 15688.424593215852
613.0974902128219 15885.871966102815
614.0996376612384 16023.265827915111
615.1015312013005 16338.853276908692
616.1031709113595 16617.01928933407
617.1045568697336 16658.585452157946
618.1056891547069 17108.641620448125
619.1065678445229 17498.560404404838
620.1071930173985 17907.50663981484
621.1075647515099 18173.715394195464
622.1076831250048 18672.493312844614
623.1075482159849 19115.349083351502
624.1071601025305 19497.246657235497
625.1065188626781 19915.963248717897
626.105624574433 20579.810742731912
627.1044773157682 20929.450793584678
628.1030771646128 21271.269897652106
629.1014241988742 21643.723112014937
630.0995184964158 21946.493931978654
631.0973601350688 22484.654543711724
632.0949491926294 22812.343487581456
633.0922857468631 22571.265313821492
634.089369875499 22824.283650964495
635.0862016562278 22830.388218482767
636.0827811667077 22648.53093545978
637.0791084845641 22578.570487963225
638.0751836873878 22325.862931508185
639.0710068527369 22044.147590035158
640.0665780581294 21649.721561916223
641.0618973810506 21126.265191235223
642.0569648989604 20938.65780967241
643.0517806892676 20312.424721125743
644.0463448293649 19994.879034592414
645.040657396592 19563.05117032178
646.0347184682723 19106.87558388132
647.0285281216875 18671.389605707882
648.0220864340772 18279.71742152566
649.0153934826558 17977.067710678595
650.0084493446047 17660.53139773472
651.0012540970674 17333.64077930623
651.9938078171526 17062.204055183414
652.9861105819346 16711.22987953361
653.9781624684565 16624.64667409931
654.9699635537254 16360.714393367822
655.9615139147136 16263.255735950355
656.9528136283589 15941.956409201075
657.9438627715699 15850.827070181389
658.9346614212154 15658.172626038242
659.925209654135 15366.822959261157
660.9155075471263 15344.075333226521
661.9055551769616 15151.710934872954
662.895352620375 15148.847592849654
663.8848999540678 15034.72548081802
664.8741972547068 14757.71409106823
665.863244598926 14678.732950625912
666.8520420633213 14712.278739224223
667.8405897244611 14587.980122865813
668.8288876588758 14422.942591396883
669.8169359430613 14452.211529132805
670.8047346534822 14395.158184961012
671.7922838665672 14307.28458853388
672.7795836587156 14371.82568739832
673.766634106285 14522.022550921556
674.7534352856092 14277.176779716003
675.7399872729766 14197.739311531772
676.7262901446538 14284.83526105165
677.712343976862 14151.472001411215
678.6981488457986 14300.975397331149
679.6837048276229 14166.261037541151
680.6690119984596 14268.615972473086
681.6540704344043 14130.784384090384
682.6388802115107 13910.56416446604
683.6234414058108 13970.154576169594
684.6077540932874 13901.888930093182
685.591818349907 13803.945868932558
686.575634251587 13779.372785173226
687.5592018742263 13612.959088556241
688.5425212936734 13441.917407724079
689.5255925857564 13551.274571025566
690.5084158262707 13477.637946602783
691.4909910909646 13347.391383804646
692.4733184555644 13281.691709862764
693.4553979957618 13292.997724012428
694.4372297872123 13298.275150727733
695.4188139055404 13138.737804720566
696.4001504263324 13156.354980186841
697.3812394251509 13216.002954138337
698.3620809775111 13119.96002223379
699.3426751589104 13154.796321746888
700.3230220448004 13118.867477853675
701.3031217106054 13154.199531651238
702.2829742317172 13295.415785060215
703.2625796834873 13075.09402970672
704.2419381412474 13074.544462337562
705.22104968028 13186.2694437142
706.1999143758458 13264.421604166786
707.178532303169 13109.586512968119
708.1569035374378 13281.04383151323
709.1350281538107 13319.514410227639
710.1129062274158 13350.719815394157
711.0905378333373 13525.584727546131
712.0679230466376 13674.892259415114
713.0450619423427 13950.901347419785
714.0219545954424 14125.828496248776
714.9986010808989 14037.109003034231
715.9750014736292 14408.873568912828
716.9511558485392 14666.902086680153
717.9270642804786 14796.130963406933
718.9027268442787 15025.428192968315
719.8781436147328 15040.677127786266
720.8533146666014 15045.745128449125
721.828240074612 15061.339741356942
722.8029199134635 15074.406001957774
723.7773542578125 15013.379055675096
724.751543182294 14795.860692556536
725.7254867615029 14715.409181234607
726.6991850700015 14471.989683231159
727.6726381823228 14585.137247812425
728.6458461729599 14525.220870026935
729.6188091163858 14462.896734048618
730.5915270870246 14577.689788392086
731.5640001592856 14477.370796952
732.536228407529 14673.167218104714
733.5082119060917 14725.795826434385
734.4799507292755 14860.95018798546
735.4514449513481 15037.049174354033
736.4226946465496 15120.893193970118
737.3936998890786 15135.980672113048
738.3644607531078 15036.609324906047
739.3349773127793 15019.199151277799
740.3052496421951 14916.988491828806
741.27527781543 14690.010296259596
742.2450619065221 14346.584326848528
743.2146019894826 14178.708529954805
744.183898138288 14003.23967896139
745.1529504268801 13750.38475078913
746.1217589291682 13546.735500079274
747.0903237190341 13273.61588212071
748.058644870318 13175.97670237457
749.0267224568397 13091.153761245796
749.994556552374 12968.107002963634
750.9621472306771 12901.58344432505
751.9294945654583 12832.38547766017
752.8965986304011 12753.91943007879
753.8634594991636 12653.376465769825
754.8300772453586 12782.289472773027
755.7964519425768 12709.740852619092
756.762583664371 12777.893341841373
757.7284724842611 12719.220342375673
758.6941184757416 12755.054724243992
759.6595217122667 12738.256619288946
760.6246822672638 12641.061814773846
761.5896002141235 12589.878530087031
762.5542756262093 12658.7999440378
763.5187085768503 12484.249601041052
764.4828991393406 12401.646319940108
765.4468473869474 12474.61512308377
766.4105533929032 12402.122528610516
767.3740172304078 12262.593222368636
768.3372389726283 12188.669574595424
769.3002186926988 12016.223687584139
770.2629564637282 11949.643802514418
771.2254523587872 11871.884723616906
772.1877064509154 11688.231128159468
773.1497188131179 11601.102050138641
774.1114895183728 11501.959274854435
775.0730186396268 11437.548916952768
776.0343062497905 11367.308580205741
776.9953524217381 11279.805459839044
777.9561572283274 11287.726902102071
778.9167207423689 11231.797902814793
779.8770430366476 11173.956235397365
780.8371241839159 11110.33361605442
781.7969642568951 11204.887872175092
782.7565633282757 11312.263664503098
783.7159214707099 11203.16005323697
784.6750387568281 11249.40158802455
785.6339152592227 11163.003273655095
786.5925510504512 11084.615945862784
787.5509462030477 11260.248163706483
788.5091007895098 11193.769398765598
789.4670148823006 11313.083747537694
790.4246885538596 11297.966932088262
791.3821218765861 11315.661303799268
792.3393149228505 11232.453905885477
793.2962677649975 11373.427850934177
794.2529804753303 11409.55059746253
795.20945312613 11488.58966789681
796.1656857896378 11488.029057116946
797.1216785380675 11632.810824765373
798.0774314435985 11815.674976347076
799.0329445783846 11899.74891910513
799.9882180145414 12038.200330421216
800.9432518241574 12159.97764089017
801.89804607929 12311.562555496941
802.852600851962 12426.441742230885
803.8069162141637 12528.37528827267
804.760992237856 12710.44451723498
805.714828994971 12725.431981602229
806.6684265574077 12722.454475578586
807.6217849970271 12708.529781960791
808.574904385674 12582.567087048574
809.527784795142 12610.783262761368
810.4804262972102 12603.026261461706
811.4328289636178 12340.832329661233
812.3849928660748 12179.490697037627
813.3369180762638 12085.830985353981
814.2886046658241 11932.535984988572
815.2400527063783 11680.83668411579
816.1912622695108 11621.74696538838
817.1422334267718 11398.792223255603
818.0929662496856 11255.461145026393
819.0434608097457 11020.148458758084
819.9937171784059 10955.65351871448
820.9437354271013 10753.398135628991
821.8935156272255 10794.580745580237
822.8430578501484 10612.460822567768
823.7923621672016 10337.764245734488
824.7414286496896 10454.040267205815
825.6902573688876 10484.072708232763
826.6388483960363 10389.5470704467
827.5872018023492 10298.443777589822
828.5353176590033 10250.53815232174
829.4831960371503 10120.818823476515
830.4308370079016 10178.05975620665
831.3782406423525 10135.373971860081
832.3254070115545 10171.125084266061
833.2723361865319 10125.924530961629
834.2190282382799 10041.794030166751
835.1654832377644 10088.057830376925
836.1117012559116 10042.722182409298
837.0576823636256 10104.329865163512
838.003426631778 9936.822048060269
838.9489341312074 9940.49960144035
839.8942049327197 10044.805986864178
840.8392391070975 10085.04986640343
841.7840367250865 9999.968325646614
842.7285978573982 10026.756569679183
843.672922574724 10026.359458066747
844.6170109477152 10043.20237910485
845.560863046996 10025.174130512863
846.5044789431595 9921.151833324986
847.4478587067697 10001.983217499186
848.3910024083561 10035.59431057845
849.333910118421 10074.572294271667
850.2765819074339 9955.990216175798
851.2190178458332 10045.824662615883
852.161218004032 10102.115890883413
853.1031824524016 10141.913603025901
854.0449112612987 9937.69649294552
854.9864045010327 10117.118794745336
855.9276622418947 9928.281158088783
856.8686845541379 10036.37503841854
857.8094715079915 10039.938023585912
858.7500231736467 10150.478316207524
859.690339621271 10100.02959024505
860.6304209209939 10096.841058292957
861.5702671429244 10077.045675151503
862.5098783571284 10201.271049083314
863.4492546336569 10208.242651654273
864.3883960425155 10178.078732986754
865.3273026536863 10269.450152282388
866.2659745371238 10309.894345464885
867.2044117627465 10467.997475646163
868.1426144004472 10391.53948626051
869.0805825200823 10595.275676300329
870.0183161914847 10566.58655356661
870.9558154844526 10684.648475528538
871.8930804687552 10661.502357240928
872.8301112141307 10713.323595913573
873.7669077902865 10946.953597447715
874.7034702669062 11051.288839142107
875.6397987136315 11026.277597412729
876.5758932000863 11126.079154421148
877.5117537958522 11236.278783510023
878.4473805704911 11243.954465673569
879.3827735935283 11212.861397201414
880.3179329344603 11372.54150441577
881.2528586627541 11408.062850686629
882.1875508478479 11532.29958922826
883.1220095591489 11381.821959051853
884.0562348660296 11372.401329397313
884.9902268378391 11557.298269317762
885.9239855438955 11414.480961890124
886.8575110534839 11353.141532251928
887.7908034358588 11359.176467957432
888.7238627602474 11181.536402564596
889.6566890958475 11165.418073583718
890.5892825118208 10985.56988521809
891.5216430773125 11027.168243851129
892.4537708614189 10950.553429949188
893.3856659332196 10662.643762466532
894.3173283617652 10597.751820530528
895.2487582160684 10519.993195367006
896.179955565116 10436.59878366715
897.110920477864 10329.155934538116
898.0416530232451 10226.587070543672
898.9721532701478 10149.377000991293
899.9024212874428 10120.281875475128
900.8324571439662 10009.37481770726
901.7622609085302 9922.897913901958
902.6918326499072 9842.820587189379
903.6211724368477 9867.536797575598
904.5502803380696 9925.664198270673
905.4791564222614 9903.867808422383
906.4078007580792 9776.189246621529
907.3362134141571 9716.745961586432
908.2643944590909 9815.969170707056
909.1923439614493 9689.620728013098
910.1200619897754 9629.460543457813
911.0475486125779 9766.422175982345
911.9748038983344 9762.015274327634
912.9018279155007 9540.141909319642
913.8286207324982 9577.252574617622
914.7551824177117 9613.956112796244
915.6815130395116 9615.55650815622
916.6076126662283 9510.361030181592
917.533481366163 9491.136787607837
918.4591192075914 9526.362980287757
919.3845262587565 9608.766632669603
920.3097025878706 9440.848944394627
921.2346482631237 9459.818921105827
922.1593633526682 9482.451016283976
923.0838479246304 9512.038039413348
924.0081020471061 9494.081972075364
924.9321257881656 9348.691537462732
925.8559192158464 9316.309166652174
926.7794823981512 9297.43784940936
927.7028154030686 9280.837425198848
928.6259182985414 9246.573677214003
929.5487911524906 9349.99452187225
930.4714340328119 9316.916059949686
931.3938470073608 9107.808899189373
932.3160301439748 9243.798504437333
933.2379835104548 9224.441347638061
934.1597071745709 9290.58548655556
935.0812012040769 9186.79076801966
936.002465666681 9247.97183619498
936.9235006300696 9205.234364571723
937.8443061619055 9250.869609537873
938.7648823298077 9162.835998240338
939.6852292013809 9132.474004640904
940.6053468441951 9197.498031962903
941.5252353257874 9092.853558695717
942.4448947136698 9195.732916493584
943.364325075323 9133.138823449566
944.2835264782043 9159.658024800088
945.2024989897309 9121.091884947593
946.1212426773054 9106.259414951315
947.0397576082851 9218.39882346303
947.9580438500125 9254.743246466012
948.8761014697939 9293.812532044836
949.7939305349064 9302.458920682515
950.7115311125999 9187.841728565309
951.6289032700952 9216.029207160054
952.5460470745875 9223.912294330608
953.4629625932339 9246.398048572855
954.3796498931715 9272.07002817389
955.2961090415029 9312.841321899145
956.2123401053068 9347.942330640752
957.1283431516276 9203.523342261535
958.0441182474842 9207.550611800487
958.9596654598663 9261.054998937503
959.8749848557309 9259.571383039143
960.7900765020167 9129.874841163288
961.7049404656209 9178.435566777427
962.6195768134185 9188.663688195036
963.5339856122537 9224.24939363337
964.4481669289453 9143.078534061713
965.3621208302793 9083.26264174296
966.2758473830145 9044.434196900951
967.1893466538822 9141.231657156894
968.1026187095813 9108.912506089302
969.0156636167867 9028.6492446015
969.9284814421426 9182.360622613178
970.8410722522622 9016.301907075438
971.753436113735 8962.419856399312
972.6655730931161 8877.102157995178
973.5774832569368 9064.985114453195
974.4891666716958 8956.319040777033
975.4006234038698 8920.651516341555
976.3118535198955 8963.02249434487
977.2228570861935 9036.69008941964
978.1336341691494 9066.023481317314
979.0441848351202 8920.182988733803
979.9545091504333 9062.849937695652
980.864607181391 8963.918766834653
981.7744789942699 9029.292673911712
982.6841246553086 9005.172450772956
983.5935442307236 9033.479822646588
984.5027377867027 9025.949747600862
985.4117053894024 9061.082961069458
986.3204471049557 9011.329839700698
987.2289629994648 9199.457702264732
988.1372531390007 9197.649325998118
989.0453175896091 9179.404842862767
989.9531564173067 9184.37583225462
990.860769688079 9144.999707805115
991.7681574678918 9212.513590540186
992.6753198226706 9335.723294838526
993.582256818323 9229.925177188172
994.4889685207218 9212.895626526153
995.3954549957143 9487.29383111984
996.301716309119 9430.945162591768
997.2077525267232 9461.41003846269
998.1135637142943 9434.388845246878
999.0191499375615 9532.615634774795
999.924511262232 9555.581929264252
1000.8296477539861 9619.451553898087
1001.7345594784656 9520.61514512164
1002.6392465012996 9541.57391555513
1003.5437088880753 9673.037159770403
1004.4479467043584 9643.777129388665
1005.3519600156869 9455.042680766637
1006.2557488875718 9578.088236758093
1007.1593133854858 9641.89945122193
1008.0626535748888 9587.08086703983
1008.9657695212009 9405.25016898329
1009.8686612898182 9624.556162088087
1010.7713289461135 9587.432200524378
1011.6737725554212 9531.936001771577
1012.5759921830577 9477.16780981755
1013.4779878943027 9512.966198414822
1014.379759754418 9441.473840321834
1015.2813078286254 9314.768828435324
1016.18263218213 9315.60897171875
1017.0837328801026 9218.861078803831
1017.9846099876886 9339.515047980592
1018.8852635700023 9228.376656519828
1019.7856936921362 9067.728580243642
1020.6859004191447 9134.006542612578
1021.5858838160675 9117.533587183467
1022.4856439479063 9007.554493792175
1023.3851808796389 8998.67924477612
1024.2844946762143 9014.715321616794
1025.183585402554 9013.858754489169
1026.082453123554 8819.473989810886
1026.9810979040776 8886.229222293767
1027.8795198089647 8723.539285136761
1028.777718903024 8816.888242830584
1029.6756952510368 8778.427036893987
1030.5734489177648 8750.991000677092
1031.4709799679313 8800.035386151574
1032.3682884662358 8823.314899784924
1033.2653744773506 8701.610818789432
1034.1622380659192 8780.75198774577
1035.058879296559 8964.278747963488
1035.9552982338591 9007.831472997777
1036.8514949423825 8942.919387655686
1037.7474694866614 9053.006130041085
1038.6432219312028 9165.697642689522
1039.5387523404825 9399.124887309643
1040.4340607789582 9366.901122856081
1041.3291473110476 9556.41757079506
1042.2240120011465 9756.58057026831
1043.1186549136273 10053.96875234159
1044.0130761128294 10081.641324199129
1044.9072756630649 10332.27392548219
1045.8012536286205 10455.099698540093
1046.6950100737577 10597.144002090094
1047.588545062701 10867.74650753604
1048.481858659663 10920.413416669513
1049.3749509288118 11080.69135644006
1050.2678219343034 11030.349260342831
1051.1604717402515 10991.270032032913
1052.0529004107575 11035.509486860643
1052.9451080098825 11067.707649648375
1053.8370946016694 10935.360032487046
1054.7288602501267 10850.999352196222
1055.6204050192446 10801.203208270343
1056.511728972977 10679.363065206542
1057.402832175254 10448.605390073917
1058.2937146899785 10373.528408188373
1059.1843765810263 10165.89598545143
1060.0748179122456 10155.967156229133
1060.9650387474576 10046.066292651836
1061.855039150456 9950.941165638167
1062.7448191850071 9807.253160300841
1063.6343789148505 9768.49613175426
1064.5237184037014 9814.592554195307
1065.412837715241 9721.365175666322
1066.3017369131267 9549.259204644139
1067.190416060992 9452.754369112623
1068.0788752224398 9456.379715035227
1068.9671144610438 9430.908597692758
1069.8551338403558 9349.447310376683
1070.7429334239023 9424.705705543784
1071.6305132751695 9245.890671509038
1072.517873457633 9277.748297734677
1073.4050140347335 9156.053474893004
1074.2919350698776 9196.665321879384
1075.1786366264623 9161.574816357115
1076.0651187678395 9125.985151952946
1076.95138155735 8984.446603222028
1077.8374250582929 8951.121694417028
1078.7232493339507 8892.293291293277
1079.608854447577 8835.234792976553
1080.4942404623907 8823.230496741877
1081.3794074415982 8923.50861611686
1082.2643554483657 8824.039548143899
1083.149084545841 8742.28388287269
1084.033594797138 8614.468923109034
1084.9178862653516 8687.984722902696
1085.8019590135427 8763.542369043089
1086.6858131047484 8541.808096578852
1087.5694486019802 8648.134862224004
1088.4528655682225 8697.17628814523
1089.3360640664287 8702.13249501077
1090.2190441595321 8663.732061636149
1091.1018059104317 8645.58180718788
1091.98434938201 8765.41332916589
1092.866674637111 8771.656125377951
1093.748781738559 8666.915373711061
1094.6306707491512 8618.663049669953
1095.5123417316554 8649.996022202959
1096.3937947488157 8630.548003790169
1097.2750298633455 8617.99644136764
1098.156047137938 8599.335652901691
1099.0368466352556 8658.062893598293
1099.9174284179317 8745.975167799426
1100.7977925485757 8513.834114413885
1101.6779390897755 8516.931832195529
1102.5578681040806 8603.210213590779
1103.4375796540226 8572.935750247556
1104.3170738021054 8506.97844073899
1105.1963506108077 8427.566167850458
1106.0754101425773 8467.330424365977
1106.9542524598382 8422.70080085525
1107.8328776249855 8466.807502366508
1108.7112857003904 8458.871346982205
1109.5894767483987 8469.796425834455
1110.4674508313292 8631.857758222106
1111.3452080114657 8594.106878927347
1112.2227483510815 8618.091392280392
1113.1000719124077 8811.724478070895
1113.9771787576592 8926.570090955005
1114.854068949022 8864.54074761194
1115.7307425486542 8936.073040025793
1116.6071996186893 9112.444616643605
1117.483440221229 9528.675090574185
1118.3594644183577 9348.02133403454
1119.235272272128 9476.031917569513
1120.1108638445658 9643.895699555835
1120.9862391976712 9941.513579177392
1121.8613983934229 10003.484505168663
1122.7363414937627 10041.438693419821
1123.6110685606182 10308.603034443984
1124.485579655884 10560.559028005817
1125.359874841426 10671.132626176575
1126.2339541790916 10799.50738215034
1127.1078177306936 10895.52950349355
1127.9814655580267 10929.792638213292
1128.854897722851 10928.107546382187
1129.7281142869106 10970.50156301243
1130.6011153119125 11046.817724343353
1131.473900859548 11133.218756126571
1132.3464709914697 11070.936443806677
1133.2188257693178 11072.516303208598
1134.0909652546961 10956.781604133428
1134.96288950919 10809.891608437338
1135.8345985943506 10880.701335975218
1136.7060925717087 10682.129628597326
1137.57737150277 10511.398508554057
1138.4484354490069 10407.27686044484
1139.3192844718778 10241.511497712043
1140.1899186327992 9989.0435223446
1141.060337993178 10038.488908250129
1141.930542614382 9857.550609128068
1142.8005325577597 9645.48062525423
1143.670307884635 9451.519646589768
1144.5398686563003 9423.104703625619
1145.409214934025 9272.679308750348
1146.2783467790541 8966.54512126915
1147.1472642526023 8903.779838380118
1148.0159674158622 8920.608608977083
1148.8844563300026 8603.315230487788
1149.7527310561618 8582.100683883598
1150.6207916554504 8463.8204504411
1151.4886381889592 8372.724833800346
1152.3562707177498 8389.836416600903
1153.2236893028585 8297.046143856393
1154.090894005296 8216.839826883948
1154.9578848860474 8179.945231270518
1155.8246620060709 8116.022182073818
1156.6912254262988 8064.265577156203
1157.5575752076438 8093.673666225043
1158.42371141098 7993.478236550853
1159.2896340971656 8052.183698309078
1160.1553433270346 7912.80807458388
1161.0208391613887 7954.38709926832
1161.8861216610057 7949.596228839795
1162.75119088664 7820.204269661849
1163.6160468990201 7794.0650383776065
1164.4806897588442 7797.37566695121
1165.3451195267917 7818.981615489708
1166.2093362635114 7800.100177348271
1167.0733400296285 7820.236431202624
1167.9371308857444 7727.77515665832
1168.8007088924278 7682.996625991781
1169.6640741102328 7741.856026342709
1170.5272265996773 7631.2257794036905
1171.390166421259 7564.89589554838
1172.252893635452 7666.460010854724
1173.1154083026995 7784.655945162032
1173.977710483421 7722.366743487137
1174.8398002380145 7708.843716158985
1175.7016776268483 7791.41542119803
1176.563342710264 7671.901734544763
1177.4247955485826 7680.297186278478
1178.2860362020947 7774.668957208078
1179.147064731069 7712.653442093887
1180.0078811957483 7823.692267878769
1180.8684856563486 7828.80443826016
1181.7288781730604 7861.497885959594
1182.589058806052 7955.542493800371
1183.4490276154593 8104.251911078728
1184.3087846614017 7953.636038696798
1185.1683300039676 8115.408430977395
1186.027663703222 8269.615803503373
1186.8867858192025 8240.916391491772
1187.7456964119228 8255.304375287957
1188.6043955413716 8382.479787709413
1189.4628832675116 8468.020903475985
1190.3211596502842 8555.767092326247
1191.179224749596 8647.52611043951
1192.0370786253388 8586.001990558896
1192.8947213373758 8773.797920818632
1193.7521529455407 8973.807808407535
1194.6093735096438 8769.506362993025
1195.466383089477 8922.405560725663
1196.3231817447977 8922.405008458742
1197.1797695353398 9099.764563872206
1198.0361465208189 8993.939331544938
1198.8923127609214 8985.212799901547
1199.7482683153048 9208.140526171437
1200.6040132436028 9179.573390842908
1201.459547605431 9076.544682898477
1202.3148714603722 9023.005091921434
1203.1699848679855 9014.672875699947
1204.0248878878065 9126.268122635169
1204.8795805793507 8828.91955315372
1205.7340630020935 8949.85956552831
1206.5883352155033 8857.919206464314
1207.4423972790064 8909.65695612583
1208.2962492520237 8674.221020576899
1209.1498911939307 8704.166682518373
1210.0033231640937 8576.562271946377
1210.8565452218427 8592.87471461397
1211.7095574264913 8398.24445109521
1212.5623598373222 8386.174924614232
1213.4149525135963 8338.625691748071
1214.2673355145507 8237.96833731486
1215.1195088993936 8092.973482502258
1215.9714727273113 8163.780560233483
1216.8232270574663 8238.129203347009
1217.6747719489904 8045.470834667763
1218.5261074609934 8052.080114762047
1219.3772336525653 8024.792676465894
1220.2281505827668 8001.834548372574
1221.0788583106296 7984.978788606636
1221.9293568951707 7755.392078325067
1222.7796463953746 7711.27315142183
1223.629726870202 7842.168466543735
1224.4795983785934 7774.043132175684
1225.3292609794553 7739.536550174588
1226.1787147316809 7674.463527598372
1227.0279596941327 7697.104602309834
1227.8769959256424 7643.683279688953
1228.7258234850306 7669.369684438447
1229.5744424310833 7595.832707455265
1230.422852822563 7732.429923551035
1231.2710547182105 7806.410678037699
1232.119048176739 7617.680254453907
1232.9668332568417 7538.728768666426
1233.8144100171812 7692.871783042628
1234.6617785163999 7775.629891676128
1235.508938813111 7459.37119487292
1236.3558909659114 7655.5672373016005
1237.2026350333617 7706.956767967427
1238.049171074008 7774.186342178943
1238.8954991463652 7654.649455924994
1239.741619308932 7687.659781457459
1240.587531620169 6456.615714395024
1241.4332361385277 7836.607943535249
1242.2787329224248 7639.884043042388
1243.1240220302534 7514.759582264373
1243.9691035203869 7691.032347992179
1244.813977451171 7808.085171959366
1245.6586438809263 7649.56070895948
1246.5031028679496 7582.793284415125
1247.3473544705157 7738.237884032799
1248.1913987468706 7711.274866691798
1249.0352357552383 7634.647061862801
1249.8788655538228 7728.108911739849
1250.7222882007918 7809.832091834114
1251.565503754302 7852.643050844794
1252.4085122724755 7597.195488714063
1253.2513138134182 7854.592098344316
1254.0939084352049 7773.117040967618
1254.9362961958905 7822.116979505449
1255.7784771535007 7729.465727574105
1256.6204513660432 7831.691799214935
1257.4622188915 7942.250014816449
1258.3037797878242 7838.591713445887
1259.1451341129468 7652.675500113326
1259.9862819247755 7815.5045777385585
1260.8272232811978 7858.899191179919
1261.6679582400666 7912.008553769515
1262.5084868592203 7690.240905704525
1263.34880919647 7696.421376129304
1264.1889253095997 7759.217566723179
1265.0288352563712 7834.546861545406
1265.8685390945266 7683.22060192988
1266.7080368817751 7761.167768235592
1267.5473286758115 7780.464221468814
1268.386414534294 7710.907863696673
1269.2252945148703 7533.6861698510165
1270.0639686751547 7575.173027536193
1270.9024370727402 7602.625359749132
1271.7406997651997 7541.255610164122
1272.5787568100714 7508.253126454141
1273.4166082648808 7579.5079743262295
1274.2542541871244 7553.138283411465
1275.091694634275 7607.343446327756
1275.9289296637817 7407.017087901882
1276.7659593330663 7618.61243707203
1277.6027836995308 7458.414302156401
1278.4394028205552 7512.346613003354
1279.2758167534867 7440.150075936488
1280.112025555658 7467.026819085634
1280.9480292843746 7551.5946524660485
1281.7838279969128 7406.007091292025
1282.6194217505326 7447.319407755776
1283.4548106024686 7278.969509900152
1284.289994609926 7438.155565920087
1285.1249738300921 7534.344669310112
1285.959748320127 7419.039897938793
1286.7943181371702 7451.160960225423
1287.6286833383328 7481.006578226625
1288.4628439807038 7477.676574589777
1289.2968001213521 7402.309684617221
1290.1305518173194 7537.597384299028
1290.9640991256183 7583.203360782709
1291.7974421032523 7585.5399445518515
1292.630580807183 7439.235692960196
1293.463515294361 7589.90137993862
1294.29624562171 7817.654442797076
1295.12877184613 7770.122545274748
1295.961094024493 7697.801422312126
1296.79321221365 7720.689631161162
1297.6251264704333 7870.225636534473
1298.4568368516466 8004.180971969928
1299.2883434140658 7909.514772071195
1300.1196462144526 7943.63653009838
1300.9507453095375 8062.767170620023
1301.7816407560313 8085.294705586595
1302.6123326106172 8021.373909866503
1303.4428209299622 8072.845165488361
1304.2731057707024 8345.641254747148
1305.1031871894502 8210.9225707299
1305.933065242798 8248.591677355882
1306.7627399873181 8284.698706592426
1307.5922114795467 8538.285409196336
1308.4214797760123 8692.534144521225
1309.2505449332057 8370.857120980594
1310.0794070076026 8436.030310351427
1310.9080660556538 8596.424181842709
1311.736522133786 8600.630147541144
1312.5647752983987 8517.666272046474
1313.3928256058734 8391.150563323024
1314.2206731125661 8589.510393417873
1315.048317874809 8700.960069005407
1315.8757599489109 8691.120881326377
1316.7029993911547 8724.66987180287
1317.5300362578055 8843.649816826672
1318.356870605101 8739.114758487702
1319.183502489257 8673.995763418616
1320.0099319664623 8874.576759740516
1320.836159092889 8902.046553619386
1321.66218392468 8903.466202190584
1322.4880065179532 8891.988558064138
1323.3136269288134 8865.5008007609
1324.1390452133292 8953.000263172184
1324.9642614275563 9051.969806801622
1325.7892756275214 8884.33383154152
1326.6140878692295 8757.033937420854
1327.4386982086617 9031.697644081625
1328.2631067017755 8713.80309067028
1329.0873134045069 8792.972724814294
1329.911318372764 8661.638908627301
1330.735121662441 8664.23734355463
1331.558723329399 8677.706585657124
1332.3821234294774 8579.67904770928
1333.2053220185007 8539.261841325764
1334.0283191522612 8511.525396431078
1334.851114886529 8549.48040755474
1335.6737092770582 8333.882928447974
1336.4961023795695 8262.597019740459
1337.3182942497697 8252.657041104023
1338.1402849433325 8340.192364773666
1338.962074515921 8068.641927339248
1339.7836630231632 8006.6299034876165
1340.6050505206676 8385.127278951042
1341.426237064028 8094.826877971357
1342.2472227088037 7948.22487950992
1343.0680075105338 7892.900893454632
1343.888591524741 8005.097583831657
1344.7089748069138 7935.710408714452
1345.5291574125276 7816.45651834379
1346.3491393970307 7761.300340871008
1347.168920815846 7999.763287467162
1347.9885017243778 7931.583872500074
1348.8078821780036 7896.994112809257
1349.6270622320844 7851.832183546176
1350.4460419419447 7753.93560225509
1351.2648213629054 7746.455338073307
1352.0834005502438 7611.760540140254
1352.90177955923 7761.23272276758
1353.7199584451064 7784.196268479434
1354.5379372630887 7779.164071556093
1355.355716068374 7663.519450449139
1356.1732949161305 7610.216736438344
1356.9906738615155 7706.85925757015
1357.8078529596478 7647.732781133733
1358.6248322656375 7855.286052131812
1359.441611834567 7621.2544511392425
1360.2581917214866 7677.63419524894
1361.0745719814367 7613.159345407464
1361.890752669433 7526.421226527571
1362.7067338404577 7587.0197468574015
1363.5225155494845 7667.605321433618
1364.3380978514506 7805.682054443501
1365.1534808012839 7541.421836686796
1365.9686644538815 7399.781876801664
1366.783648864117 7619.963699463641
1367.5984340868417 7757.076041852028
1368.413020176893 7619.389243872652
1369.2274071890715 7593.749060451606
1370.0415951781652 7631.512091894379
1370.8555841989346 7639.220575110483
1371.6693743061223 7421.628155026767
1372.48296555444 7424.38762017657
1373.2963579985844 7555.859864070599
1374.1095516932255 7504.653476307249
1374.9225466930166 7409.128690652018
1375.7353430525782 7533.326145241992
1376.5479408265164 7419.17028336055
1377.36034006941 7572.502155436321
1378.1725408358216 7527.8323064133
1378.9845431802805 7428.064959016915
1379.796347157304 7783.456324678002
1380.6079528213813 7572.9097650403955
1381.4193602269788 7399.589543335222
1382.230569428546 7530.992640033937
1383.0415804805016 7539.208757507244
1383.852393437246 7627.887115442875
1384.6630083531563 7595.879704926057
1385.4734252825892 7475.133988828422
1386.2836442798798 7558.964254437553
1387.0936653993322 7523.899698008482
1387.9034886952395 7572.599725710004
1388.713114221864 7613.099110931516
1389.5225420334482 7545.777067273676
1390.331772184214 7584.947394281783
1391.1408047283585 7247.716250391555
1391.9496397200564 7577.275885659392
1392.758277213461 7669.045220249005
1393.5667172627054 7765.080241986475
1394.3749599218918 7503.524755723576
1395.1830052451114 7435.041251533027
1395.9908532864265 7489.62770848875
1396.7985040998774 7636.626762810869
1397.6059577394808 7388.91090137931
1398.4132142592352 7418.080282043395
1399.2202737131156 7409.5494238982965
1400.027136155073 7621.17769457627
1400.8338016390353 7456.9976136835885
1401.6402702189134 7365.944950662769
1402.446541948586 7429.0630148147275
1403.2526168819204 7334.023005910206
1404.058495072757 7180.857192537628
1404.8641765749107 7296.57113152497
1405.6696614421799 7326.758489819686
1406.4749497283356 7487.801969034274
1407.280041487129 7106.250738450559
1408.084936772295 7090.660272189047
1408.8896356375335 7231.699966283735
1409.6941381365323 7142.576895970158
1410.498444322955 6964.04924312863
1411.3025542504402 6916.282288919394
1412.106467972606 6954.712419965013
1412.9101855430508 6957.700222732348
1413.7137070153458 6763.489901502748
1414.5170324430437 6839.607781304896
1415.320161879672 6878.877540711192
1416.1230953787435 6897.073409028383
1416.925832993742 6655.1483342675365
1417.7283747781275 6547.2530533051995
1418.5307207853439 6726.9627347344995
1419.3328710688093 6612.588876042542
1420.134825681922 6484.282905348375
1420.9365846780584 6518.386352223201
1421.7381481105713 6673.278782707745
1422.539516032788 6702.841352270511
1423.3406884980232 6507.663576768943
1424.1416655595604 6454.745600004246
1424.942447270665 6487.029123436463
1425.7430336845828 6703.396521630438
1426.5434248545298 6415.3627655053315
1427.3436208337116 6632.969566411693
1428.143621675301 6572.269132779872
1428.9434274324558 6714.699165583569
1429.7430381583108 6485.11006204936
1430.5424539059713 6597.480267074476
1431.3416747285337 6868.067465177723
1432.1407006790632 6717.40756236944
1432.9395318106053 6641.31682714185
1433.7381681761835 6592.0545248652315
1434.5366098288014 6748.487929929445
1435.3348568214424 6740.076002417804
1436.1329092070573 6677.712912653818
1436.9307670385879 6686.966446304327
1437.7284303689503 6867.844001871041
1438.5258992510335 6829.688141551732
1439.3231737377118 6740.022517383311
1440.1202538818306 6636.218342713437
1440.9171397362225 6704.263977716667
1441.7138313536925 6748.192052011962
1442.5103287870243 6703.42122474369
1443.3066320889775 6599.198242763759
1444.1027413122956 6723.766661268319
1444.8986565096966 6655.626657992567
1445.694377733882 6674.090607161913
1446.4899050375207 6430.295841245368
1447.2852384732687 6563.2094186704835
1448.0803780937622 6529.484752645786
1448.8753239516063 6391.936615662851
1449.6700760993954 6248.145554837343
1450.464634589689 6331.900654728689
1451.2589994750397 6564.277974569615
1452.0531708079689 6226.103212623547
1452.8471486409799 6230.066588543633
1453.6409330265524 6362.71656344216
1454.4345240171442 6175.3903604484985
1455.2279216651987 6215.585227174428
1456.0211260231263 6249.5048956094315
1456.8141371433194 6486.207053846783
1457.6069550781594 6233.113858716699
1458.3995798799897 6154.277011029029
1459.1920116011424 6100.905792706365
1459.98425029393 6149.662791403889
1460.7762960106338 6130.418720636419
1461.5681488035225 6237.255975178104
1462.3598087248392 6166.575908022003
1463.1512758268036 6262.256767187906
1463.942550161617 6088.710853115102
1464.7336317814625 5990.1309161457675
1465.524520738496 6062.417069003886
1466.3152170848552 6064.729441600026
1467.1057208726506 6095.068480002285
1467.8960321539817 5983.832251665861
1468.6861509809169 5769.260370796505
1469.4760774055085 5855.084371090016
1470.265811479785 6000.430088544238
1471.055353255755 5830.9386492425565
1471.844702785409 5914.999285258371
1472.6338601207044 5769.202813969861
1473.4228253135934 5965.564823138777
1474.2115984159936 5689.81828287323
1475.0001794798063 5761.942629694961
1475.7885685569145 5856.888134846693
1476.576765699172 5746.34972604266
1477.3647709584238 5749.975336415513
1478.1525843864802 5963.260877084585
1478.9402060351367 5783.379659775445
1479.7276359561693 5866.033619686716
1480.514874201328 5862.872824965639
1481.3019208223468 5655.675472905534
1482.0887758709323 5614.739326629741
1482.8754393987747 5859.210042004349
1483.6619114575406 5665.152143104029
1484.4481920988783 5743.21853756999
1485.2342813744108 5755.824622131303
1486.0201793357446 5903.092681012382
1486.8058860344572 5666.021402843781
1487.591401522117 5669.026368305541
1488.3767258502594 5750.49707816707
1489.1618590704056 5737.707839432412
1489.9468012340494 5648.276200608245
1490.7315523926754 5856.626930038941
1491.5161125977356 5879.504954561182
1492.3004819006637 5901.695975126378
1493.084660352877 5720.0068418819865
1493.8686480057622 5892.741824493037
1494.6524449106964 5922.4355387157975
1495.4360511190262 5967.636033367728
1496.219466682087 5817.595949231546
1497.0026916511779 5822.140723223033
1497.7857260775945 5887.077345596476
1498.5685700125996 5891.050233529154
1499.3512235074395 5738.8122011742835
1500.133686613337 5631.960252630196
1500.9159593814966 5852.918790919527
1501.698041863101 6108.5046478565755
1502.4799341093094 5665.5819853552675
1503.2616361712662 5745.400310223033
1504.043148100087 5774.625755277309
1504.8244699468742 5850.559212711933
1505.6056017626997 5627.756146600579
1506.3865435986281 5720.654160339336
1507.1672955056893 5771.757276658666
1507.9478575348967 5681.78072631372
1508.7282297372512 5938.634616009689
1509.5084121637192 5798.824994505791
1510.2884048652577 5800.758211684235
1511.0682078927948 5704.525392264719
1511.8478212972423 5717.343040652854
1512.6272451294917 5625.693360934248
1513.4064794404076 5776.930366126277
1514.1855242808433 5917.499220817609
1514.9643797016215 5683.34997800769
1515.743045753552 5805.964554199489
1516.5215224874191 5757.2077339941225
1517.2998099539836 5672.152146677423
1518.077908203999 5759.176064986887
1518.8558172881785 5880.865523807033
1519.633537257234 5870.792363891929
1520.4110681618404 5774.380779069278
1521.1884100526604 5837.470747526426
1521.9655629803365 5928.88780495358
1522.7425269954856 6051.038384840147
1523.5193021487103 6161.062867843728
1524.2958884905856 5934.792724493408
1525.0722860716687 5970.470498683569
1525.848494942502 5946.585668141921
1526.624515153595 6112.897412358872
1527.4003467554485 6036.682669226355
1528.175989798534 6232.087578301126
1528.9514443333064 6053.618940134906
1529.726710410203 6256.559872804889
1530.5017880796331 6029.682525704729
1531.276677391992 6019.394931065318
1532.0513783976457 6383.428244141627
1532.825891146953 6298.382361119644
1533.6002156902414 6268.0735711242105
1534.3743520778207 6142.500799768391
1535.1483003599806 6277.12504103557
1535.9220605869923 6256.778376400971
1536.6956328091019 6318.400343768817
1537.4690170765407 6239.845335104351
1538.242213439511 6353.750194952926
1539.015221948208 6322.30292948558
1539.78804265279 6315.804088877274
1540.560675603405 6158.871967738442
1541.3331208501804 6301.292949753493
1542.1053784432224 6432.381993606834
1542.8774484326168 6317.871571181003
1543.649330868422 6328.8728513974975
1544.4210258006842 6268.074400675764
1545.1925332794308 6312.215122617667
1545.9638533546604 6353.028658665701
1546.7349860763552 6297.472868022953
1547.5059314944829 6655.876231694133
1548.27668965898 6390.92300295312
1549.0472606197673 6444.726190065185
1549.817644426752 6319.839589837686
1550.5878411298072 6492.973470644543
1551.3578507787988 6468.250202466925
1552.1276734235635 6362.238230494722
1552.8973091139233 6354.89214273842
1553.6667578996767 6532.886883166158
1554.436019830604 6379.284444501695
1555.20509495646 6354.100577631911
1555.9739833269869 6363.986067048871
1556.7426849919011 6358.939519131119
1557.511200000903 6605.9957320372005
1558.2795284036674 6469.705887604728
1559.0476702498509 6518.072585270865
1559.8156255890954 6615.315197662126
1560.5833944710157 6735.1196612195945
1561.3509769452048 6464.930225124116
1562.1183730612447 6531.148283901678
1562.8855828686865 6521.079941988284
1563.6526064170703 6585.371185054729
1564.4194437559127 6658.484235052545
1565.1860949347047 6499.029725392647
1565.9525600029283 6721.279879854608
1566.7188390100328 6669.481908413285
1567.4849320054564 6534.682121065999
1568.250839038612 6601.055221467349
1569.0165601588997 6555.535872189405
1569.7820954156887 6602.58712273588
1570.5474448583373 6510.601362904928
1571.31260853618 6492.811124147341
1572.0775864985299 6307.039668304211
1572.8423787946813 6586.503474355495
1573.6069854739108 6349.394720054772
1574.371406585471 6488.29133359928
1575.1356421785986 6537.719248149846
1575.899692302506 6359.89935826379
1576.6635570063845 6415.231571571306
1577.4272363394157 6450.54285002058
1578.190730350747 6309.288448161098
1578.9540390895163 6399.574794547696
1579.7171626048384 6147.8598381650345
1580.480100945806 6238.748329870196
1581.2428541614918 6297.851982232191
1582.0054223009538 6267.497125262942
1582.767805413223 6264.351300873879
1583.5300035473156 6225.866844424815
1584.292016752228 6479.078409812582
1585.0538450769309 6368.495238154663
1585.8154885703807 6177.135781559338
1586.5769472815136 6087.0821136396535
1587.3382212592405 6240.193580268906
1588.099310552463 6348.376935178491
1588.8602152100484 6179.869911286259
1589.6209352808564 6340.841375496091
1590.3814708137234 6180.093126897588
1591.14182185746 6286.082389578516
1591.9019884608679 6213.856203064024
1592.6619706727215 6114.485290464517
1593.4217685417734 6261.330895744564
1594.1813821167616 6348.955633495667
1594.9408114464022 6160.896349866754
1595.7000565793933 6164.658045480046
1596.459117564409 6245.048864968747
1597.2179944501113 6116.112075242605
1597.9766872851324 6121.445468224508
1598.735196118092 6242.852845759103
1599.4935209975883 6254.181406628941
1600.2516619721973 6264.557300778545
1601.0096190904787 6226.145403874556
1601.7673924009723 6276.108279015138
1602.524981952196 6254.358050326759
1603.2823877926476 6092.699420298761
1604.0396099708087 6100.184082861306
1604.7966485351371 6077.364433178686
1605.5535035340745 6136.8605223130335
1606.3101750160404 6378.940385653991
1607.0666630294363 6055.208354108414
1607.822967622642 6028.759661422473
1608.5790888440224 6169.804462611331
1609.3350267419137 6281.313325622979
1610.0907813646445 6179.213990143522
1610.8463527605145 6132.85034654296
1611.601740977805 6154.430011584607
1612.356946064785 6207.296526781529
1613.1119680696902 5979.542245247247
1613.8668070407512 6246.141887501318
1614.6214630261748 6035.833463922261
1615.375936074137 6224.988187678728
1616.1302262328118 6025.874141932321
1616.8843335503425 6206.172388630116
1617.638258074854 6003.182732360934
1618.391999854457 6169.114522658391
1619.1455589372363 6260.671295896669
1619.8989353712623 6155.142335178675
1620.65212920458 5825.061206740075
1621.4051404852235 6087.671273445589
1622.1579692611976 6151.695365675746
1622.9106155804966 5865.89814623294
1623.663079491087 6035.089771702932
1624.4153610409248 6148.309387815492
1625.1674602779385 5946.811256713211
1625.9193772500403 5932.531507005502
1626.6711120051277 6113.870863728562
1627.4226645910676 5958.9191623365
1628.174035055721 5884.987698915178
1628.9252234469168 5984.612720990125
1629.676229812474 6012.127475526269
1630.4270542001905 6319.233226878414
1631.1776966578382 5979.138383877322
1631.9281572331747 5970.56821349156
1632.678435973945 6286.003645856814
1633.4285329278573 6197.356048575062
1634.1784481426203 5938.521034990611
1634.9281816659113 6103.796805835087
1635.677733545388 6280.179566338729
1636.4271038286934 6132.677486812077
1637.176292563452 6235.7138554447365
1637.9252997972635 6232.585783804841
1638.674125577716 6383.752985601347
1639.4227699523672 6518.526405303075
1640.171232968767 6200.846531665273
1640.9195146744423 6338.228123511466
1641.6676151168977 6515.625229667781
1642.4155343436178 6605.704534333359
1643.1632724020765 6451.102885526108
1643.9108293397167 6471.129847072686
1644.658205203974 6421.550336315906
1645.4054000422566 6840.009931611792
1646.1524139019566 6539.646378162243
1646.8992468304423 6588.468581194143
1647.6458988750728 6655.165063100901
1648.3923700831765 6670.954753802564
1649.1386605020743 6643.616234334484
1649.8847701790564 6786.121516427804
1650.6306991614038 6836.747075946367
1651.3764474963682 6680.426803004945
1652.1220152311944 6398.336886255
1652.867402413096 6805.315514988525
1653.6126090892776 6654.003607832902
1654.3576353069184 6922.8138442685395
1655.1024811131829 6585.355574229036
1655.8471465552066 6573.868901713028
1656.5916316801213 6761.239296887652
1657.3359365350298 6664.87611340156
1658.0800611670165 6457.7493970999285
1658.824005623148 6465.214708477496
1659.5677699504722 6438.024161142161
1660.3113541960192 6477.5626970787125
1661.054758406799 6368.409109119936
1661.7979826297997 6206.09571416017
1662.5410269119966 6154.336785195648
1663.283891300338 6249.418676521581
1664.0265758417645 6195.525762178261
1664.7690805831826 6222.370085649564
1665.5114055714948 6178.1825432936175
1666.2535508535748 6248.846068686094
1666.9955164762814 5799.128957496347
1667.7373024864555 6016.832904272804
1668.478908930916 5868.209059685041
1669.220335856462 5812.684095466504
1669.9615833098778 5841.359771439706
1670.7026513379296 5639.542105370233
1671.44353998736 5645.99210952855
1672.1842493048916 5647.693483051746
1672.9247793372379 5607.027611500288
1673.6651301310812 5631.704393236943
1674.4053017330934 5568.418018172873
1675.1452941899242 5639.728931787929
1675.885107548207 5242.158019716375
1676.6247418545518 5342.098992451253
1677.3641971555535 5366.809346719275
1678.1034734977893 5482.3283231642945
1678.8425709278108 5393.006414798591
1679.5814894921605 5433.921713742488
1680.320229237359 5163.169818651087
1681.0587902098978 5383.978949623621
1681.7971724562685 5133.261738752652
1682.5353760229264 5096.822346753549
1683.2734009563173 5244.876714715208
1684.0112473028657 4963.163801737717
1684.7489151089794 5031.300045489696
1685.4864044210462 5126.386754882204
1686.2237152854377 4689.81887959589
1686.960847748498 4874.2639577453465
1687.6978018565642 4745.045997966793
1688.434577655944 4716.563982106991
1689.1711751929379 4507.602744248385
1689.9075945138156 4588.719539945392
1690.6438356648396 4665.60534625663
1691.3798986922448 4301.050247064139
1692.1157836422499 4478.678182065089
1692.851490561059 4421.7252232451065
1693.587019494853 4478.786833223856
1694.3223704897991 4268.614269298144
1695.0575435920364 4267.374868852688
1695.792538847696 4475.491097784201
1696.527356302886 4136.479586119068
1697.2619960036936 4151.5943554343285
1697.9964579961907 4083.4126233242837
1698.730742326432 3920.138069104634
1699.4648490404488 3931.737213801391
1700.1987781842563 4129.473743410165
1700.9325298038548 4078.346991642201
1701.6661039452174 4088.1048459408084
1702.3995006543082 4117.085825150321
1703.1327199770658 4111.02569390642
1703.865761959416 3897.947819041407
1704.598626647261 3995.0702869210604
1705.3313140864866 3774.6310102026787
1706.0638243229587 3774.1978702503047
1706.7961574025303 3995.0030997057474
1707.528313371029 3795.5620000919203
1708.260292274268 3663.573280019174
1708.9920941580403 3848.935844721276
1709.7237190681226 3706.6565589362726
1710.4551670502697 3651.257699414873
1711.18643815022 3551.1836034979374
1711.9175324136959 3853.2296883378317
1712.6484498863938 3667.9228339460046
1713.379190614005 3458.849474994103
1714.109754642188 3540.7248330438415
1714.8401420165883 3562.0867629682193
1715.570352782839 4105.683052056998
1716.3003869865497 3610.0117753621585
1717.0302446733076 3505.312706497949
1717.7599258886876 3580.056593730909
1718.4894306782444 3767.5367859275007
1719.2187590875183 3473.54465173177
1719.9479111620203 3819.601120714256
1720.6768869472544 3510.1251135840057
1721.4056864887025 3787.1834202561304
1722.1343098318284 3671.3032418583907
1722.8627570220742 3623.4937951484376
1723.591028104871 3502.743673273692
1724.3191231256242 3388.4416003697306
1725.0470421297232 3510.616372439205
1725.7747851625427 3642.5004932416
1726.5023522694337 3649.278697341848
1727.2297434957363 3453.9117483226646
1727.9569588867635 3203.1511187612214
1728.6839984878152 3525.984059167801
1729.4108623441734 3085.7682382712037
1730.1375505011038 3513.5484445398442
1730.8640630038426 3439.19464943642
1731.5903998976264 3341.0083198133857
1732.316561227657 3415.6652727783644
1733.0425470391274 3251.3183995518675
1733.7683573772065 3346.2718030448705
1734.4939922870508 3399.6936328377064
1735.2194518137949 3508.6680645205897
1735.9447360025606 3370.2201213011913
1736.669844898439 3333.366353611725
1737.3947785465189 3218.350601614151
1738.1195369918605 3205.9358339017685
1738.8441202795093 3411.832106819471
1739.5685284544943 3392.1386075974615
1740.292761561821 3377.5633072683245
1741.0168196464838 3355.148342896792
1741.7407027534518 3376.3166476139318
1742.464410927687 3420.532520717031
1743.187944214118 3304.54052010905
1743.9113026576688 3318.328974087879
1744.634486303241 3305.4599204863925
1745.3574951957125 3451.98694355598
1746.0803293799509 3347.3029164452128
1746.8029889008048 3348.154244999697
1747.5254738031017 3243.4822827053613
1748.2477841316504 3173.394364581259
1748.969919931249 3274.7225402358226
1749.6918812466665 3232.368574144445
1750.4136681226646 3326.216781230202
1751.1352806039777 3348.2168104788916
1751.856718735331 3015.782053812272
1752.5779825614281 3098.29886120919
1753.2990721269507 3314.8558264871717
1754.0199874765676 3349.7714665613958
1754.7407286549314 3094.0026547583157
1755.4612957066693 3204.9815880302945
1756.1816886763954 3228.4324821069767
1756.9019076087097 3395.3819035895044
1757.6219525481865 3189.8576809379524
1758.3418235393856 3313.2027270900326
1759.061520626854 3272.712902286188
1759.7810438551096 3347.1409193430613
1760.5003932686614 3120.5372093506785
1761.2195689119999 3298.4048236271346
1761.938570829594 3277.2647194963843
1762.657399065898 3223.3244806474618
1763.376053665348 3088.631762389589
1764.0945346723602 3017.681059816193
1764.812842131334 3273.332863989887
1765.5309760866512 3068.230813119456
1766.2489365826787 3029.233620374413
1766.9667236637597 3077.0803749434913
1767.684337374223 3072.2523418622886
1768.401777758383 3062.7938818669018
1769.1190448605284 3105.656583212889
1769.836138724937 3036.224445855154
1770.5530593958665 3180.0357621402036
1771.2698069175603 3387.691522345716
1771.9863813342326 3202.3078851138816
1772.702782690094 3136.512164392826
1773.4190110293293 3176.3067852074946
1774.1350663961111 3192.7835395764814
1774.8509488345844 3070.173486983183
1775.5666583888924 3120.4066976415234
1776.2821951031437 3310.387254330315
1776.9975590214362 3146.3348231295445
1777.7127501878585 3222.9420059313666
1778.4277686464684 3212.4933994599437
1779.1426144413108 3239.081488957749
1779.8572876164162 3135.9833195838573
1780.571788215797 3097.122899421889
1781.2861162834415 3088.871694398684
1782.0002718633277 3163.536592978283
1782.7142549994132 3126.415617528542
1783.4280657356376 3158.4210348712695
1784.141704115922 3011.209961710325
1784.855170184177 3129.146196944678
1785.5684639842839 3188.890312084583
1786.2815855601148 2806.322487702199
1786.9945349555237 3313.2084148004114
1787.707312214343 3045.246296813
1788.4199173803918 3255.1933738304556
1789.132350497468 3006.695335590936
1789.8446116093583 3004.0066001555997
1790.556700759822 2982.8353599757384
1791.2686179926077 3059.382376534217
1791.9803633514493 2978.12015235969
1792.6919368800554 2846.077233446485
1793.4033386221236 3054.9464792162757
1794.1145686213295 3162.0323730897976
1794.8256269213307 3294.6534434643727
1795.536513565774 3136.762557961081
1796.247228598284 2877.6842745238564
1796.9577720624693 3036.612714827149
1797.6681440019165 3079.984676490362
1798.3783444602013 2981.0763815976397
1799.0883734808776 3081.0594378693813
1799.7982311074884 3012.152189366795
1800.5079173835475 3138.37470519211
1801.2174323525633 3031.05762430695
1801.9267760580187 2905.2379549037028
1802.635948543386 3011.324183198013
1803.3449498521113 2944.6179801197914
1804.0537800276325 3042.427614315793
1804.7624391133668 2920.110101864446
1805.47092715271 2793.529094490352
1806.1792441890484 2869.1325401740264
1806.8873902657433 2997.1767277181993
1807.5953654261448 3037.475518338659
1808.3031697135812 2925.014994925088
1809.0108031713662 2826.5171383170386
1809.71826584279 2990.7093528912283
1810.425557771141 2958.5463642686236
1811.1326789996747 3213.564279779785
1811.839629571632 2827.7803985944556
1812.5464095302468 2843.361850454789
1813.2530189187182 3000.654750387463
1813.959457780249 2871.7346680932906
1814.6657261580076 3028.220092751856
1815.371824095153 3047.0306187530396
1816.0777516348262 2990.71341954535
1816.78350882015 2576.601593442845
1817.4890956942272 2678.283936430918
1818.1945123001533 2922.435089160262
1818.8997586809928 2945.8378595861586
1819.6048348798067 2821.8122475152454
1820.3097409396287 2918.0739334210016
1821.0144769034796 3292.793831678215
1821.7190428143622 2945.2171148244524
1822.423438715261 3038.7275954699353
1823.1276646491478 2802.1146264326053
1823.8317206589727 2849.1302350801247
1824.5356067876692 2877.5788042245317
1825.2393230781581 2830.3350102928152
1825.942869573335 2865.406472617772
1826.646246316086 2701.235035209878
1827.3494533492758 2790.9769212705323
1828.052490715756 2915.295872903186
1828.7553584583547 2828.565260424297
1829.458056619891 2877.367591103639
1830.1605852431585 2783.185632290614
1830.8629443709433 2785.910913994931
1831.5651340460063 2908.4185797160476
1832.2671543110919 2691.4833503212612
1832.9690052089318 2907.1651817639113
1833.6706867822395 2724.13248538847
1834.3721990737104 2893.28997997659
1835.0735421260233 2969.2652318506384
1835.774715981841 2842.829053978065
1836.4757206838058 2914.1254348870693
1837.1765562745459 2843.0113724543726
1837.8772227966747 2711.3035938923094
1838.5777202927839 2837.089750386222
1839.2780488054523 2750.678886626797
1839.9782083772352 2728.442719468378
1840.6781990506806 2977.3118336894627
1841.378020868313 2821.0966033914497
1842.0776738726418 2949.647552545999
1842.777158106157 2659.692167939505
1843.4764736113375 2704.910975398313
1844.1756204306403 2890.057680244476
1844.8745986065078 2795.287249693107
1845.5734081813607 2714.87653153059
1846.2720491976124 2727.891214632994
1846.970521697649 2655.3535266267413
1847.6688257238511 2840.0793108495027
1848.3669613185684 2774.5820907136354
1849.0649285241452 2528.7729759313925
1849.7627273829057 2884.607623912284
1850.460357937156 2834.3463914208087
1851.1578202291857 2572.721508949235
1851.8551143012664 2781.104937468416
1852.5522401956569 2816.9266733374134
1853.2491979545957 3005.7413828183307
1853.9459876203055 2633.654213329175
1854.6426092349902 2638.279631589104
1855.3390628408451 2677.7513009461277
1856.0353484800362 2897.84471472477
1856.7314661947203 2792.944465290758
1857.4274160270397 2617.119211085398
1858.123198019115 2658.970948238677
1858.8188122130487 2635.115768362481
1859.5142586509319 2713.4046515025484
1860.209537374838 2632.3081238828013
1860.9046484268183 2786.134126954069
1861.599591848917 2841.195588105081
1862.294367683151 2600.930867106409
1862.988975971528 2741.0542944963504
1863.6834167560355 2685.595882763483
1864.3776900786452 2883.387362123422
1865.0717959813119 2631.0268401233566
1865.7657345059724 2600.664409869508
1866.4595056945564 2785.832639246475
1867.1531095889586 2655.281999957452
1867.846546231076 2470.43416544355
1868.5398156627743 2762.913626418326
1869.2329179259123 2613.8484305685574
1869.9258530623283 2827.2539058483817
1870.618621113843 2628.8228771790536
1871.3112221222636 2553.7262879746145
1872.0036561293764 2546.058369483925
1872.695923176956 2729.053599144262
1873.3880233067594 2842.8078189468433
1874.0799565605212 2527.168735912982
1874.7717229799673 2700.0183000816583
1875.4633226068036 2822.0526557687526
1876.1547554827175 2761.687183556391
1876.8460216493859 2653.551593538982
1877.5371211484617 2614.175734754306
1878.2280540215852 2838.301017526853
1878.9188203103804 2507.70997758757
1879.6094200564548 2749.755848983674
1880.299853301396 2617.997353705273
1880.9901200867826 2958.916062475528
1881.6802204541673 2784.428936016619
1882.3701544450942 2686.9451167503203
1883.059922101087 2535.0364135960667
1883.7495234636517 2829.567440491952
1884.4389585742792 2507.3808232712117
1885.1282274744517 2532.2304929195734
1885.8173302056166 2941.3935964855873
1886.506266809225 2633.7536557184735
1887.195037326701 2536.4394385100554
1887.8836417994517 2516.766899619178
1888.5720802688702 2809.167755406109
1889.260352776333 2631.413741181873
1889.9484593632042 2703.2864075352945
1890.63640007082 2621.1891770421075
1891.3241749405151 2440.348826547898
1892.0117840135954 2689.216715885431
1892.6992273313572 2581.856507443525
1893.3865049350788 2511.1640603067913
1894.0736168660223 2895.6331268691642
1894.7605631654333 2642.113346516456
1895.4473438745408 2482.7150641173057
1896.133959034556 2876.678032410266
1896.820408686679 2762.9751504429346
1897.506692872088 2809.7591857130597
1898.192811631945 2598.1624654155785
1898.8787650073991 2511.0952901212286
1899.5645530395832 2717.070572606663
1900.2501757696118 2659.1598940206704
1900.9356332385796 2389.3961657047657
1901.620925487574 2780.270832798617
1902.3060525576602 2682.967923236427
1902.9910144898859 2692.8443253515884
1903.6758113252872 2506.5155380708784
1904.3604431048789 2605.689871562918
1905.0449098696663 2655.940698431362
1905.7292116606295 2499.255962268785
1906.4133485187394 2682.8319104905577
1907.0973204849488 2287.171343674768
1907.7811276001976 2354.593665648191
1908.4647699053967 2524.6812021499636
1909.1482474414588 2073.270615117744
1909.8315602492694 2364.3727625050933
1910.5147083696957 2666.901633603277
1911.1976918436012 2465.9321197792115
1911.880510711815 2524.009438391413
1912.5631650151681 2760.7229507067436
1913.2456547944657 2472.4208941583847
1913.927980090495 2582.988797562065
1914.6101409440362 2601.4295992816665
1915.2921373958416 2557.122154138344
1915.9739694866603 2587.6529781538857
1916.655637257214 2604.3973081992754
1917.3371407482136 2510.111818828123
1918.0184800003572 2799.1498308318833
1918.6996550543154 2638.036902927501
1919.3806659507554 2568.41591097075
1920.0615127303208 2522.701543667562
1920.7421954336423 2595.681914385249
1921.4227141013343 2640.7680759993973
1922.103068773993 2617.0586725895187
1922.783259492202 2583.124632385276
1923.4632862965227 2434.760002194147
1924.1431492275078 2574.1211261374165
1924.8228483256917 2424.885160859899
1925.5023836315922 2455.560446338814
1926.1817551857057 2255.838294375736
1926.8609630285227 2686.4264490299292
1927.5400072005123 2642.902995947356
1928.218887742125 2437.555095214228
1928.8976046938005 2299.415759351154
1929.5761580959588 2641.2283352658933
1930.2545479890086 2386.0108180283314
1930.9327744133352 2253.44376677196
1931.6108374093164 2528.9644820179196
1932.2887370173066 2784.415578208767
1932.9664732776473 2278.385116732953
1933.6440462306673 2601.9657521416834
1934.3214559166754 2440.3390827533244
1934.9987023759659 2692.7144525723224
1935.675785648813 2489.9830562530756
1936.3527057754836 2173.9947069289474
1937.029462796223 2264.553611781824
1937.70605675126 2355.358852615075
1938.3824876808085 2357.9587537443194
1939.058755625072 2515.8396112999994
1939.7348606242267 2410.9857868556114
1940.4108027184448 2490.123805515664
1941.0865819478713 2586.64132036315
1941.7621983526478 2442.282911237082
1942.4376519728921 2333.964216268868
1943.1129428487038 2473.700863253938
1943.7880710201734 2473.546706888531
1944.4630365273733 2506.9538522162975
1945.1378394103576 2342.1888880057595
1945.8124797091714 2713.3451173476583
1946.4869574638324 2258.165410565463
1947.161272714353 2478.3376618178863
1947.8354255007234 2523.112158258107
1948.5094158629272 2470.3049274787895
1949.1832438409183 2500.577687045254
1949.8569094746435 2704.215408213138
1950.530412804037 2694.0345256300384
1951.2037538690092 2662.4876059154913
1951.8769327094578 2402.7019255345776
1952.5499493652678 2393.0932382606225
1953.222803876306 2610.9234176959308
1953.895496282421 2504.90129504382
1954.5680266234522 2405.4070988099766
1955.2403949392155 2579.5201330445007
1955.9126012695142 2274.9703794615807
1956.5846456541403 2394.484777943087
1957.2565281328643 2267.1461585211573
1957.9282487454457 2613.599407881734
1958.5998075316202 2392.546901827583
1959.27120453112 2294.5618035014977
1959.9424397836501 2445.243953158705
1960.613513328908 2392.3367283166285
1961.2844252065697 2653.213516223502
1961.9551754563017 2298.9248349683394
1962.6257641177453 2314.3612908448476
1963.29619123054 2184.2154099259023
1963.966456834296 2319.377690006463
1964.6365609686181 2225.2847301512456
1965.306503673086 2564.321232531201
1965.976284987275 2288.8119830964542
1966.645904950734 2422.073000609785
1967.315363603002 2101.6823540330784
1967.9846609836077 2372.937883633164
1968.6537971320486 2226.7552770948805
1969.3227720878222 2466.453337390395
1969.9915858904042 2382.2854559155994
1970.660238579252 2269.455549474843
1971.3287301938108 2350.420011443047
1971.997060773514 2348.6107459202185
1972.665230357772 2304.5342626092684
1973.3332389859843 2323.049946936795
1974.0010866975335 2166.380601821666
1974.6687735317864 2265.4743847198247
1975.3362995280932 2449.1278832040553
1976.003664725793 2414.387687412995
1976.6708691642052 2165.6331729028543
1977.3379128826364 2327.304656381362
1978.004795920373 2516.910221862453
1978.6715183166925 2593.068006122679
1979.3380801108524 2089.167479005545
1980.0044813420973 2283.911884534945
1980.6707220496555 2074.82110009394
1981.3368022727373 2299.0695121672616
1982.0027220505417 2348.9269428972107
1982.66848142225 1959.8366533094172
1983.3340804270283 2193.052185441216
1983.999519104027 2299.4989136636364
1984.6647974923835 2341.967470388725
1985.329915631215 2328.2459134857713
1985.99487355963 2297.3326692931323
1986.6596713167146 2412.1861895768025
1987.3243089415428 2177.6182686955444
1987.9887864731754 2429.517060200352
1988.6531039506553 2139.9761168644773
1989.3172614130071 2209.4662725338553
1989.9812588992481 2279.111181745374
1990.645096448372 1929.0845402151222
1991.3087740993633 2298.3947567254218
1991.9722918911848 2205.242885197505
1992.635649862792 2305.702492449368
1993.2988480531185 2351.5660413481155
1993.9618865010852 2626.2912014181293
1994.6247652455968 2240.335545766823
1995.287484325545 2127.672436803101
1995.9500437798033 2316.7032944156695
1996.6124436472292 2276.5546244091424
1997.2746839666706 2338.5774082371513
1997.936764776954 2259.5421182127034
1998.598686116895 2216.1510029341675
1999.2604480252903 2461.89045023738
1999.9220505409212 2368.163736229934
2000.5834937025593 2169.226341201474
2001.2447775489582 2263.038123367198
2001.9059021188514 2394.969422209137
2002.5668674509616 2193.905244689278
2003.2276735839987 2317.353816093725
2003.8883205566508 2468.720242790176
2004.5488084075987 2189.3469688281025
2005.2091371755014 2178.441101620457
2005.8693068990033 2122.08622209394
2006.5293176167397 2292.5923950050187
2007.1891693673224 2148.5045031192003
2007.848862189354 2025.0888595318836
2008.5083961214223 2196.5639140964004
2009.1677712020955 2171.0133093891363
2009.8269874699254 2211.1347194587943
2010.4860449634598 2550.6645557011793
2011.1449437212177 2527.465532714702
2011.8036837817108 2504.3388133659582
2012.4622651834325 2180.3243813079634
2013.1206879648653 2407.9248407045316
2013.7789521644736 2384.2858995757997
2014.4370578207036 2033.5593995601012
2015.0950049719922 2118.7914494225583
2015.7527936567585 2417.2793513231804
2016.4104239134067 2104.9950639960502
2017.067895780323 2584.002751165798
2017.725209295886 1980.6741838363116
2018.3823644984514 2503.159292818141
2019.0393614263648 2249.527694353452
2019.6962001179545 2233.423718677816
2020.3528806115355 2290.7574122207984
2021.0094029454067 2365.3225993252177
2021.6657671578487 2041.7872922596011
2022.321973287133 2241.453328300685
2022.9780213715148 2134.4111501709976
2023.6339114492293 2271.733797031028
2024.2896435585026 2217.310423460304
2024.9452177375442 2103.640376694182
2025.600634024544 2362.6414543197675
2026.2558924576842 2281.3727114838084
2026.9109930751292 2395.626258131839
2027.565935915025 2254.569635536543
2028.2207210155066 2403.867807453801
2028.8753484146964 2581.880159119795
2029.529818150695 2003.5556377137073
2030.1841302615903 2232.520451524678
2030.8382847854573 2065.485130846206
2031.4922817603601 2200.7467344053666
2032.1461212243357 2149.912513818834
2032.7998032154192 2032.8865165927677
2033.4533277716218 2178.7979206315376
2034.1066949309443 2077.540890224933
2034.7599047313688 2028.7026994538562
2035.4129572108704 2312.0133107839856
2036.0658524074006 2163.9760669080465
2036.7185903589016 2319.9360941114874
2037.3711711032956 2333.9526397221753
2038.023594678496 2182.5647712919645
2038.675861122394 2053.213162347348
2039.3279704728757 2371.8726530068548
2039.9799227678031 1980.3588713718589
2040.6317180450278 2197.9964369690574
2041.2833563423865 2115.315374294286
2041.9348376977014 2424.9012707631364
2042.5861621487784 2225.2876415644437
2043.2373297334088 2233.4614508189816
2043.8883404893695 2185.6698143414246
2044.5391944544208 2403.3847912605997
2045.1898916663158 2340.6791919486705
2045.8404321627804 2417.4884479441143
2046.4908159815368 2034.063834366032
2047.1410431602853 1999.4800796714321
2047.7911137367173 2101.4653701080397
2048.441027748504 2316.712439369257
2049.090785233302 2041.793131666342
2049.7403862287592 2024.7467151221426
2050.389830772503 2035.2152511593479
2051.0391189021466 2045.75104788428
2051.688250655294 2149.1370179595924
2052.337226069527 2014.328774736197
2052.986045182417 2281.326751617141
2053.634708031521 1855.0361645904493
2054.283214654375 2298.4923792904415
2054.931565088511 1890.917268274672
2055.579759371436 2089.0660270718827
2056.2277975406523 2125.825997774191
2056.8756796336384 2366.0436337368387
2057.5234056878617 1846.8754435231142
2058.1709757407752 2207.801806749784
2058.8183898298194 2461.1048935707868
2059.465647992416 2196.5374977315596
2060.1127502659747 2227.4343173862862
2060.759696687888 1957.971435528258
2061.4064872955405 2434.177289442365
2062.053122126292 2426.614877691907
2062.699601217497 1846.67157112439
2063.345924606485 2127.2874499969457
2063.992092330587 2141.6155504913177
2064.638104427102 2084.5523034174944
2065.283960933324 2377.1683786144195
2065.92966188653 2239.601100385883
2066.5752073239855 2125.797789210728
2067.2205972829397 1867.5428435529896
2067.86583180062 2284.603651412061
2068.5109109142522 2072.8776428079277
2069.15583466104 2053.920425515386
2069.8006030781708 2034.9476573737254
2070.445216202821 2060.952524638926
2071.089674072153 2234.0070146724297
2071.7339767233116 2321.6908044904685
2072.3781241934303 2004.4480599114675
2073.0221165196253 2234.851939227486
2073.6659537390024 2231.442177421345
2074.3096358886505 2212.116495591411
2074.953163005637 2024.779565234688
2075.596535127028 1834.9784368756332
2076.2397522898664 1997.5738249112069
2076.882814531182 2069.885854017427
2077.5257218879924 2274.1103780769467
2078.1684743973 2025.503418931828
2078.8110720960885 1915.4293851610896
2079.453515021336 2005.0042745496198
2080.095803209997 2094.627975444114
2080.7379366990135 2087.706697250402
2081.37991552532 2080.7237577951155
2082.0217397258275 2268.2028258218716
2082.6634093374414 1912.4160889468446
2083.3049243970418 2041.3574174506903
2083.9462849415067 2198.255732495155
2084.587491007689 2204.4127137632677
2085.2285426324324 2156.486774636402
2085.869439852564 2090.1190980456367
2086.510182704902 2039.893388111156
2087.1507712262483 2096.077158197766
2087.791205453381 2006.3487881850972
2088.4314854230743 2257.3013728320766
2089.0716111720867 2035.1937950573035
2089.7115827371617 1868.4840840714037
2090.351400155023 1897.9932888731964
2090.991063462385 1927.6513816848933
2091.6305726959527 1838.6909818484019
2092.2699278924047 2086.5449593010185
2092.9091290884153 2051.418838609155
2093.548176320641 1940.3276499224498
2094.187069625721 2246.534991184753
2094.8258090402887 1825.1632039927565
2095.464394600951 2167.08181524598
2096.102826344313 2133.096763247913
2096.741104306955 2236.490685227932
2097.379228525453 2024.9479069509066
2098.017199036358 1799.9776224051031
2098.6550158762147 2278.125442433503
2099.2926790815527 2247.579348726974
2099.9301886888825 2001.954515252078
2100.5675447347076 2206.2847200600127
2101.2047472555114 2110.3769971236175
2101.841796287761 1994.1254557466225
2102.47869186792 2154.023361976151
2103.1154340324265 1924.7889800404264
2103.752022817709 1914.9981474449846
2104.388458260184 2044.4408537254171
2105.024740396251 2093.1752648516754
2105.660869262292 1965.5179821394136
2106.296844894685 2207.782761234232
2106.93266732978 2148.195363430265
2107.5683366039284 1837.162104922962
2108.2038527534532 2027.5534381946065
2108.8392158146726 2231.6528024864383
2109.4744258238843 1934.1174892482773
2110.1094828173755 1904.1092591653178
2110.744386831422 2216.1344742470137
2111.3791379022787 1973.0052751816863
2112.01373606619 2149.5271948541085
2112.648181359389 2286.6007328613255
2113.28247381809 2060.7310570442355
2113.916613478492 2029.3982341292262
2114.550600376786 2141.1213478693135
2115.1844345491445 2046.3908058957338
2115.818116031729 1978.0892966147962
2116.451644860679 2002.0833005471045
2117.085021072133 2012.6085725071275
2117.718244702204 1757.033375776443
2118.3513157869984 1907.6119721533894
2118.984234362604 1970.3515860558741
2119.617000465092 2078.3829373981634
2120.249614130529 2113.0773674340385
2120.8820753949585 2066.959194157299
2121.5143842944162 1910.4657841925814
2122.14654086492 1901.1220866404706
2122.7785451424734 2081.156307262039
2123.4103971630702 1689.8599635943785
2124.042096962681 2037.9670224036981
2124.6736445772767 1966.6497093580372
2125.305040042802 1889.06592449545
2125.936283395191 1958.405586976937
2126.567374670365 1837.163937067448
2127.198313904233 1834.4488254752148
2127.8291011326855 1863.77609269884
2128.4597363916037 1892.9432369433114
2129.0902197168507 1916.9781955000046
2129.720551144279 1789.0759053341699
2130.3507307097225 2198.7447220632
2130.980758449008 2135.3677789808416
2131.6106343979427 1741.4324718778535
2132.2403585923203 2107.836379220472
2132.8699310679276 2289.8464216517173
2133.499351860526 2063.715916013243
2134.1286210058715 2006.0076294537612
2134.7577385397053 2063.9045228289683
2135.3867044977487 2121.9591878870465
2136.0155189157176 2290.9510183967177
2136.644181829308 2154.7901317277856
2137.2726932742025 2061.169638919927
2137.901053286074 2125.5299568815494
2138.5292619005777 1857.471462094344
2139.1573191533535 1812.6204134857653
2139.7852250800315 2175.124410410136
2140.4129797162295 1983.312505152609
2141.0405830975433 1723.1505437890094
2141.6680352595613 1835.1210154698638
2142.2953362378576 1947.3269036051393
2142.9224860679915 1724.343463351738
2143.549484785508 2058.6221897349706
2144.1763324259373 2011.2574157805873
2144.803029024799 1939.6703877045607
2145.429574617594 1683.9703458404106
2146.0559692398165 2036.9397962593775
2146.682212926942 1804.7506759725609
2147.308305714432 1962.292082484009
2147.9342476377333 2169.5185675332914
2148.5600387322847 2200.054369481392
2149.185679033506 2093.1544188523685
2149.8111685768017 1795.123744037092
2150.4365073975678 1879.3656965770147
2151.061695531187 2046.902311046943
2151.686733013021 2260.929895760572
2152.311619878423 2102.1329970233055
2152.9363561627342 1943.0345420463625
2153.560941901278 1672.054170866198
2154.1853771293663 1972.4304061660666
2154.809661882293 2033.0534944022297
2155.433796195348 2263.0411877090305
2156.0577801037944 1802.8986371212864
2156.681613642895 1964.406503308354
2157.3052968478896 1828.8155251233443
2157.928829754006 2048.2210682262166
2158.552212396462 2001.4144699615383
2159.1754448104566 1859.4128438803637
2159.7985270311783 1774.1407968689277
2160.4214590938027 1496.825406355278
2161.0442410334927 1550.8869520005799
2161.6668728853874 1903.4968992519578
2162.289354684628 1840.5768619407002
2162.911686466332 1919.8889640837667
2163.533868265602 2056.290252532167
2164.1559001175337 2226.5541577941085
2164.7777820572046 2123.3059979640398
2165.399514119681 1893.8955542317453
2166.021096340013 1687.4915443081104
2166.6425287532384 1708.9877047770883
2167.263811394385 1730.6177635832312
2167.8849442984574 2044.8530792691035
2168.505927500455 1810.9732778249006
2169.126761035366 1831.9872637858018
2169.7474449381552 1853.2319633108611
2170.367979243778 1693.399822255437
2170.9883639871823 2046.954315699249
2171.608599203293 1783.367287245693
2172.2286849270276 2135.3734015348773
2172.8486211932886 2082.947190059106
2173.4684080369625 2105.407567752023
2174.0880454929265 1755.8114244160843
2174.7075335960417 1612.6945269896883
2175.3268723811543 1667.6093110410973
2175.9460618831 1722.6864135574451
2176.565102136701 2040.4824520685809
2177.1839931767627 1917.0292904215912
2177.802735038078 1793.2773975632663
2178.421327755432 1815.6275929938292
2179.0397713635866 1772.6861939220132
2179.658065897298 1916.4227567587454
2180.276211391305 1893.3858484026819
2180.8942078803357 1808.6532083117734
2181.5120553991 1905.8062406842796
2182.129753982299 1622.317585577532
2182.7473036646206 1832.2056128633162
2183.3647044807367 1959.2916107276037
2183.9819564653044 1730.1833076677158
2184.599059652968 2009.8149322020442
2185.216014078367 2031.1813883337309
2185.832819776113 2044.4511688572773
2186.4494767808137 2057.6354699354442
2187.065985127063 1936.6758139787228
2187.682344849436 1849.1512487369698
2188.298555982501 2128.781800696045
2188.9146185608097 1924.2580192061828
2189.530532618901 1919.01435264985
2190.1462981912937 1954.548582314518
2190.761915312507 1874.5635245212866
2191.377384017036 1774.094973336163
2191.9927043393654 1807.0949098082026
2192.6078763139667 1990.300401146283
2193.2228999753006 1723.9444443212167
2193.837775357808 1898.6303417005347
2194.452502495922 1662.4635068551306
2195.0670814240602 1925.7907410391697
2195.6815121766285 1569.852555647581
2196.2957947880186 1592.7077566309263
2196.9099292926057 1615.6146390775116
2197.523915724758 1856.5928637795055
2198.137754118825 1873.709323443541
2198.7514445091456 2016.3674352931898
2199.3649869300443 2167.0204264329977
2199.9783814158327 2318.11629408257
2200.5916280008096 2083.0281887760493
2201.2047267192593 2057.924916232985
2201.8176776054515 1877.4707213735455
2202.430480693649 1625.7670019296856
2203.0431360180955 1985.1711343982242
2203.6556436130195 1943.235788091021
2204.268003512645 1568.0851107690369
2204.8802157511727 1760.1281219194439
2205.492280362796 2197.4400169317883
2206.1041973816937 1969.6670296666991
2206.715966842032 1954.3328728858141
2207.3275887779655 1905.157374287083
2207.93906322363 2059.5188577690847
2208.550390213153 1891.6332840145465
2209.1615697806465 2000.6332044036262
2209.7726019602105 1780.9467022477304
2210.3834867859277 1649.5279202954694
2210.9942242918787 1908.8422418484565
2211.6048145121167 1922.4348212749246
2212.2152574806914 2355.6828984846184
2212.825553231638 2350.3288433299467
2213.435701798975 2345.1224408068365
2214.045703216707 1875.2113033805786
2214.655557518832 1409.1745998364245
2215.2652647393297 1655.69499089233
2215.874824912169 1488.5336084174733
2216.4842380713 1751.687089060832
2217.09350425067 1731.0911306674072
2217.7026234842033 1852.937719625835
2218.311595805819 1953.6742039023648
2218.9204212494133 1783.2581401519237
2219.52909984888 1713.8148151903522
2220.137631638092 2061.9537148886407
2220.7460166509154 1992.3988590351746
2221.354254921198 1835.1486405116564
2221.9623464827764 1841.1657378175976
2222.5702913694713 1887.4042987938271
2223.178089615096 1985.4965747493702
2223.7857412534486 1827.5957882880782
2224.39324631831 1608.887331733223
2225.000604843457 1683.871524868145
2225.607816862641 1881.5753437630228
2226.214882409611 1725.663971544635
2226.8218015180973 1833.8829378390903
2227.4285742218217 1904.5079067887032
2228.0352005544864 1705.9437449507973
2228.6416805497847 1701.0896379404924
2229.248014241399 1673.0104070397279
2229.8542016629945 1476.772870532055
2230.460242848223 1956.1477119958508
2231.0661378307304 2018.2208726195938
2231.671886644139 1715.9917552038946
2232.277489322065 1499.1414383673966
2232.8829458981127 1455.0341400719485
2233.48825640587 1728.002602594878
2234.0934208789095 1883.4299624216267
2234.6984393507955 2039.0945234618237
2235.3033118550793 1875.801093759299
2235.9080384252975 1853.8329999184884
2236.5126190949723 1538.4754313834235
2237.1170538976166 1571.8464978502175
2237.721342866729 1555.58403572581
2238.32548603579 1630.0271625379496
2238.9294834382763 1770.477909800508
2239.533335107646 1864.2254978019137
2240.1370410773434 1745.4038087065205
2240.740601380803 1806.223097078641
2241.3440160514474 1867.1561319008986
2241.9472851226783 1990.7116041530685
2242.550408627896 1824.5991655533367
2243.1533866004793 2156.060257237493
2243.756219073799 1771.7040992716168
2244.3589060812064 1661.1271116708085
2244.961447656049 1674.42720001778
2245.5638438316564 1822.2954201240723
2246.166094641343 1982.3241316562767
2246.7682001184166 1627.3491192541546
2247.3701602961664 1623.0283787027029
2247.971975207871 1878.374551649288
2248.5736448867974 1872.772312343225
2249.175169366197 1719.9005107426535
2249.7765486793123 1655.9327758996362
2250.3777828593684 1969.9957807918358
2250.9788719395783 1801.5621882192609
2251.579815953146 1931.0466190024922
2252.1806149332606 1938.2503525121465
2252.781268913097 1945.4111439693218
2253.381777925817 1602.9490595177535
2253.9821420045737 1751.9239414367955
2254.5823611825035 2007.3231216281008
2255.1824354927303 1875.3976424539846
2255.782364968365 1732.8681874946292
2256.38214964251 1590.1954582319183
2256.9817895482483 1600.3762681207204
2257.5812847186553 1673.6784252773825
2258.180635186791 1745.651774849034
2258.779840985704 1662.9203495282466
2259.37890214843 1622.230699633986
2259.97781870799 1893.3125651512225
2260.5765906973957 1928.1829756851348
2261.175218149645 1954.053075307224
2261.773701097718 1615.9316148412624
2262.3720395745895 1623.3568144904016
2262.970233613216 1583.8370357378203
2263.568283246548 1703.173050416813
2264.1661885075137 1583.2161530536468
2264.763949429038 1678.3495358568373
2265.3615660440246 1899.5282742575225
2265.959038385374 1920.5938774685972
2266.5563664859637 1941.7383789355038
2267.153550378669 1576.754742120787
2267.7505900963424 1810.9368463259266
2268.3474856718312 1611.5048047355815
2268.9442371379664 1642.0529319307193
2269.5408445275643 1652.903811182258
2270.1373078734377 1669.939753330642
2270.7336272083758 1644.1860553937145
2271.32980256516 1638.2700885818788
2271.925833976562 2009.382353175636
2272.5217214753357 2060.5161268372717
2273.117465094223 1850.603356696141
2273.7130648659586 1640.2536707200247
2274.308520823257 1554.1366675831819
2274.903832998827 1814.445862783281
2275.4990014253563 1500.1056591600345
2276.094026135528 1837.9904298235585
2276.6889071620117 1674.379792056127
2277.2836445374614 1638.731426859922
2277.878238294519 1623.0493443475355
2278.472688465812 1560.8090104027247
2279.066995083962 1498.42216641624
2279.6611581815705 1614.2830111077383
2280.255177791232 1519.2662612896393
2280.8490539455233 1949.1771914063127
2281.442786677013 1966.3883412640444
2282.0363760182554 1761.2495657384916
2282.6298220017943 1540.2630075457764
2283.223124660155 1894.2777563711152
2283.816284025859 1610.725937545721
2284.4093001314086 1903.2603991271058
2285.002173009292 1656.726874871479
2285.5949026919952 1841.951327509128
2286.1874892119777 1695.094802471871
2286.7799326016993 1805.3132259700276
2287.3722328936 1408.0101532165284
2287.964390120109 1182.8524960056807
2288.556404313642 1739.77685608383
2289.1482755066027 1772.7722545209588
2289.7400037313873 1778.9322582551915
2290.3315890203703 1579.8624681317083
2290.9230314059205 1548.7330487831289
2291.5143309203904 1517.601320642388
2292.1054875961236 1634.4456797350274
2292.6965014654506 2049.3720905060763
2293.287372560684 1629.67656281876
2293.878100914131 1629.0078954976982
2294.468686558086 1628.3902531256713
2295.059129524827 1604.7364143351128
2295.649429846617 1642.3222018292895
2296.239587555716 1679.9425274595021
2296.8296026843636 1846.005056527488
2297.419475264791 2029.8625167688556
2298.0092053292137 1592.0599046008126
2298.598792909839 1596.5925771819936
2299.1882380388597 1453.7146417350339
2299.777540748455 1638.2096809928144
2300.3667010707904 1822.8483911761916
2300.9557190380256 1892.9018672905572
2301.544594682302 1874.671681369678
2302.1333280357503 1613.8792162914258
2302.721919130485 1785.098584082801
2303.3103679986198 2020.9396620484345
2303.898674672242 1964.436979803638
2304.486839183437 1550.5804449732163
2305.0748615642697 1756.752387336274
2305.6627418468015 1726.3112408203128
2306.2504800630704 1718.5377292274588
2306.8380762451143 1806.2132015708169
2307.425530424949 1879.5294745942654
2308.012842634582 1952.9993860057348
2308.6000129060103 2003.90155961132
2309.187041271214 2012.6854883924
2309.773927762164 1903.604400058604
2310.3606724108213 1794.3166631673982
2310.9472752491274 1532.3686206222371
2311.5337363090184 1793.8149530932521
2312.120055622414 1626.0654696792606
2312.706233221221 1575.728036057359
2313.2922691373424 1456.4299605192168
2313.8781634026564 1523.8391694338657
2314.463916049037 1591.389684839491
2315.049527108342 1606.455020734666
2315.6349966124235 1624.8167834775606
2316.2203245931123 1643.1892818483732
2316.8055110822315 1478.387991352629
2317.3905561115935 1349.5311197839255
2317.9754597129977 1544.5411561528656
2318.560221918229 1404.7078271957303
2319.1448427590603 1264.5876675735663
2319.729322267256 1476.8599357060134
2320.313660474563 1751.2049080240708
2320.8978574127195 1619.5363208136298
2321.481913113452 1855.8035599476411
2322.0658276084705 1548.0618766938123
2322.6496009294806 1566.9616576704152
2323.233233108165 1818.4892984884245
2323.8167241762058 1444.0624517985912
2324.4000741652617 1711.1258853698844
2324.983283106987 1809.945930536233
2325.5663510330232 1505.1661485492666
2326.1492779749933 1592.6815204726563
2326.7320639645204 1745.9068797434852
2327.3147090332004 1485.9036103112971
2327.897213212629 1589.1118896557102
2328.4795765343843 1692.3412962170205
2329.0617990300307 1551.405442111164
2329.643880731124 1770.5550238987253
2330.22582166921 1561.8969849870055
2330.807621875816 1437.7368367614386
2331.3892813824623 1313.500962582284
2331.9708002206517 1151.8213205567047
2332.5521784218818 1368.6404645567575
2333.133416017634 1585.9582028873785
2333.7145130393765 1468.5024423830257
2334.295469518571 1875.568404599046
2334.876285486658 1826.4488362537309
2335.456960975076 1692.7292853395454
2336.037496015242 1558.7401542351759
2336.6178906385667 1548.5485035246454
2337.198144876451 1680.571096423846
2337.778258760278 1716.8532900572932
2338.3582323214214 1690.5312111620638
2338.938065591243 1664.1055074743592
2339.517758601087 1908.666723427536
2340.0973113822965 1641.9219716304917
2340.676723966193 1676.413458462702
2341.255996384094 1855.9791247491835
2341.835128667295 1928.7340047040593
2342.4141208470883 1941.0752237401423
2342.992972954751 1655.5494264436916
2343.5716850215467 1759.514423463944
2344.1502570787306 1684.8850187057683
2344.7286891575386 1610.0286354158384
2345.3069812892045 1959.1399362517163
2345.885133504944 1537.8927622715944
2346.4631458359618 1485.0282479049138
2347.04101831345 1372.759121147882
2347.6187509685915 1622.9273702819926
2348.196343832553 1534.9395157151034
2348.7737969364935 1644.0964991248657
2349.351110311558 1435.5311244290697
2349.9282839888765 1245.9657411604642
2350.5053179995757 1549.4270910580628
2351.0822123747585 1387.8147011131168
2351.658967145526 1366.1668100706283
2352.2355823429643 1344.5623824442812
2352.812057998144 1568.6818674883818
2353.3883941421263 1396.309834220274
2353.9645908059647 1457.526990303982
2354.540648020693 1518.9299399893923
2355.116565817336 1736.4598946528954
2355.6923442269126 1524.9108664561982
2356.2679832804224 1764.1282298120198
2356.8434830088518 1557.3956065491236
2357.41884344318 1468.7427762806558
2357.994064614377 1712.9028756234547
