#exp_cfg={"servo_angle": 0.0, "laser_lim": 100.0, "servo_angle_to": 18.0, "laser_wup": 0.0, "bt_dev": "EnSpectr-25AE3", "laser_wdn_max": 0.0, "frames": 10.0, "servo_used": 0, "servo_calib_use": 0, "laser_wdn_min": 0.0, "servo_pix_from": 90.0, "cooler_tout": 300.0, "servo_angle_from": 0.0, "servo_calib": "[-1.9174921013161362e-09, 3.9322238269163779e-05, -0.27385609119055809, 653.59552119713567]", "laser_autoctl": 0, "servo_pix_to": 3682.0, "laser_pw": 100.0, "cooler_on": 0, "laser_volt": 4.0, "cooler_autoctl": 0, "cooler_curr": 70.0, "cooler_startup": 10.0, "laser_fixed_pw": 0, "gain": 1.3, "offset": 2.53059635486, "servo_calib_degree": 3.0, "laser_curr": 55.0, "shutter": 8200.0, "servo_calib_step": 1.0, "laser_fixed_curr": 0, "exp": 2000.0, "ccd_volt": 4.7, "bt_addr": "00:06:66:62:5A:E3", "servo_delay": 500.0, "laser_autooff": 1}
#proc_cfg={"flat_auto_wnd": 200.0, "flat_auto_fr": 200.0, "flat_auto_shift": 5.0, "yconv": 1, "flatten": 1, "flatten_strength": 100.0, "xfrom": 300.0, "auto_max_frame": 2000.0, "auto_signal": 48000.0, "flat_auto_tol": 0.1, "autoclip": 1, "xrel_range": 0.0, "flat_auto_to": 4000.0, "intensity_adj": 1.0, "xrel": 7852.0, "rmhot": 1, "flat_auto_slit": 4.999999999999997, "auto_ini_exp": 300.0, "auto_off": 0, "xto": 2860.0, "flat_auto_ref": "", "flat_auto_rank": 1, "autobackg": 0, "xrel_adj": 0.0, "auto_black_lvl": 1, "base_wnd": 100.0, "sub_baseline": 0, "xconv": 2, "auto_max_exp": 1000.0, "auto_total_exp": 10000.0, "auto_exp": 0, "rmripple": 0, "black_lvl": 8255.6875, "shutter_clip_adj": 0.0, "auto_bckg": 0, "flat_auto_thr": 0.9, "subbackg": 1}
316.8218498245369 16084.601639040931
317.89969571804795 15964.448166469669
318.977263876126 15946.050654072893
320.05455438786703 15881.300877086833
321.1315673423287 15815.141946713291
322.2083028285215 15861.070758869784
323.2847609354267 15793.834932976446
324.3609417519747 15745.98191532816
325.43684536705587 15663.348083057246
326.5124718695279 15645.209251803777
327.58782134820103 15563.343663125308
328.66289389184385 15576.492182177779
329.7376895891921 15461.790598656275
330.8122085289342 15463.040516727488
331.88645079971866 15437.104353052975
332.9604164901575 15392.008113110956
334.03410568881554 15370.84832888717
335.1075184842266 15406.614606194378
336.18065496487543 15209.73621308612
337.2535152192122 15224.909182249365
338.32609933564163 15199.999254540298
339.39840740253203 15014.50156871891
340.4704395082099 15120.115144022659
341.5421957409617 14974.33154693151
342.6136761890357 15046.805505322607
343.6848809406365 14929.372978508598
344.75581008392874 14766.025092517162
345.82646370703696 14698.88945404995
346.8968418980512 14726.93869173792
347.96694474501055 14726.813253988395
349.0367723359268 14668.839000250937
350.106324758759 14669.09661415187
351.1756021014353 14502.217406411906
352.2446044518383 14429.471183488373
353.31333189781435 14525.094496458803
354.38178452716966 14390.953779337131
355.449962427665 14405.510520761934
356.51786568702846 14248.269398346174
357.58549439294256 14338.424046732558
358.6528486330535 14314.359898529397
359.71992849496564 14190.352662655205
360.7867340662433 14265.43456802964
361.8532654344144 14211.672213098442
362.9195226869597 14133.729950145262
363.9855059113288 14102.302046959474
365.05121519492604 14019.510616609059
366.11665062511565 14127.187303778448
367.1818122892273 13958.800515630257
368.2467002745434 13972.061141937342
369.31131466831175 13890.837081049369
370.375655557742 13950.442339083287
371.4397230299983 13957.8823404183
372.5035171722102 13865.037054285587
373.5670380714637 13833.352118097959
374.6302858148101 13832.692000235267
375.6932604892554 13793.743067835798
376.7559621817709 13745.718595204622
377.81839097928605 13730.193238928076
378.8805469686886 13705.667365442085
379.94243023683157 13704.52954114649
381.0040408705263 13613.304709268143
382.0653789565458 13578.945734843646
383.1264445816196 13598.964305639083
384.1872378324406 13589.764811713812
385.2477587956637 13555.911430910803
386.3080075579037 13452.628798762165
387.3679842057336 13405.761183256342
388.4276888256918 13475.788569825532
389.48712150426945 13331.363582386683
390.54628232792857 13307.126080139496
391.6051713830857 13313.432035313468
392.66378875611736 13328.708483198352
393.7221345333637 13301.528242342063
394.7802088011249 13248.323880544136
395.838011645661 13215.31730711823
396.89554315319765 13221.886105565087
397.9528034099112 13130.59890326211
399.00979250194723 13060.450206130687
400.06651051541485 13121.509888985845
401.1229575363741 13062.75506212558
402.17913365085224 13024.018103845145
403.23503894483656 13074.049098152878
404.2906735042761 13043.845190196853
405.3460374150818 12931.456749164665
406.401130763119 13025.700041807653
407.455953634224 13019.429325609275
408.5105061141876 13006.498132357812
409.56478828876243 12835.828426501914
410.6188002436629 12873.10132780149
411.6725420645689 12912.532162992411
412.72601383711117 12896.068181594008
413.77921564689314 12871.337934397425
414.8321475794728 12857.828028617743
415.88480972036814 12809.807956475997
416.93720215506437 12877.204151397365
417.9893249690049 12775.71866533385
419.04117824759123 12684.569204995107
420.09276207619223 12718.822466005622
421.144076540133 12711.373701628025
422.1951217247042 12761.637108444924
423.24589771515275 12697.447791440394
424.2964045966928 12591.489013187218
425.34664245449494 12640.719263809839
426.3966113736933 12546.095620797592
427.4463114393875 12505.48956450103
428.49574273662984 12508.470411374346
429.5449053504417 12490.180000132112
430.5937993658026 12562.265372935926
431.6424248676558 12449.333477372686
432.6907819409007 12430.030746636949
433.73887067040596 12445.768388003033
434.7866911409965 12515.099610911722
435.8342434374608 12505.347720354239
436.88152764455117 12470.538546823245
437.9285438469724 12441.155885648179
438.9752921294057 12424.00174155509
440.02177257648145 12469.147040622618
441.06798527279716 12414.834149534701
442.1139303029122 12531.200705525325
443.1596077513459 12580.354095233484
444.2050177025794 12543.53606465888
445.25016024105753 12482.034798295994
446.2950354511886 12565.589508723626
447.33964341733736 12574.888946470153
448.383984223834 12545.058373253869
449.4280579549686 12442.587311700318
450.471864694995 12560.181540126145
451.5154045281306 12560.199947365483
452.5586775385509 12532.021287980184
453.60168381039693 12583.455875831674
454.64442342776783 12788.381428262117
455.6868964747264 12673.326808005022
456.7291030353008 12676.666689015903
457.77104319347563 12729.372912688037
458.8127170332027 12725.959781474057
459.854124638392 12815.338375487354
460.895266092919 12983.821019630448
461.93614148061897 13091.007433514895
462.97675088529104 13191.665081700168
464.01709439069236 13297.793193401889
465.0571720805492 13471.542618858472
466.0969840385442 13566.266141382375
467.1365303483253 13660.652715313909
468.17581109350067 13674.319488620118
469.2148263576437 13764.639841591186
470.2535762242878 13746.071472710822
471.29206077693016 13838.171168631237
472.33028009902773 13851.385029289164
473.3682342740012 13880.637848159482
474.40592338523857 13798.055672283768
475.4433475160804 13723.442044104639
476.4805067498364 13614.81835434514
477.51740116978 13590.353143578443
478.5540308591426 13467.812499498392
479.59039590112116 13507.04155701635
480.6264963788726 13269.932601505201
481.6623323755193 13292.248531091192
482.6979039741436 13183.042388112124
483.7332112577915 13195.622503779852
484.76825430947247 13226.71404268817
485.80303321215797 13087.553207664943
486.837548048783 12982.089191258205
487.8717989022425 13071.32927176572
488.90578585539697 13008.405240773525
489.9395089910686 13009.15277294899
490.97296839203955 12822.121920199557
492.00616414106116 12756.32522137734
493.0390963208429 12786.210667163159
494.0717650140559 12790.567837074517
495.10417030333883 12675.050960003795
496.1363122712901 12539.848836708008
497.16819100046814 12472.139514360808
498.1998065734024 12418.329318437332
499.2311590725767 12358.477369980612
500.26224858044407 12296.042196916547
501.2930751794156 12230.55915409375
502.3236389518679 12297.805087299443
503.35393998014115 12114.887568012437
504.38397834653733 12241.250831605144
505.4137541333221 12242.27902809978
506.4432674227228 12142.320319940149
507.4725182969323 12193.089670274912
508.5015068381035 12113.350740632804
509.53023312835467 12145.647872873109
510.55869724976765 12093.965031007803
511.58689928438434 12018.922357141808
512.6148393142121 11914.51052811783
513.6425174212218 11980.306140460285
514.6699336873462 11888.533960840043
515.6970881944835 11879.330921030149
516.7239810244901 11791.780576590707
517.7506122591931 11825.981362689961
518.7769819803761 11678.541580827618
519.8030902697901 11809.214491982113
520.8289372091476 11813.426515618741
521.8545228801249 11803.648602169955
522.8798473643619 11724.877375383261
523.9049107434621 11661.320553538699
524.9297130989908 11786.924294946002
525.9542545124805 11718.995459370904
526.9785350654201 11723.80924781814
528.0025548392696 11742.796238920786
529.0263139154504 11645.015486675005
530.0498123753423 11682.005088783877
531.073050300296 11639.314005501812
532.0960277716204 11561.100392512544
533.1187448705896 11599.322254651011
534.1412016784416 11545.02893688522
535.1633982763833 11507.498048441994
536.1853347455726 11570.275797787357
537.2070111671401 11455.243524523994
538.2284276221817 11533.273093359237
539.2495841917516 11470.541694673106
540.2704809568677 11411.432440735212
541.2911179985167 11430.346745598854
542.3114953976419 11351.945283868954
543.3316132351592 11364.846734174389
544.3514715919409 11287.612155710633
545.3710705488247 11382.36322791206
546.3904101866156 11381.64170657728
547.4094905860784 11381.544985523418
548.4283118279418 11351.275614907387
549.4468739929034 11476.678616670533
550.4651771616191 11358.285576641543
551.4832214147063 11395.466614607503
552.501006832761 11475.609487878395
553.5185334963226 11369.317963124962
554.5358014859103 11450.965098267185
555.5528108820035 11332.845189001313
556.5695617650363 11398.676574469266
557.5860542154242 11505.189867980862
558.6022883135283 11415.135863165304
559.6182641396881 11322.686092312111
560.6339817741991 11423.135243227396
561.6494412973225 11424.844273879813
562.6646427892883 11485.512910295245
563.6795863302796 11358.321527191545
564.694272000459 11300.795604872337
565.7086998799423 11441.45269963642
566.7228700488104 11290.523800107769
567.7367825871115 11251.271670757886
568.7504375748576 11205.611661965753
569.7638350920224 11175.63133062592
570.7769752185486 11176.465970504974
571.7898580343353 11156.750420548276
572.802483619258 10960.490835643428
573.8148520531431 11171.130380391882
574.8269634157932 11019.831473000846
575.8388177869692 10953.893995619614
576.8504152463938 10966.533891978188
577.8617558737587 11018.981104184406
578.8728397487175 10966.193454393488
579.883666950891 10938.657677584144
580.8942375598654 10969.05774909324
581.9045516551851 11062.504194528294
582.9146093163617 11136.329366705826
583.924410622878 10985.9230518045
584.9339556541727 10978.452109657856
585.9432444896538 11013.662979962068
586.9522772086875 10946.8252696658
587.9610538906127 11021.101293937561
588.9695746147318 10861.492777240677
589.9778394603054 10965.418389999366
590.985848506567 10824.255679979626
591.9936018327098 10786.972822928708
593.0010995178891 10702.344000853498
594.0083416412344 10808.910231584106
595.0153282818283 10614.862356586604
596.0220595187293 10610.81007602561
597.0285354309508 10563.637053254497
598.0347560974806 10576.303633058851
599.0407215972609 10516.191055253867
600.0464320092051 10609.506072517195
601.0518874121954 10524.795208346532
602.0570878850685 10563.472451448788
603.062033506636 10580.820529752324
604.0667243556636 10558.461575807243
605.0711605108936 10587.651280619863
606.0753420510264 10816.533817332382
607.0792690547278 10629.516097068186
608.082941600629 10647.988532654894
609.0863597673306 10703.361371619232
610.0895236333909 10808.603915875778
611.0924332773357 10937.247649093546
612.0950887776617 10966.9378353342
613.0974902128219 11031.106840207605
614.0996376612384 11193.325361733576
615.1015312013005 11258.64228433853
616.1031709113595 11390.886133440184
617.1045568697336 11317.797343187904
618.1056891547069 11550.644948276999
619.1065678445229 11581.80459649964
620.1071930173985 11814.038213752541
621.1075647515099 11834.838612492615
622.1076831250048 11786.172767785367
623.1075482159849 11895.16117746879
624.1071601025305 11642.77928682618
625.1065188626781 11659.319594812876
626.105624574433 11825.642573273833
627.1044773157682 11672.11574130448
628.1030771646128 11561.769985821082
629.1014241988742 11605.149745006156
630.0995184964158 11606.234727868297
631.0973601350688 11647.696112660175
632.0949491926294 11779.321924949405
633.0922857468631 11487.412868711373
634.089369875499 11543.689259571196
635.0862016562278 11539.02222658134
636.0827811667077 11439.162432849931
637.0791084845641 11455.708012223937
638.0751836873878 11317.9059059786
639.0710068527369 11345.008958566505
640.0665780581294 11317.195830005683
641.0618973810506 11273.899748175554
642.0569648989604 11352.829592124272
643.0517806892676 11101.100093548883
644.0463448293649 11194.970748313186
645.040657396592 11075.507442790731
646.0347184682723 10996.43953649764
647.0285281216875 10931.135144693579
648.0220864340772 10917.315361649078
649.0153934826558 10919.3708203621
650.0084493446047 10751.507618008425
651.0012540970674 10809.540936790832
651.9938078171526 10723.07614246173
652.9861105819346 10732.902703378506
653.9781624684565 10821.314238730009
654.9699635537254 10590.109174331536
655.9615139147136 10657.519844852288
656.9528136283589 10519.682342676411
657.9438627715699 10596.346713736724
658.9346614212154 10507.074805898086
659.925209654135 10327.877277320284
660.9155075471263 10393.522467142495
661.9055551769616 10403.690139047158
662.895352620375 10429.492197640948
663.8848999540678 10361.158823684602
664.8741972547068 10286.699597487368
665.863244598926 10235.839375184438
666.8520420633213 10285.962887024747
667.8405897244611 10140.296067349052
668.8288876588758 10084.41529955548
669.8169359430613 10180.254812251278
670.8047346534822 10164.123138855724
671.7922838665672 10018.86670480591
672.7795836587156 10129.916371262116
673.766634106285 10224.149519455375
674.7534352856092 10047.03776566765
675.7399872729766 10163.524792029388
676.7262901446538 10018.419350787392
677.712343976862 10055.8396952819
678.6981488457986 10150.35049898008
679.6837048276229 10059.780951906914
680.6690119984596 9981.772338955489
681.6540704344043 10069.796908361403
682.6388802115107 9977.491696802668
683.6234414058108 9977.097061795712
684.6077540932874 9950.99504381834
685.591818349907 10006.627323531011
686.575634251587 9966.547714371549
687.5592018742263 9945.690502610292
688.5425212936734 9864.998126328723
689.5255925857564 9949.864803473707
690.5084158262707 10029.863686295705
691.4909910909646 9941.104736398524
692.4733184555644 9907.804996137507
693.4553979957618 10133.022922773194
694.4372297872123 10141.007912622186
695.4188139055404 10140.420120162958
696.4001504263324 10047.406776399144
697.3812394251509 10257.363655336998
698.3620809775111 10276.636716161116
699.3426751589104 10244.86740585638
700.3230220448004 10316.402762935157
701.3031217106054 10375.256596159725
702.2829742317172 10476.16219403718
703.2625796834873 10405.67535713263
704.2419381412474 10384.200496429141
705.22104968028 10592.245237510739
706.1999143758458 10687.226883410889
707.178532303169 10798.31991819747
708.1569035374378 11004.576938928842
709.1350281538107 11181.833488985902
710.1129062274158 11415.022117432596
711.0905378333373 11821.978015102193
712.0679230466376 12075.24292717571
713.0450619423427 12510.36563693684
714.0219545954424 12919.219870742778
714.9986010808989 13291.237149946994
715.9750014736292 13778.954326495674
716.9511558485392 14280.766088937515
717.9270642804786 14586.27738474519
718.9027268442787 14914.977774249197
719.8781436147328 14910.784787361874
720.8533146666014 14794.722361132208
721.828240074612 14736.220265805718
722.8029199134635 14457.120292363354
723.7773542578125 14201.726199106557
724.751543182294 13775.197923438373
725.7254867615029 13548.862830089687
726.6991850700015 13083.206954730653
727.6726381823228 12924.142236963919
728.6458461729599 12783.705441917073
729.6188091163858 12654.888906439313
730.5915270870246 12759.681271073678
731.5640001592856 12788.049979389805
732.536228407529 12923.837183428972
733.5082119060917 13044.78993305306
734.4799507292755 13081.65985193388
735.4514449513481 13140.673882421223
736.4226946465496 13228.825389549926
737.3936998890786 13223.811307948214
738.3644607531078 12864.719775867923
739.3349773127793 12695.611357778393
740.3052496421951 12481.312821793103
741.27527781543 12039.550922998844
742.2450619065221 11754.797845434361
743.2146019894826 11535.268821494694
744.183898138288 11236.114925856773
745.1529504268801 10899.60861894901
746.1217589291682 10628.156742908945
747.0903237190341 10427.80679182283
748.058644870318 10197.045612691629
749.0267224568397 10062.568807253017
749.994556552374 9854.619467792629
750.9621472306771 9773.988758972957
751.9294945654583 9630.771523835338
752.8965986304011 9629.559239585991
753.8634594991636 9469.663523929412
754.8300772453586 9530.262672410536
755.7964519425768 9403.698997071993
756.762583664371 9474.448523820796
757.7284724842611 9401.940670616925
758.6941184757416 9294.530057519047
759.6595217122667 9293.72638876346
760.6246822672638 9352.150557023202
761.5896002141235 9116.356885294632
762.5542756262093 9171.654466786564
763.5187085768503 9167.207779501303
764.4828991393406 9183.945522637267
765.4468473869474 9206.005444924545
766.4105533929032 9181.21397555292
767.3740172304078 9078.058245445103
768.3372389726283 9176.364222350761
769.3002186926988 9070.668112682335
770.2629564637282 9033.726711375892
771.2254523587872 9047.657236522971
772.1877064509154 8994.022822567096
773.1497188131179 8925.163936059707
774.1114895183728 8933.316911095393
775.0730186396268 8961.759510249767
776.0343062497905 8864.043737770393
776.9953524217381 8854.935033312997
777.9561572283274 8928.785301812339
778.9167207423689 8830.68938366191
779.8770430366476 8770.23565504661
780.8371241839159 8839.17018568928
781.7969642568951 8856.007755794697
782.7565633282757 9012.750858017516
783.7159214707099 8866.865127027842
784.6750387568281 8907.611491810701
785.6339152592227 8817.290815662802
786.5925510504512 8714.68591895894
787.5509462030477 8867.611207144535
788.5091007895098 8743.821111578744
789.4670148823006 8773.772777432363
790.4246885538596 8839.1346409341
791.3821218765861 8833.044153418059
792.3393149228505 8689.481366471597
793.2962677649975 8747.106520570333
794.2529804753303 8782.319439911527
795.20945312613 8814.944644198698
796.1656857896378 8670.878759904637
797.1216785380675 8621.292509392517
798.0774314435985 8712.902982227195
799.0329445783846 8820.434632090359
799.9882180145414 8753.724935627117
800.9432518241574 8665.579230805462
801.89804607929 8740.649911746674
802.852600851962 8725.464924832902
803.8069162141637 8727.251217286115
804.760992237856 8724.131107400151
805.714828994971 8796.426798848532
806.6684265574077 8852.802734706313
807.6217849970271 8697.35728105098
808.574904385674 8670.038202696207
809.527784795142 8831.87019585578
810.4804262972102 8814.180421335437
811.4328289636178 8633.677644638872
812.3849928660748 8581.988547877281
813.3369180762638 8611.821049504939
814.2886046658241 8655.837168797427
815.2400527063783 8556.39040717414
816.1912622695108 8613.498852133434
817.1422334267718 8515.624891690619
818.0929662496856 8473.105019891693
819.0434608097457 8389.55528095825
819.9937171784059 8445.944276087965
820.9437354271013 8372.052210033438
821.8935156272255 8470.373512835129
822.8430578501484 8349.120777259745
823.7923621672016 8227.459150651195
824.7414286496896 8444.448068641299
825.6902573688876 8374.12383247001
826.6388483960363 8365.69506478338
827.5872018023492 8325.772895063088
828.5353176590033 8383.740306094256
829.4831960371503 8222.188603100683
830.4308370079016 8276.116198789143
831.3782406423525 8295.878028090163
832.3254070115545 8336.21925269023
833.2723361865319 8150.633992125344
834.2190282382799 8141.770216662575
835.1654832377644 8327.264733562397
836.1117012559116 8180.224775376347
837.0576823636256 8284.111711944272
838.003426631778 8106.160178916625
838.9489341312074 8144.1328560215725
839.8942049327197 8286.773869588213
840.8392391070975 8246.710416810847
841.7840367250865 8217.260355699284
842.7285978573982 8115.197446213274
843.672922574724 8282.20710883722
844.6170109477152 8220.033078747465
845.560863046996 8153.427484169321
846.5044789431595 8142.463897647822
847.4478587067697 8175.557682450324
848.3910024083561 8281.041155528448
849.333910118421 8126.258879651064
850.2765819074339 8132.109161108068
851.2190178458332 8216.287960014559
852.161218004032 8239.206963479126
853.1031824524016 8230.923975717855
854.0449112612987 8135.52800118173
854.9864045010327 8173.713693167067
855.9276622418947 8163.605276188544
856.8686845541379 8185.565764516834
857.8094715079915 8212.788498439328
858.7500231736467 8275.755082581356
859.690339621271 8186.689096001253
860.6304209209939 8220.249070298254
861.5702671429244 8038.552274432039
862.5098783571284 8138.283499206491
863.4492546336569 8169.656164012403
864.3883960425155 8110.890435170826
865.3273026536863 8032.204627396835
866.2659745371238 8012.150334674347
867.2044117627465 8207.308954281054
868.1426144004472 8072.109617235791
869.0805825200823 8158.799689842532
870.0183161914847 8085.976519100807
870.9558154844526 8179.563559571606
871.8930804687552 8114.712147976845
872.8301112141307 8036.0602181442855
873.7669077902865 8161.107850492107
874.7034702669062 8238.350556648056
875.6397987136315 8179.597415286858
876.5758932000863 8188.662208304488
877.5117537958522 8209.663197975513
878.4473805704911 8122.928053098081
879.3827735935283 8122.0031501950625
880.3179329344603 8222.87536650815
881.2528586627541 8298.674844871199
882.1875508478479 8331.900538003369
883.1220095591489 8145.466517505338
884.0562348660296 8104.3243784817605
884.9902268378391 8221.392659546036
885.9239855438955 8155.490725639027
886.8575110534839 8124.746075274566
887.7908034358588 8083.925354685535
888.7238627602474 8184.743396509546
889.6566890958475 8199.507149649866
890.5892825118208 8072.3959703060955
891.5216430773125 8116.6478034956945
892.4537708614189 8079.385821724432
893.3856659332196 8012.822886519782
894.3173283617652 7982.247094018855
895.2487582160684 8110.159619158459
896.179955565116 8058.181795998762
897.110920477864 8012.306689765515
898.0416530232451 8011.248395652488
898.9721532701478 7987.434616638605
899.9024212874428 8077.77521618908
900.8324571439662 7958.431218838137
901.7622609085302 7965.784305884791
902.6918326499072 7961.075520950534
903.6211724368477 8044.646357081753
904.5502803380696 8016.488723573399
905.4791564222614 8130.127873006281
906.4078007580792 7995.941243047016
907.3362134141571 8003.925248191568
908.2643944590909 8154.003756801462
909.1923439614493 8072.045455194467
910.1200619897754 8039.972377337164
911.0475486125779 8185.7222327951795
911.9748038983344 8109.15889974401
912.9018279155007 8082.222365935035
913.8286207324982 8039.848805869735
914.7551824177117 8097.984139664045
915.6815130395116 8086.455466587739
916.6076126662283 7991.012094009297
917.533481366163 7944.61848645656
918.4591192075914 7968.351993670985
919.3845262587565 8019.091121208874
920.3097025878706 7949.355489993124
921.2346482631237 7896.0341597950055
922.1593633526682 7861.11298155714
923.0838479246304 7959.687384723325
924.0081020471061 8009.839208032662
924.9321257881656 7823.348852014361
925.8559192158464 7859.831580611552
926.7794823981512 7774.172885740673
927.7028154030686 7832.454559570933
928.6259182985414 7717.872563742242
929.5487911524906 7897.228412782351
930.4714340328119 7905.883209669756
931.3938470073608 7671.173752907949
932.3160301439748 7781.47368084058
933.2379835104548 7821.615298064779
934.1597071745709 7870.365664642675
935.0812012040769 7802.740423620616
936.002465666681 7849.148919495807
936.9235006300696 7891.725031671018
937.8443061619055 7854.998350620985
938.7648823298077 7777.717458110121
939.6852292013809 7714.308375681305
940.6053468441951 7838.405962871732
941.5252353257874 7814.2918628114085
942.4448947136698 7863.525105146388
943.364325075323 7797.651257243949
944.2835264782043 7886.699878651809
945.2024989897309 7912.501669911476
946.1212426773054 7844.5136870238275
947.0397576082851 7986.796053259162
947.9580438500125 8010.404797007478
948.8761014697939 8021.0189260278885
949.7939305349064 8101.2859128775135
950.7115311125999 8026.654140310928
951.6289032700952 8026.768844359305
952.5460470745875 8152.2795142865925
953.4629625932339 8048.5784763479505
954.3796498931715 8175.008618311646
955.2961090415029 8218.748586831869
956.2123401053068 8181.4675686322735
957.1283431516276 8143.870455517022
958.0441182474842 8013.818705273281
958.9596654598663 8111.618432845305
959.8749848557309 8061.949758607533
960.7900765020167 7999.181706561513
961.7049404656209 7985.709113052915
962.6195768134185 7983.3297877434425
963.5339856122537 7990.690828457516
964.4481669289453 7984.237162984651
965.3621208302793 7857.323432243846
966.2758473830145 7849.242560933318
967.1893466538822 7961.912654408245
968.1026187095813 7851.28930025037
969.0156636167867 7748.6711333491985
969.9284814421426 7907.882545798324
970.8410722522622 7717.39813885117
971.753436113735 7661.2470317236875
972.6655730931161 7754.6838708067835
973.5774832569368 7745.292358833362
974.4891666716958 7629.4294706488
975.4006234038698 7639.669114932871
976.3118535198955 7627.962850810899
977.2228570861935 7697.517680061096
978.1336341691494 7711.166247334065
979.0441848351202 7568.889739614011
979.9545091504333 7641.806784153671
980.864607181391 7678.0303557309935
981.7744789942699 7614.210026767125
982.6841246553086 7645.6266668427
983.5935442307236 7664.456221614799
984.5027377867027 7639.3295630786915
985.4117053894024 7618.070381176728
986.3204471049557 7565.434932710787
987.2289629994648 7589.015466757322
988.1372531390007 7664.685694940092
989.0453175896091 7620.081025111109
989.9531564173067 7563.577610498047
990.860769688079 7494.799824425555
991.7681574678918 7630.284862035563
992.6753198226706 7560.077247828917
993.582256818323 7562.31779992871
994.4889685207218 7569.2702226261945
995.3954549957143 7773.042029136575
996.301716309119 7660.18603022196
997.2077525267232 7601.2484926964225
998.1135637142943 7598.14635387632
999.0191499375615 7687.848173551439
999.924511262232 7599.669074715825
1000.8296477539861 7668.471630796323
1001.7345594784656 7562.725945283733
1002.6392465012996 7554.125118129918
1003.5437088880753 7656.989196772973
1004.4479467043584 7663.317307386918
1005.3519600156869 7412.348438945179
1006.2557488875718 7557.931448022779
1007.1593133854858 7525.6487380683075
1008.0626535748888 7459.62144770053
1008.9657695212009 7395.502560933183
1009.8686612898182 7564.48725695366
1010.7713289461135 7504.755624781329
1011.6737725554212 7488.221801472624
1012.5759921830577 7467.401693943177
1013.4779878943027 7463.725094356008
1014.379759754418 7512.559810359731
1015.2813078286254 7501.756242949572
1016.18263218213 7440.906994169384
1017.0837328801026 7420.19386717552
1017.9846099876886 7476.410949817793
1018.8852635700023 7351.26247129153
1019.7856936921362 7329.015974673156
1020.6859004191447 7496.191974233554
1021.5858838160675 7405.178226509859
1022.4856439479063 7353.286413130185
1023.3851808796389 7280.037957181019
1024.2844946762143 7424.68296773909
1025.183585402554 7417.985983402065
1026.082453123554 7216.308421783887
1026.9810979040776 7305.874275310462
1027.8795198089647 7257.196263788709
1028.777718903024 7387.785548228411
1029.6756952510368 7299.051963591804
1030.5734489177648 7179.792995057882
1031.4709799679313 7223.512861530455
1032.3682884662358 7325.295054937946
1033.2653744773506 7232.459031204086
1034.1622380659192 7221.226956355485
1035.058879296559 7337.79493325031
1035.9552982338591 7299.1310683693855
1036.8514949423825 7286.94525923435
1037.7474694866614 7247.345333020878
1038.6432219312028 7298.306000200557
1039.5387523404825 7485.758448221262
1040.4340607789582 7322.720524520077
1041.3291473110476 7316.804717938243
1042.2240120011465 7426.012924772663
1043.1186549136273 7497.202105085101
1044.0130761128294 7344.410129588621
1044.9072756630649 7383.927237846149
1045.8012536286205 7418.380957897913
1046.6950100737577 7525.298749364602
1047.588545062701 7482.080343943091
1048.481858659663 7473.985474002982
1049.3749509288118 7609.691876720312
1050.2678219343034 7338.41733291376
1051.1604717402515 7446.547021715256
1052.0529004107575 7389.882194778809
1052.9451080098825 7521.760758884385
1053.8370946016694 7410.991392878648
1054.7288602501267 7407.508960155348
1055.6204050192446 7421.893316607877
1056.511728972977 7389.470376714489
1057.402832175254 7320.067326347996
1058.2937146899785 7259.845942389024
1059.1843765810263 7185.6723315637355
1060.0748179122456 7328.402859638962
1060.9650387474576 7272.9482435627915
1061.855039150456 7317.767704317166
1062.7448191850071 7235.731083910929
1063.6343789148505 7282.702090693788
1064.5237184037014 7388.358600405159
1065.412837715241 7290.963391491688
1066.3017369131267 7195.384117536528
1067.190416060992 7108.585184098178
1068.0788752224398 7232.890689360679
1068.9671144610438 7175.930411350697
1069.8551338403558 7261.4921116714195
1070.7429334239023 7263.024374581891
1071.6305132751695 7120.525059938207
1072.517873457633 7262.318230955685
1073.4050140347335 7252.849862030908
1074.2919350698776 7289.192633176118
1075.1786366264623 7326.657339875154
1076.0651187678395 7290.955959855394
1076.95138155735 7314.118635826332
1077.8374250582929 7379.103771901156
1078.7232493339507 7458.356929266212
1079.608854447577 7372.40824100874
1080.4942404623907 7401.967405942765
1081.3794074415982 7549.652434488269
1082.2643554483657 7665.807220825845
1083.149084545841 7566.794553494641
1084.033594797138 7625.691047146739
1084.9178862653516 7698.836919480852
1085.8019590135427 7903.202980675029
1086.6858131047484 7738.401487732383
1087.5694486019802 7976.636315558081
1088.4528655682225 8022.051671092631
1089.3360640664287 8122.324031389593
1090.2190441595321 8098.06018428463
1091.1018059104317 8126.311264336519
1091.98434938201 8196.624033053795
1092.866674637111 8277.674447504982
1093.748781738559 8117.450222131697
1094.6306707491512 8071.961775672959
1095.5123417316554 8197.562002856199
1096.3937947488157 8130.764955886286
1097.2750298633455 8017.007378989823
1098.156047137938 8041.676940746142
1099.0368466352556 7998.865250588971
1099.9174284179317 8023.432235469087
1100.7977925485757 7794.042884948205
1101.6779390897755 7733.536791567176
1102.5578681040806 7742.138445439213
1103.4375796540226 7727.195138322546
1104.3170738021054 7631.568594458072
1105.1963506108077 7523.231799012882
1106.0754101425773 7423.741376575684
1106.9542524598382 7470.756361405646
1107.8328776249855 7380.069276261553
1108.7112857003904 7368.533969746747
1109.5894767483987 7330.5007262204645
1110.4674508313292 7445.0959625138075
1111.3452080114657 7262.8209746531065
1112.2227483510815 7231.717002083395
1113.1000719124077 7399.5203372171545
1113.9771787576592 7303.158288511642
1114.854068949022 7281.137788419817
1115.7307425486542 7319.099214886944
1116.6071996186893 7283.1081535210305
1117.483440221229 7472.627435249939
1118.3594644183577 7268.195125714267
1119.235272272128 7276.372259086294
1120.1108638445658 7365.630914748579
1120.9862391976712 7465.756924834529
1121.8613983934229 7412.612490770189
1122.7363414937627 7322.8992370028745
1123.6110685606182 7363.85080468207
1124.485579655884 7427.63878594549
1125.359874841426 7458.460271644969
1126.2339541790916 7411.316861334449
1127.1078177306936 7519.172563556803
1127.9814655580267 7466.2423179766
1128.854897722851 7458.568528735445
1129.7281142869106 7404.339404644338
1130.6011153119125 7407.118355611354
1131.473900859548 7508.023271467563
1132.3464709914697 7444.648938711262
1133.2188257693178 7383.506400179975
1134.0909652546961 7286.182319201895
1134.96288950919 7202.0662390383095
1135.8345985943506 7283.727667288906
1136.7060925717087 7145.280295434326
1137.57737150277 7131.4625639133565
1138.4484354490069 7198.090156750628
1139.3192844718778 7068.1507319161365
1140.1899186327992 7023.843833330286
1141.060337993178 7192.002796290025
1141.930542614382 7071.876900057296
1142.8005325577597 6961.4456413706575
1143.670307884635 6837.13785329894
1144.5398686563003 6944.174970924294
1145.409214934025 6879.999461716829
1146.2783467790541 6728.211576389143
1147.1472642526023 6839.63388779017
1148.0159674158622 6911.7086693452675
1148.8844563300026 6754.630148496699
1149.7527310561618 6739.315734790902
1150.6207916554504 6728.193271340441
1151.4886381889592 6739.467841564471
1152.3562707177498 6835.907956595806
1153.2236893028585 6761.588774526577
1154.090894005296 6691.8986520587805
1154.9578848860474 6814.188650826448
1155.8246620060709 6806.86644529763
1156.6912254262988 6608.202130225092
1157.5575752076438 6700.192287557281
1158.42371141098 6854.941434861879
1159.2896340971656 6852.107070829462
1160.1553433270346 6758.840256601879
1161.0208391613887 6757.4377801352575
1161.8861216610057 6803.807927542625
1162.75119088664 6813.960358620296
1163.6160468990201 6732.25527475595
1164.4806897588442 6803.0227489643785
1165.3451195267917 6864.34566721257
1166.2093362635114 6896.37810138053
1167.0733400296285 6846.131819893114
1167.9371308857444 6787.505173608259
1168.8007088924278 6820.4961132462795
1169.6640741102328 6873.859236212968
1170.5272265996773 6812.443207079143
1171.390166421259 6759.682006237004
1172.252893635452 6889.945205657949
1173.1154083026995 7045.939191519103
1173.977710483421 7026.232471833298
1174.8398002380145 6846.109820581674
1175.7016776268483 6978.055318191726
1176.563342710264 6974.662829737077
1177.4247955485826 6913.400118961979
1178.2860362020947 6944.910168974811
1179.147064731069 6924.189493819586
1180.0078811957483 7039.241100844379
1180.8684856563486 6972.672627630821
1181.7288781730604 6967.570331750804
1182.589058806052 6993.251009698359
1183.4490276154593 7156.403736582448
1184.3087846614017 6916.727511873401
1185.1683300039676 6998.892874703791
1186.027663703222 7087.351346011026
1186.8867858192025 7070.759365762629
1187.7456964119228 7098.6270407862685
1188.6043955413716 7080.563678051044
1189.4628832675116 7224.423175811366
1190.3211596502842 7269.17607900727
1191.179224749596 7152.253680023469
1192.0370786253388 7141.780415265984
1192.8947213373758 7298.8564356122715
1193.7521529455407 7437.712934037152
1194.6093735096438 7219.711280048211
1195.466383089477 7307.689251052654
1196.3231817447977 7220.108043456426
1197.1797695353398 7467.299811302323
1198.0361465208189 7276.7503843046825
1198.8923127609214 7284.420442047589
1199.7482683153048 7514.068317053102
1200.6040132436028 7503.360255372917
1201.459547605431 7398.357224306863
1202.3148714603722 7433.806701988222
1203.1699848679855 7493.348761595655
1204.0248878878065 7484.783552361236
1204.8795805793507 7264.312841249845
1205.7340630020935 7413.321243594177
1206.5883352155033 7478.319305468174
1207.4423972790064 7400.224984830069
1208.2962492520237 7356.890358205793
1209.1498911939307 7313.64912153781
1210.0033231640937 7305.661194464708
1210.8565452218427 7351.154316001385
1211.7095574264913 7036.099904012015
1212.5623598373222 7179.192948104826
1213.4149525135963 7163.614389642801
1214.2673355145507 7221.7639423344535
1215.1195088993936 7098.716137757739
1215.9714727273113 7140.833208038852
1216.8232270574663 7321.184821491904
1217.6747719489904 6949.778461470046
1218.5261074609934 7039.603024769797
1219.3772336525653 7100.186111100862
1220.2281505827668 7139.573477548835
1221.0788583106296 7184.728124644964
1221.9293568951707 6889.570795921277
1222.7796463953746 6917.529533374758
1223.629726870202 6986.882021111916
1224.4795983785934 7031.233200687109
1225.3292609794553 6888.13380447382
1226.1787147316809 6896.339256877291
1227.0279596941327 6959.741198266369
1227.8769959256424 6923.555957605879
1228.7258234850306 6895.2728159957505
1229.5744424310833 6757.650338788388
1230.422852822563 6869.4859521575345
1231.2710547182105 6921.7042152284685
1232.119048176739 6780.172985462452
1232.9668332568417 6638.945196215223
1233.8144100171812 6722.180594879387
1234.6617785163999 6761.924496642168
1235.508938813111 6495.8272990266505
1236.3558909659114 6572.792970667026
1237.2026350333617 6814.768573806786
1238.049171074008 6686.9016670182855
1238.8954991463652 6586.20012506205
1239.741619308932 6501.858611744199
1240.587531620169 5470.469114366793
1241.4332361385277 6579.032512536612
1242.2787329224248 6510.385739778858
1243.1240220302534 6419.835877027448
1243.9691035203869 6467.655780668183
1244.813977451171 6613.830839197632
1245.6586438809263 6566.3881705205295
1246.5031028679496 6357.137929536138
1247.3473544705157 6614.063624638114
1248.1913987468706 6609.04853733428
1249.0352357552383 6321.864096397323
1249.8788655538228 6445.189802348356
1250.7222882007918 6542.287254876139
1251.565503754302 6589.176994126824
1252.4085122724755 6324.11974467454
1253.2513138134182 6644.589542966079
1254.0939084352049 6583.56119623008
1254.9362961958905 6535.408664588484
1255.7784771535007 6505.077682018428
1256.6204513660432 6648.121211323005
1257.4622188915 6742.273314420723
1258.3037797878242 6572.804833302386
1259.1451341129468 6519.606173218572
1259.9862819247755 6683.972828685512
1260.8272232811978 6669.450873480268
1261.6679582400666 6828.403916366822
1262.5084868592203 6608.171707009041
1263.34880919647 6605.439454596659
1264.1889253095997 6750.310069428449
1265.0288352563712 6818.191498482241
1265.8685390945266 6637.547771518206
1266.7080368817751 6785.124908777805
1267.5473286758115 6875.202256834811
1268.386414534294 6828.909903647354
1269.2252945148703 6662.116213248288
1270.0639686751547 6760.9024459752545
1270.9024370727402 6745.228705736382
1271.7406997651997 6710.1026439046445
1272.5787568100714 6615.072011301692
1273.4166082648808 6761.584103025084
1274.2542541871244 6784.211999619953
1275.091694634275 7038.859982576479
1275.9289296637817 6677.223391967558
1276.7659593330663 6912.149076473537
1277.6027836995308 6809.218083882124
1278.4394028205552 6816.043162171316
1279.2758167534867 6765.457147965392
1280.112025555658 6741.760316825229
1280.9480292843746 6849.4353257709345
1281.7838279969128 6681.830443799998
1282.6194217505326 6768.179886268047
1283.4548106024686 6654.682436367771
1284.289994609926 6701.262650367353
1285.1249738300921 6820.16307100835
1285.959748320127 6689.049267394953
1286.7943181371702 6767.843259756832
1287.6286833383328 6737.850514985442
1288.4628439807038 6899.703438599419
1289.2968001213521 6829.64132032094
1290.1305518173194 6767.218751352388
1290.9640991256183 6910.25488682024
1291.7974421032523 6852.493627958519
1292.630580807183 6863.373794591027
1293.463515294361 7024.8262287587695
1294.29624562171 7048.065684985503
1295.12877184613 7052.594983929031
1295.961094024493 6944.070835995844
1296.79321221365 7082.378757865661
1297.6251264704333 7195.225096712148
1298.4568368516466 7404.295888417577
1299.2883434140658 7239.214810610344
1300.1196462144526 7235.520128240192
1300.9507453095375 7444.329852799366
1301.7816407560313 7359.448479703104
1302.6123326106172 7403.2548471156715
1303.4428209299622 7442.188166588878
1304.2731057707024 7643.6260254985045
1305.1031871894502 7482.804268917833
1305.933065242798 7646.59169315631
1306.7627399873181 7520.244605837861
1307.5922114795467 7819.150157049271
1308.4214797760123 7720.968140864554
1309.2505449332057 7675.514156852545
1310.0794070076026 7711.5236616352995
1310.9080660556538 7896.4227410471485
1311.736522133786 7727.3145322268365
1312.5647752983987 7646.203621413564
1313.3928256058734 7562.302583910847
1314.2206731125661 7764.591731780287
1315.048317874809 7746.4995492461385
1315.8757599489109 7697.1568264967555
1316.7029993911547 7805.649705278144
1317.5300362578055 7945.15655069375
1318.356870605101 7783.87497445808
1319.183502489257 7834.813294711204
1320.0099319664623 7908.7513070363375
1320.836159092889 7977.465221210038
1321.66218392468 7981.653399645632
1322.4880065179532 7866.397139652089
1323.3136269288134 7965.909019732331
1324.1390452133292 8013.444365450552
1324.9642614275563 8111.020702227829
1325.7892756275214 7863.582749341114
1326.6140878692295 7668.575725225482
1327.4386982086617 8064.163764240189
1328.2631067017755 7757.684778043404
1329.0873134045069 7653.671593647143
1329.911318372764 7608.901990084511
1330.735121662441 7498.691053338143
1331.558723329399 7447.8906644619765
1332.3821234294774 7420.30450173392
1333.2053220185007 7443.265478921394
1334.0283191522612 7247.649507766115
1334.851114886529 7179.6259466962265
1335.6737092770582 7007.870126482924
1336.4961023795695 7045.719981069744
1337.3182942497697 6900.237706084687
1338.1402849433325 6947.726635567266
1338.962074515921 6742.632855741622
1339.7836630231632 6637.887673331595
1340.6050505206676 6858.032641302261
1341.426237064028 6764.238459836901
1342.2472227088037 6570.627269498595
1343.0680075105338 6399.46424502918
1343.888591524741 6630.010617729587
1344.7089748069138 6498.46112399136
1345.5291574125276 6356.850061206447
1346.3491393970307 6299.011332730455
1347.168920815846 6380.660862926799
1347.9885017243778 6371.494721364004
1348.8078821780036 6249.976007208913
1349.6270622320844 6281.101655154379
1350.4460419419447 6090.458601685709
1351.2648213629054 6262.53465213064
1352.0834005502438 6031.914466877449
1352.90177955923 6079.57035621686
1353.7199584451064 6125.303425245831
1354.5379372630887 6110.124689175087
1355.355716068374 6015.636973085648
1356.1732949161305 5869.398707884171
1356.9906738615155 6023.718955248795
1357.8078529596478 5952.597500839087
1358.6248322656375 6063.080650782565
1359.441611834567 5929.210577775927
1360.2581917214866 6021.251265237214
1361.0745719814367 5919.8771509868575
1361.890752669433 5855.690162822966
1362.7067338404577 5794.9727873042475
1363.5225155494845 5926.625961039622
1364.3380978514506 6055.701159557776
1365.1534808012839 5774.017781174926
1365.9686644538815 5628.202486196602
1366.783648864117 6001.541481443367
1367.5984340868417 5944.403885196867
1368.413020176893 5904.494551334266
1369.2274071890715 5862.181310536938
1370.0415951781652 5921.033962515667
1370.8555841989346 5845.747643375229
1371.6693743061223 5749.911782040572
1372.48296555444 5582.444412443268
1373.2963579985844 5827.89899497942
1374.1095516932255 5891.351786049166
1374.9225466930166 5519.845189499185
1375.7353430525782 5848.874339153922
1376.5479408265164 5717.738721169822
1377.36034006941 5793.175425183453
1378.1725408358216 5661.420426178463
1378.9845431802805 5593.15386745191
1379.796347157304 5997.202216641521
1380.6079528213813 5825.737272219811
1381.4193602269788 5620.310938623511
1382.230569428546 5708.32024971767
1383.0415804805016 5857.028962096478
1383.852393437246 5783.744948331268
1384.6630083531563 5909.032418820224
1385.4734252825892 5671.268302450554
1386.2836442798798 5786.316823481703
1387.0936653993322 5762.100187776007
1387.9034886952395 5798.016542072981
1388.713114221864 5840.296244425122
1389.5225420334482 5906.754919272471
1390.331772184214 5794.250704416042
1391.1408047283585 5694.49459558581
1391.9496397200564 5859.387839507254
1392.758277213461 6011.93247187962
1393.5667172627054 5894.040797907958
1394.3749599218918 5745.157225855812
1395.1830052451114 5703.02342167638
1395.9908532864265 5740.766569157789
1396.7985040998774 5886.607293408595
1397.6059577394808 5682.082285915442
1398.4132142592352 5773.397736445345
1399.2202737131156 5657.613391503493
1400.027136155073 5874.991997168893
1400.8338016390353 5610.811887861018
1401.6402702189134 5732.794936903125
1402.446541948586 5730.780308050241
1403.2526168819204 5639.269866330756
1404.058495072757 5661.1727251543725
1404.8641765749107 5650.870633227012
1405.6696614421799 5792.646337678234
1406.4749497283356 6050.787599027469
1407.280041487129 5728.9138995505655
1408.084936772295 5479.943899944306
1408.8896356375335 5915.162343589919
1409.6941381365323 5769.03860570782
1410.498444322955 5673.02644361673
1411.3025542504402 5759.972016881532
1412.106467972606 5837.890780061144
1412.9101855430508 5885.906749728652
1413.7137070153458 5714.808521494453
1414.5170324430437 5880.108066311134
1415.320161879672 6039.043003544728
1416.1230953787435 6085.6489543908265
1416.925832993742 5836.351336992359
1417.7283747781275 5821.069153562294
1418.5307207853439 5955.385450058402
1419.3328710688093 6005.773911156759
1420.134825681922 5809.948490255468
1420.9365846780584 5985.318888698492
1421.7381481105713 6242.326386750507
1422.539516032788 6152.06265840753
1423.3406884980232 6035.2317294735285
1424.1416655595604 6091.978755116033
1424.942447270665 6124.414007702508
1425.7430336845828 6373.2846920091115
1426.5434248545298 6184.834330530363
1427.3436208337116 6420.080133969956
1428.143621675301 6485.051071028656
1428.9434274324558 6700.766075545185
1429.7430381583108 6409.484204116527
1430.5424539059713 6565.556183298712
1431.3416747285337 6888.366203173452
1432.1407006790632 6704.540177809712
1432.9395318106053 6667.853657104781
1433.7381681761835 6600.017049705263
1434.5366098288014 6768.873553699967
1435.3348568214424 6720.940696811444
1436.1329092070573 6580.528826720447
1436.9307670385879 6740.239182305207
1437.7284303689503 6787.469060467663
1438.5258992510335 6854.142920524813
1439.3231737377118 6688.438721338027
1440.1202538818306 6677.201506585659
1440.9171397362225 6615.027377845695
1441.7138313536925 6616.145339952951
1442.5103287870243 6567.233372341734
1443.3066320889775 6369.24834345647
1444.1027413122956 6681.553392061227
1444.8986565096966 6532.709327283284
1445.694377733882 6406.737585167364
1446.4899050375207 6259.548317876552
1447.2852384732687 6293.612275105423
1448.0803780937622 6332.0044312424225
1448.8753239516063 6164.399851898711
1449.6700760993954 6011.7953109941955
1450.464634589689 6207.048708098303
1451.2589994750397 6392.665217568601
1452.0531708079689 6006.509314082449
1452.8471486409799 5948.576597514312
1453.6409330265524 6116.245107729698
1454.4345240171442 5988.2573192227865
1455.2279216651987 5860.064073062508
1456.0211260231263 5828.9270377047615
1456.8141371433194 6117.438154227866
1457.6069550781594 5943.45930847548
1458.3995798799897 5660.285069281826
1459.1920116011424 5713.900187625827
1459.98425029393 5681.637670508363
1460.7762960106338 5619.0358902729595
1461.5681488035225 5642.3280031894055
1462.3598087248392 5662.607346395883
1463.1512758268036 5822.009523437569
1463.942550161617 5521.693963258149
1464.7336317814625 5423.901811691374
1465.524520738496 5389.593312612145
1466.3152170848552 5370.430741338132
1467.1057208726506 5281.092424768336
1467.8960321539817 5258.79612906745
1468.6861509809169 5154.952153725804
1469.4760774055085 5063.619405857742
1470.265811479785 5117.766244083514
1471.055353255755 4929.69569139596
1471.844702785409 4975.250851527305
1472.6338601207044 4880.070904950424
1473.4228253135934 5111.81134672243
1474.2115984159936 4923.097893832293
1475.0001794798063 4664.601096545173
1475.7885685569145 4935.179442885512
1476.576765699172 4828.10152685534
1477.3647709584238 4874.619137187734
1478.1525843864802 5041.321230030286
1478.9402060351367 4880.857320127006
1479.7276359561693 4874.461495088316
1480.514874201328 4675.364951894877
1481.3019208223468 4531.331765696447
1482.0887758709323 4419.530948601393
1482.8754393987747 4814.165491603094
1483.6619114575406 4504.265764182149
1484.4481920988783 4601.26133379466
1485.2342813744108 4638.702504856188
1486.0201793357446 4798.951698729919
1486.8058860344572 4497.7856081158725
1487.591401522117 4540.381292847931
1488.3767258502594 4562.946837166176
1489.1618590704056 4565.400148714993
1489.9468012340494 4340.861950440491
1490.7315523926754 4540.01396076994
1491.5161125977356 4672.71831912999
1492.3004819006637 4620.89984658072
1493.084660352877 4438.425600872815
1493.8686480057622 4564.488260759944
1494.6524449106964 4640.532445832587
1495.4360511190262 4746.472799203848
1496.219466682087 4612.449447910503
1497.0026916511779 4546.383549237862
1497.7857260775945 4497.578508113976
1498.5685700125996 4648.526594937128
1499.3512235074395 4272.887827574891
1500.133686613337 4401.169210090177
1500.9159593814966 4406.226677163118
1501.698041863101 4764.044416662548
1502.4799341093094 4385.018080102845
1503.2616361712662 4250.102357922353
1504.043148100087 4395.936955268281
1504.8244699468742 4403.315222234642
1505.6056017626997 4293.577166850817
1506.3865435986281 4298.984776527344
1507.1672955056893 4488.599896867105
1507.9478575348967 4300.044247117833
1508.7282297372512 4580.841605487743
1509.5084121637192 4367.633681857496
1510.2884048652577 4358.500432917939
1511.0682078927948 4444.726457806342
1511.8478212972423 4392.880475897926
1512.6272451294917 4438.808440842369
1513.4064794404076 4565.110656179915
1514.1855242808433 4502.753884283989
1514.9643797016215 4474.147599123714
1515.743045753552 4556.15440968045
1516.5215224874191 4512.367004985843
1517.2998099539836 4315.9581685677185
1518.077908203999 4371.2090756710395
1518.8558172881785 4454.889517121145
1519.633537257234 4539.601725046968
1520.4110681618404 4472.732595790871
1521.1884100526604 4532.374656227834
1521.9655629803365 4470.561260369899
1522.7425269954856 4729.192165610582
1523.5193021487103 4857.7743519608475
1524.2958884905856 4439.3582121870295
1525.0722860716687 4552.404241451599
1525.848494942502 4557.553449973116
1526.624515153595 4514.120735310802
1527.4003467554485 4549.842635720166
1528.175989798534 4720.237408079494
1528.9514443333064 4606.567824552099
1529.726710410203 4778.366312598683
1530.5017880796331 4535.10370488154
1531.276677391992 4497.95858888531
1532.0513783976457 4661.78488249793
1532.825891146953 4613.973431600186
1533.6002156902414 4628.389190132387
1534.3743520778207 4594.574222138405
1535.1483003599806 4582.382434684687
1535.9220605869923 4524.511601954963
1536.6956328091019 4614.1107707187275
1537.4690170765407 4512.049005330684
1538.242213439511 4547.748453213931
1539.015221948208 4522.279815003217
1539.78804265279 4423.601324998864
1540.560675603405 4354.586873482159
1541.3331208501804 4553.409039321371
1542.1053784432224 4618.447625715891
1542.8774484326168 4479.003793360835
1543.649330868422 4492.538974430569
1544.4210258006842 4418.083713847215
1545.1925332794308 4419.166959755073
1545.9638533546604 4396.142485252174
1546.7349860763552 4340.271655413965
1547.5059314944829 4730.119907557444
1548.27668965898 4445.832251542934
1549.0472606197673 4361.103515438472
1549.817644426752 4409.88719949158
1550.5878411298072 4425.42505826018
1551.3578507787988 4473.576405657046
1552.1276734235635 4264.4072336036925
1552.8973091139233 4425.805779261178
1553.6667578996767 4504.928378187074
1554.436019830604 4396.144831152048
1555.20509495646 4365.38006809465
1555.9739833269869 4289.486058477448
1556.7426849919011 4358.698579798635
1557.511200000903 4610.641422769984
1558.2795284036674 4557.293039954803
1559.0476702498509 4368.042807590438
1559.8156255890954 4526.122245042911
1560.5833944710157 4771.506412679089
1561.3509769452048 4524.045927821991
1562.1183730612447 4606.501939287385
1562.8855828686865 4524.094144316753
1563.6526064170703 4857.09633163658
1564.4194437559127 4736.537092731163
1565.1860949347047 4605.663122157208
1565.9525600029283 4892.965898730518
1566.7188390100328 5027.912096361808
1567.4849320054564 4508.652993759018
1568.250839038612 4675.643992093404
1569.0165601588997 4799.029036413898
1569.7820954156887 4799.080762301104
1570.5474448583373 4668.472204480917
1571.31260853618 4747.055096892904
1572.0775864985299 4572.903275357885
1572.8423787946813 4856.897559246199
1573.6069854739108 4754.375743808056
1574.371406585471 4838.392424364707
1575.1356421785986 4966.920848851661
1575.899692302506 4888.217144632966
1576.6635570063845 5007.798830606864
1577.4272363394157 4872.941116585785
1578.190730350747 4727.649680676791
1578.9540390895163 4817.112934050894
1579.7171626048384 4615.995133847204
1580.480100945806 4781.822415809096
1581.2428541614918 4804.105088913339
1582.0054223009538 4736.402745888643
1582.767805413223 4795.288238966817
1583.5300035473156 4781.852571271222
1584.292016752228 4963.498299139641
1585.0538450769309 4807.510165269274
1585.8154885703807 4533.407372108937
1586.5769472815136 4564.881723896507
1587.3382212592405 4769.50791640651
1588.099310552463 4819.05744854056
1588.8602152100484 4446.782878489487
1589.6209352808564 4574.448304447373
1590.3814708137234 4450.646154093209
1591.14182185746 4473.303102425779
1591.9019884608679 4341.334804602606
1592.6619706727215 4246.026315440411
1593.4217685417734 4550.460995847241
1594.1813821167616 4532.201900687394
1594.9408114464022 4174.821718524786
1595.7000565793933 4319.938640256631
1596.459117564409 4320.605938067661
1597.2179944501113 4183.1996041314105
1597.9766872851324 4062.2823049142557
1598.735196118092 4435.700348491289
1599.4935209975883 4293.349717057396
1600.2516619721973 4332.623006037358
1601.0096190904787 4122.73695154478
1601.7673924009723 4104.455139930612
1602.524981952196 4088.1132320191487
1603.2823877926476 4078.925380456812
1604.0396099708087 3966.3385425082743
1604.7966485351371 3906.6451919379642
1605.5535035340745 4079.9645109853313
1606.3101750160404 4215.331467353267
1607.0666630294363 3975.6831396248513
1607.822967622642 3827.794511917103
1608.5790888440224 4000.337812419383
1609.3350267419137 4149.492390239529
1610.0907813646445 4007.6145882415317
1610.8463527605145 4017.2524151424645
1611.601740977805 4155.886397795383
1612.356946064785 4107.007903275354
1613.1119680696902 3713.824594306706
1613.8668070407512 4005.14178335362
1614.6214630261748 3909.338803287693
1615.375936074137 4106.469139275672
1616.1302262328118 3944.8731009441885
1616.8843335503425 4054.0921528495187
1617.638258074854 3815.6241861421345
1618.391999854457 4055.5213672149816
1619.1455589372363 4096.178830951148
1619.8989353712623 4036.3240561844914
1620.65212920458 3765.8522255255266
1621.4051404852235 3946.0163015860535
1622.1579692611976 3956.1087981562423
1622.9106155804966 3838.168839983816
1623.663079491087 3936.7448123481545
1624.4153610409248 4084.314194459365
1625.1674602779385 3897.5226256474243
1625.9193772500403 3843.9999066114406
1626.6711120051277 4075.519256723243
1627.4226645910676 3864.787373825528
1628.174035055721 3735.9301362060005
1628.9252234469168 4030.9255895679626
1629.676229812474 3827.494785790045
1630.4270542001905 4206.0924937450745
1631.1776966578382 4044.0896803978403
1631.9281572331747 3971.8295692726233
1632.678435973945 4077.8671426824576
1633.4285329278573 3974.6899628961337
1634.1784481426203 3725.757030852726
1634.9281816659113 3895.500477396614
1635.677733545388 4128.200121566761
1636.4271038286934 3884.924729944631
1637.176292563452 3992.38662219447
1637.9252997972635 3939.5895280778723
1638.674125577716 4049.0720162640805
1639.4227699523672 4242.575622816251
1640.171232968767 3810.8967699961495
1640.9195146744423 3991.8066895892953
1641.6676151168977 4135.934660576784
1642.4155343436178 4079.379813634183
1643.1632724020765 3964.563822192749
1643.9108293397167 4000.613373926798
1644.658205203974 4041.0834611507976
1645.4054000422566 4421.037726379986
1646.1524139019566 3927.150112952956
1646.8992468304423 3893.5192055271996
1647.6458988750728 3946.0767398195726
1648.3923700831765 3969.065734196658
1649.1386605020743 3896.9664447006776
1649.8847701790564 4202.499911628641
1650.6306991614038 4032.936400292696
1651.3764474963682 4096.763193367742
1652.1220152311944 3699.6838551445107
1652.867402413096 4059.9465310808055
1653.6126090892776 3920.007965548416
1654.3576353069184 4159.852723478953
1655.1024811131829 3965.03151063841
1655.8471465552066 3866.7053732891427
1656.5916316801213 4208.673124846874
1657.3359365350298 4059.238843119764
1658.0800611670165 3919.5325808276925
1658.824005623148 3956.650223483517
1659.5677699504722 3850.545259290919
1660.3113541960192 4057.6450320693284
1661.054758406799 3900.9851237345624
1661.7979826297997 3773.3371232021964
1662.5410269119966 3852.1462424126357
1663.283891300338 4097.27473439764
1664.0265758417645 3846.7699922155684
1664.7690805831826 3993.138521567963
1665.5114055714948 3972.7052897315734
1666.2535508535748 4245.707910451744
1666.9955164762814 3655.242907402209
1667.7373024864555 3896.6392326320724
1668.478908930916 3917.4027917293984
1669.220335856462 3738.3550852683366
1669.9615833098778 3891.4565134389304
1670.7026513379296 3814.9817511070723
1671.44353998736 3936.9585963258987
1672.1842493048916 3771.5965493310346
1672.9247793372379 3804.345655230263
1673.6651301310812 3918.0794854222418
1674.4053017330934 3891.031021143184
1675.1452941899242 3929.223432006945
1675.885107548207 3408.998669232078
1676.6247418545518 3594.3956897958064
1677.3641971555535 3773.600816049544
1678.1034734977893 3817.318263849803
1678.8425709278108 3763.8943034432364
1679.5814894921605 3943.646564511946
1680.320229237359 3810.600723415395
1681.0587902098978 3875.781220973729
1681.7971724562685 3693.939467279354
1682.5353760229264 3765.4034859442736
1683.2734009563173 3867.2167834818297
1684.0112473028657 3612.065794117008
1684.7489151089794 3765.2412758154555
1685.4864044210462 3863.0969779107027
1686.2237152854377 3412.6173717237457
1686.960847748498 3855.7893838610385
1687.6978018565642 3651.163161907503
1688.434577655944 3684.7731518909254
1689.1711751929379 3632.990550242789
1689.9075945138156 3631.2654717593455
1690.6438356648396 3604.088619920631
1691.3798986922448 3353.4937226797565
1692.1157836422499 3666.432684405559
1692.851490561059 3603.743846354915
1693.587019494853 3597.5362490219486
1694.3223704897991 3421.8211320777687
1695.0575435920364 3351.497235321697
1695.792538847696 3794.2773745731
1696.527356302886 3458.588252246415
1697.2619960036936 3311.84647980333
1697.9964579961907 3418.033283592076
1698.730742326432 3124.916070857549
1699.4648490404488 3332.2815737145124
1700.1987781842563 3466.6960916232297
1700.9325298038548 3517.7907068680897
1701.6661039452174 3571.2138119207584
1702.3995006543082 3478.0647958139366
1703.1327199770658 3478.9202719704617
1703.865761959416 2927.387376905387
1704.598626647261 3603.220100943459
1705.3313140864866 3338.3005556343933
1706.0638243229587 3306.5549490480576
1706.7961574025303 3439.954688607325
1707.528313371029 3299.0610585231902
1708.260292274268 3131.9503677398275
1708.9920941580403 3284.385837590447
1709.7237190681226 3314.774350348397
1710.4551670502697 3326.4732809140596
1711.18643815022 2994.445537580871
1711.9175324136959 3470.2867998508723
1712.6484498863938 3260.2934843128673
1713.379190614005 3035.3831169988193
1714.109754642188 3082.070181461365
1714.8401420165883 3257.592837272221
1715.570352782839 3631.403468250617
1716.3003869865497 3217.1682232361395
1717.0302446733076 3159.036563499413
1717.7599258886876 3127.598575702442
1718.4894306782444 3434.8190093088633
1719.2187590875183 3033.7384632643216
1719.9479111620203 3364.470685551969
1720.6768869472544 3089.770447657268
1721.4056864887025 3403.1581731585125
1722.1343098318284 3300.435197294145
1722.8627570220742 3232.051080455325
1723.591028104871 3074.929801104625
1724.3191231256242 2957.267360859283
1725.0470421297232 3097.906766501464
1725.7747851625427 3306.2508673129532
1726.5023522694337 3244.3052290075607
1727.2297434957363 3157.9482644496547
1727.9569588867635 2823.3781207399124
1728.6839984878152 3182.2178158501074
1729.4108623441734 2771.2403775592484
1730.1375505011038 3169.3752776295596
1730.8640630038426 2974.6223995235337
1731.5903998976264 2934.9977736345527
1732.316561227657 3130.356205111741
1733.0425470391274 2870.944747225146
1733.7683573772065 3142.24587690327
1734.4939922870508 3044.9950178303366
1735.2194518137949 3103.3500156071877
1735.9447360025606 3136.540611662012
1736.669844898439 3006.4424202943474
1737.3947785465189 2882.714298763776
1738.1195369918605 2773.7745761203523
1738.8441202795093 2994.6085395578257
1739.5685284544943 3145.9434804923158
1740.292761561821 3112.0692082492724
1741.0168196464838 3122.421843579244
1741.7407027534518 3058.3890238890576
1742.464410927687 3036.469029515385
1743.187944214118 2969.338978452364
1743.9113026576688 2983.664819853767
1744.634486303241 2916.757427439511
1745.3574951957125 2957.610043700548
1746.0803293799509 3139.5817530234885
1746.8029889008048 3007.7243759838507
1747.5254738031017 3077.004026033677
1748.2477841316504 2885.553108475628
1748.969919931249 2868.3644678890655
1749.6918812466665 2777.6460290754576
1750.4136681226646 3177.6515075901298
1751.1352806039777 2954.576806399614
1751.856718735331 2645.0042827325387
1752.5779825614281 2820.324819667342
1753.2990721269507 2949.476151626741
1754.0199874765676 2971.519667167847
1754.7407286549314 2717.664222964765
1755.4612957066693 2901.579655146436
1756.1816886763954 2812.27307745571
1756.9019076087097 3014.816955401506
1757.6219525481865 2994.396641052136
1758.3418235393856 2889.8430660996137
1759.061520626854 2992.4407884025068
1759.7810438551096 3071.4364076254105
1760.5003932686614 2719.287488111911
1761.2195689119999 3053.820758630264
1761.938570829594 2969.0066613375593
1762.657399065898 2937.663763895102
1763.376053665348 2721.8843571273055
1764.0945346723602 2714.3506104119865
1764.812842131334 3023.2627022713095
1765.5309760866512 2677.0129307730294
1766.2489365826787 2840.195887699102
1766.9667236637597 2925.7259232006686
1767.684337374223 2622.276487248925
1768.401777758383 2717.4774323967636
1769.1190448605284 2684.0057658544843
1769.836138724937 2721.04646551543
1770.5530593958665 2970.7694042774906
1771.2698069175603 2955.8811865107605
1771.9863813342326 2897.983816605184
1772.702782690094 2772.185414490466
1773.4190110293293 3024.276554163021
1774.1350663961111 2889.1407465714083
1774.8509488345844 2778.246196062877
1775.5666583888924 2888.943845969237
1776.2821951031437 3038.0091943309553
1776.9975590214362 2862.575981906355
1777.7127501878585 2986.1948461995125
1778.4277686464684 2976.373382967468
1779.1426144413108 2969.1162929552397
1779.8572876164162 3023.794140434449
1780.571788215797 2589.0474291249952
1781.2861162834415 2842.2722339015045
1782.0002718633277 2793.6211009537747
1782.7142549994132 2866.4429316940696
1783.4280657356376 2853.872319091363
1784.141704115922 2762.048798552363
1784.855170184177 2825.6875387638597
1785.5684639842839 2883.5849941611723
1786.2815855601148 2526.6705871197814
1786.9945349555237 2824.60650839604
1787.707312214343 2697.9787046846586
1788.4199173803918 3087.546103449581
1789.132350497468 2604.484565188331
1789.8446116093583 2708.5688078973153
1790.556700759822 2717.154837262548
1791.2686179926077 2669.725343903392
1791.9803633514493 2782.715065602818
1792.6919368800554 2603.152986614472
1793.4033386221236 2961.9765028486117
1794.1145686213295 2909.5887688797598
1794.8256269213307 2956.034863569587
1795.536513565774 2900.98579726444
1796.247228598284 2440.7895110958425
1796.9577720624693 2707.601026038654
1797.6681440019165 2830.328354642205
1798.3783444602013 2785.4493477626693
1799.0883734808776 2946.1608330854
1799.7982311074884 2924.0956323897162
1800.5079173835475 2773.1741409166266
1801.2174323525633 2937.081737033913
1801.9267760580187 2682.3616181721145
1802.635948543386 2810.610558006639
1803.3449498521113 2657.7743358317857
1804.0537800276325 2848.9079112260483
1804.7624391133668 2791.879854967049
1805.47092715271 2572.4286453064074
1806.1792441890484 2678.5617039917015
1806.8873902657433 2788.2257154927497
1807.5953654261448 2693.8903507250043
1808.3031697135812 2658.4437061129074
1809.0108031713662 2676.1450548159996
1809.71826584279 2729.585141857817
1810.425557771141 2801.310827129237
1811.1326789996747 2944.6132207553483
1811.839629571632 2653.694223667169
1812.5464095302468 2708.380597610515
1813.2530189187182 2653.715450490362
1813.959457780249 2706.589320631101
1814.6657261580076 2851.3173508178775
1815.371824095153 2799.8894244074118
1816.0777516348262 2855.4413760152174
1816.78350882015 2385.250649715656
1817.4890956942272 2656.6401818011623
1818.1945123001533 2708.2870803000133
1818.8997586809928 2621.872106986252
1819.6048348798067 2617.478814159559
1820.3097409396287 2613.8699391407854
1821.0144769034796 3002.6941554196223
1821.7190428143622 2728.828250980197
1822.423438715261 2745.022752770935
1823.1276646491478 2684.655691539251
1823.8317206589727 2755.156711571862
1824.5356067876692 2724.767491397542
1825.2393230781581 2670.765590382828
1825.942869573335 2451.9498898099937
1826.646246316086 2484.4257959133765
1827.3494533492758 2729.693370929652
1828.052490715756 2727.8261667905026
1828.7553584583547 2750.4234501065703
1829.458056619891 2742.814808791418
1830.1605852431585 2641.011329374419
1830.8629443709433 2514.825980180286
1831.5651340460063 2653.2276248490557
1832.2671543110919 2610.6640366268475
1832.9690052089318 2791.7219950356616
1833.6706867822395 2503.1257256437134
1834.3721990737104 2814.0087461690805
1835.0735421260233 2734.3907839125545
1835.774715981841 2533.257989541375
1836.4757206838058 2893.89948343304
1837.1765562745459 2625.9171702156254
1837.8772227966747 2447.0686302177855
1838.5777202927839 2668.5487110624185
1839.2780488054523 2581.7429146566624
1839.9782083772352 2479.4882353605117
1840.6781990506806 2738.8823439278835
1841.378020868313 2573.488635191042
1842.0776738726418 2686.846077453408
1842.777158106157 2471.5415348489346
1843.4764736113375 2477.583005879764
1844.1756204306403 2654.728585319848
1844.8745986065078 2629.126620475784
1845.5734081813607 2484.622439159859
1846.2720491976124 2621.5113572924047
1846.970521697649 2515.2906853175637
1847.6688257238511 2696.664978283679
1848.3669613185684 2651.1593497256736
1849.0649285241452 2460.6960209498357
1849.7627273829057 2719.997741565632
1850.460357937156 2601.7686156206673
1851.1578202291857 2411.7581837398147
1851.8551143012664 2634.832960610969
1852.5522401956569 2718.024835217181
1853.2491979545957 2772.5104028861033
1853.9459876203055 2461.507988944866
1854.6426092349902 2441.068363761399
1855.3390628408451 2478.7008460482525
1856.0353484800362 2705.560946857766
1856.7314661947203 2507.2717577045055
1857.4274160270397 2436.63940415528
1858.123198019115 2596.8176779741443
1858.8188122130487 2409.347608398094
1859.5142586509319 2561.9442075232937
1860.209537374838 2527.5358680361387
1860.9046484268183 2520.803509765643
1861.599591848917 2758.8342295376224
1862.294367683151 2426.420579292121
1862.988975971528 2577.7190605976066
1863.6834167560355 2489.0835620445678
1864.3776900786452 2668.452844659985
1865.0717959813119 2471.6993734608095
1865.7657345059724 2455.171932512269
1866.4595056945564 2568.6853666183683
1867.1531095889586 2610.8581180985016
1867.846546231076 2335.9612732188752
1868.5398156627743 2697.4241221555517
1869.2329179259123 2462.5128765234153
1869.9258530623283 2769.5369657599795
1870.618621113843 2364.110070258009
1871.3112221222636 2436.2366683852497
1872.0036561293764 2322.203726933896
1872.695923176956 2530.5190424530238
1873.3880233067594 2698.6608048049247
1874.0799565605212 2420.76510602541
1874.7717229799673 2531.865930726273
1875.4633226068036 2692.560256404193
1876.1547554827175 2714.149854744825
1876.8460216493859 2296.013692150706
1877.5371211484617 2495.8567468017277
1878.2280540215852 2551.828424468067
1878.9188203103804 2216.5841358617217
1879.6094200564548 2493.8384164597614
1880.299853301396 2355.6767451364894
1880.9901200867826 2772.7014341575095
1881.6802204541673 2607.8423996749902
1882.3701544450942 2577.7612446588164
1883.059922101087 2343.966672070586
1883.7495234636517 2602.770474763618
1884.4389585742792 2361.4592065753104
1885.1282274744517 2421.8526429752897
1885.8173302056166 2906.7312718860258
1886.506266809225 2535.7198016690754
1887.195037326701 2354.4122143181294
1887.8836417994517 2430.21290151823
1888.5720802688702 2709.1397012549864
1889.260352776333 2559.943796836431
1889.9484593632042 2655.0434179428257
1890.63640007082 2403.5315604348675
1891.3241749405151 2281.70989653617
1892.0117840135954 2610.3366161120985
1892.6992273313572 2449.0072947818016
1893.3865049350788 2308.0725570630743
1894.0736168660223 2760.766789646769
1894.7605631654333 2495.4355871320695
1895.4473438745408 2278.253525872698
1896.133959034556 2696.427702310183
1896.820408686679 2419.281119685653
1897.506692872088 2650.9589778681798
1898.192811631945 2451.9191310950164
1898.8787650073991 2409.9644668904093
1899.5645530395832 2614.068146921312
1900.2501757696118 2538.890695733474
1900.9356332385796 2268.1317344168065
1901.620925487574 2806.674056929128
1902.3060525576602 2485.275549945322
1902.9910144898859 2552.1792838611964
1903.6758113252872 2340.24792382478
1904.3604431048789 2476.5601503812422
1905.0449098696663 2531.2245843277406
1905.7292116606295 2482.9507657450185
1906.4133485187394 2454.649083231458
1907.0973204849488 2183.9829488040054
1907.7811276001976 2163.4395085623373
1908.4647699053967 2389.2116207038075
1909.1482474414588 2535.5639965944874
1909.8315602492694 2270.8626056922794
1910.5147083696957 2500.7298787126965
1911.1976918436012 2468.8054967540183
1911.880510711815 2374.130921405403
1912.5631650151681 2561.004219960957
1913.2456547944657 2294.6756842768964
1913.927980090495 2330.4191338204446
1914.6101409440362 2390.209804315379
1915.2921373958416 2538.7671172322
1915.9739694866603 2425.1087690256873
1916.655637257214 2634.1096581884976
1917.3371407482136 2431.551508849589
1918.0184800003572 2669.5842192206783
1918.6996550543154 2500.034445362312
1919.3806659507554 2369.0972819716653
1920.0615127303208 2448.562451251448
1920.7421954336423 2607.8714846258886
1921.4227141013343 2550.748491266627
1922.103068773993 2518.624075330168
1922.783259492202 2617.6593168695626
1923.4632862965227 2425.5687162872646
1924.1431492275078 2275.275803411409
1924.8228483256917 2203.1913601817155
1925.5023836315922 2311.1157142012366
1926.1817551857057 2479.497048465122
1926.8609630285227 2648.2440937105575
1927.5400072005123 2609.362727990828
1928.218887742125 2192.5012094964004
1928.8976046938005 2251.7625074515704
1929.5761580959588 2521.327000143772
1930.2545479890086 2339.194082528292
1930.9327744133352 2196.2354513667606
1931.6108374093164 2361.6056735767024
1932.2887370173066 2610.2644960346743
1932.9664732776473 2085.1697596508757
1933.6440462306673 2372.654759425609
1934.3214559166754 2334.5969632149936
1934.9987023759659 2663.501096847573
1935.675785648813 2484.418451448554
1936.3527057754836 2039.475599238583
1937.029462796223 2125.6217587197134
1937.70605675126 2212.001576879792
1938.3824876808085 2258.199417634618
1939.058755625072 2315.024781668436
1939.7348606242267 2317.673450781866
1940.4108027184448 2354.706694727476
1941.0865819478713 2429.0897201988
1941.7621983526478 2385.958411839703
1942.4376519728921 2081.232825628007
1943.1129428487038 2379.8538853999803
1943.7880710201734 2418.952297398631
1944.4630365273733 2383.1136231120377
1945.1378394103576 2200.9048414219114
1945.8124797091714 2116.946010908513
1946.4869574638324 2032.7464550531126
1947.161272714353 2238.234003374044
1947.8354255007234 2454.672001642676
1948.5094158629272 2199.8000743157336
1949.1832438409183 2488.1225634045722
1949.8569094746435 2505.844148576503
1950.530412804037 2544.9110712907886
1951.2037538690092 2540.3907427087465
1951.8769327094578 2197.0056901802104
1952.5499493652678 2206.6547202313855
1953.222803876306 2378.6279360060516
1953.895496282421 2385.319051683708
1954.5680266234522 2301.321716478759
1955.2403949392155 2342.825558380725
1955.9126012695142 2155.145277226638
1956.5846456541403 2376.0666025333067
1957.2565281328643 2216.4939024895943
1957.9282487454457 2512.1039591247954
1958.5998075316202 2427.8698164956886
1959.27120453112 2365.1392415643136
1959.9424397836501 2320.0131864963096
1960.613513328908 2469.8882799643175
1961.2844252065697 2360.0468487577973
1961.9551754563017 2125.293735876789
1962.6257641177453 2305.64268036838
1963.29619123054 2113.558652642786
1963.966456834296 2182.7701189097565
1964.6365609686181 2119.107878151438
1965.306503673086 2418.692505245693
1965.976284987275 2156.9001478762907
1966.645904950734 2336.4285978917083
1967.315363603002 2031.778330173352
1967.9846609836077 2313.858033003698
1968.6537971320486 2089.672930286413
1969.3227720878222 2434.9793044106345
1969.9915858904042 2290.5498718914846
1970.660238579252 2507.7020667503243
1971.3287301938108 2250.7097160514404
1971.997060773514 2169.736081498588
1972.665230357772 2177.006227358871
1973.3332389859843 2119.1780834207884
1974.0010866975335 2121.9058127752896
1974.6687735317864 2231.872307205782
1975.3362995280932 2362.8778766762202
1976.003664725793 2372.779586415858
1976.6708691642052 2061.3476748792364
1977.3379128826364 2236.87921224747
1978.004795920373 2468.247219501368
1978.6715183166925 2572.271657996929
1979.3380801108524 1936.7817315955265
1980.0044813420973 2060.619882504153
1980.6707220496555 2019.0550588611818
1981.3368022727373 2280.217516710446
1982.0027220505417 2290.0756960168137
1982.66848142225 2006.98478797202
1983.3340804270283 2014.9191150671734
1983.999519104027 2311.6536406335763
1984.6647974923835 2194.5831965037296
1985.329915631215 2305.2685634254844
1985.99487355963 2247.185739206806
1986.6596713167146 2362.9989770540105
1987.3243089415428 2091.117907285088
1987.9887864731754 2384.276299548247
1988.6531039506553 2046.26466199147
1989.3172614130071 2573.1452036410965
1989.9812588992481 2242.8505847521415
1990.645096448372 1861.4306412301933
1991.3087740993633 2141.5738357725722
1991.9722918911848 2154.694720022931
1992.635649862792 2263.222685213458
1993.2988480531185 2318.184389225562
1993.9618865010852 2531.8915902404565
1994.6247652455968 2126.506405065074
1995.287484325545 2015.7566883769189
1995.9500437798033 2034.3650387275975
1996.6124436472292 2078.621095486076
1997.2746839666706 2359.1484054903985
1997.936764776954 2243.2956227695163
1998.598686116895 2051.3133250299734
1999.2604480252903 2569.7319976434756
1999.9220505409212 2463.804327301181
2000.5834937025593 2043.9229652507995
2001.2447775489582 2098.4979744395273
2001.9059021188514 2232.334528921856
2002.5668674509616 2056.906990850078
2003.2276735839987 2255.573191731901
2003.8883205566508 2350.1049919340994
2004.5488084075987 2181.2100530687862
2005.2091371755014 2083.4453015794584
2005.8693068990033 2058.062776007727
2006.5293176167397 2042.117194037557
2007.1891693673224 2026.3287962844054
2007.848862189354 1993.0557536526408
2008.5083961214223 2236.161525881932
2009.1677712020955 2044.2852978550163
2009.8269874699254 2053.019912552642
2010.4860449634598 2550.794857849619
2011.1449437212177 1960.2830088021105
2011.8036837817108 2418.757244901686
2012.4622651834325 2195.1102335007135
2013.1206879648653 2242.4168638985548
2013.7789521644736 2437.9641586679177
2014.4370578207036 1848.61866688729
2015.0950049719922 2030.4591062996922
2015.7527936567585 2362.5659108650884
2016.4104239134067 2061.820417698195
2017.067895780323 2465.6646013273194
2017.725209295886 2417.7492209941206
2018.3823644984514 2369.64155311435
2019.0393614263648 2267.717229508172
2019.6962001179545 2053.8085365875886
2020.3528806115355 2234.443680287899
2021.0094029454067 2219.3479475605154
2021.6657671578487 1998.1348277568952
2022.321973287133 2173.141605824294
2022.9780213715148 2204.1613985081417
2023.6339114492293 2068.0648105652235
2024.2896435585026 2126.125529902703
2024.9452177375442 2104.850988842673
2025.600634024544 2377.8669167855865
2026.2558924576842 2256.673474295053
2026.9109930751292 2284.355847248465
2027.565935915025 2083.516505862569
2028.2207210155066 2386.638211452524
2028.8753484146964 2353.711477233267
2029.529818150695 2305.334484701362
2030.1841302615903 2256.6521229701657
2030.8382847854573 1932.3557593531773
2031.4922817603601 2235.887580055704
2032.1461212243357 2184.003338243523
2032.7998032154192 1807.1320770520565
2033.4533277716218 2014.2800853247038
2034.1066949309443 2105.1462130870473
2034.7599047313688 1961.7619707707458
2035.4129572108704 2125.065843100554
2036.0658524074006 2183.9376757700397
2036.7185903589016 2185.608777064234
2037.3711711032956 2294.3800983622023
2038.023594678496 2219.1363593028636
2038.675861122394 2138.4471340333007
2039.3279704728757 2383.0744304480277
2039.9799227678031 2000.4352215325885
2040.6317180450278 2030.6686728932668
2041.2833563423865 2006.6276691907738
2041.9348376977014 2387.235870156911
2042.5861621487784 2233.21969056508
2043.2373297334088 2243.631913417059
2043.8883404893695 2202.5459580167044
2044.5391944544208 2230.4080990519515
2045.1898916663158 2325.1687513596726
2045.8404321627804 2182.6898649570044
2046.4908159815368 2044.279634841348
2047.1410431602853 1991.7784616042056
2047.7911137367173 1953.6524515492038
2048.441027748504 2204.710670200259
2049.090785233302 2006.0312490799747
2049.7403862287592 2020.397248822594
2050.389830772503 1971.9086728937527
2051.0391189021466 1923.4301058435572
2051.688250655294 2117.8027548013715
2052.337226069527 1975.1022982825502
2052.986045182417 2247.7012755988553
2053.634708031521 1870.9465316947167
2054.283214654375 2120.5145805629677
2054.931565088511 1756.788654704954
2055.579759371436 1872.3813624624265
2056.2277975406523 2155.353321063538
2056.8756796336384 2284.748438672681
2057.5234056878617 1826.645402280387
2058.1709757407752 2133.2129515566858
2058.8183898298194 2395.5528274301164
2059.465647992416 2275.981604251281
2060.1127502659747 2302.3572368176683
2060.759696687888 1822.1330063398332
2061.4064872955405 2208.7931267523336
2062.053122126292 2379.150874420652
2062.699601217497 1799.197472718537
2063.345924606485 2029.9031308027093
2063.992092330587 2216.628106023987
2064.638104427102 2012.0646391067535
2065.283960933324 2384.1220679793596
2065.92966188653 2169.3251863008745
2066.5752073239855 2237.293163335831
2067.2205972829397 2013.1893028577003
2067.86583180062 2002.7065049525925
2068.5109109142522 2125.35735808725
2069.15583466104 2075.6904168630726
2069.8006030781708 2025.9793675930646
2070.445216202821 2085.021419439837
2071.089674072153 2307.1013190621843
2071.7339767233116 2269.3754287154334
2072.3781241934303 2262.4378528947364
2073.0221165196253 2278.370412155047
2073.6659537390024 2011.167385036908
2074.3096358886505 2169.9795829421264
2074.953163005637 1992.9079027057592
2075.596535127028 1731.0091964728133
2076.2397522898664 1956.5032834863546
2076.882814531182 1940.5806360182753
2077.5257218879924 2086.2609227396097
2078.1684743973 1924.7085648574262
2078.8110720960885 1801.946901177686
2079.453515021336 2353.1202168266177
2080.095803209997 2169.461766516347
2080.7379366990135 2125.790422367175
2081.37991552532 2218.9018748043827
2082.0217397258275 2108.3770289367253
2082.6634093374414 1760.5684955217735
2083.3049243970418 2034.5888955021765
2083.9462849415067 2174.1909204776725
2084.587491007689 2045.3581429985074
2085.2285426324324 2041.179745730929
2085.869439852564 2016.3128055225686
2086.510182704902 1837.6532314980523
2087.1507712262483 1961.9525274495554
2087.791205453381 1864.00011559138
2088.4314854230743 2138.023104463486
2089.0716111720867 2075.952789883838
2089.7115827371617 2271.62139286375
2090.351400155023 1833.627444352732
2090.991063462385 1985.9681077547266
2091.6305726959527 1855.1403588533
2092.2699278924047 2106.5084106191434
2092.9091290884153 2021.223026933688
2093.548176320641 1804.9559534162327
2094.187069625721 2156.626810044737
2094.8258090402887 1750.3770282858927
2095.464394600951 2099.246044814036
2096.102826344313 2091.0009940770296
2096.741104306955 2195.5228629458366
2097.379228525453 1856.9250062144358
2098.017199036358 1674.1513721266006
2098.6550158762147 2193.4121184084584
2099.2926790815527 2074.280199520714
2099.9301886888825 2139.119184082315
2100.5675447347076 2053.897800626645
2101.2047472555114 2101.05541324794
2101.841796287761 1886.4429773742097
2102.47869186792 2052.156902990978
2103.1154340324265 1910.6874181445492
2103.752022817709 2000.7398973538661
2104.388458260184 2056.490603354447
2105.024740396251 2038.518891874047
2105.660869262292 1976.401909371165
2106.296844894685 2179.2730926928393
2106.93266732978 2068.245135991295
2107.5683366039284 1990.520778882245
2108.2038527534532 1956.9972749593157
2108.8392158146726 2252.2009867690276
2109.4744258238843 1948.684567162485
2110.1094828173755 1857.3448289670698
2110.744386831422 2222.3075507769495
2111.3791379022787 2097.382852321206
2112.01373606619 2266.8235380243905
2112.648181359389 2160.986585376182
2113.28247381809 2076.6235844764533
2113.916613478492 2075.6208061111106
2114.550600376786 2118.209483116407
2115.1844345491445 1782.8255139182195
2115.818116031729 1902.8102774847644
2116.451644860679 1998.5818241641234
2117.085021072133 1782.3479869798866
2117.718244702204 1755.9656412829597
2118.3513157869984 2004.2520984737653
2118.984234362604 1827.4839061053322
2119.617000465092 1873.0067115924292
2120.249614130529 1936.9238185156216
2120.8820753949585 2000.945158389845
2121.5143842944162 1967.030164708273
2122.14654086492 1955.2820492410744
2122.7785451424734 2180.829426840894
2123.4103971630702 1751.5134842386644
2124.042096962681 2035.657972978813
2124.6736445772767 2075.317163319744
2125.305040042802 1838.594108390375
2125.936283395191 1936.303779784316
2126.567374670365 2159.2208954565776
2127.198313904233 1916.4171867115006
2127.8291011326855 1845.9372037549897
2128.4597363916037 1775.0904015040553
2129.0902197168507 1825.1310845522542
2129.720551144279 1792.9641864463454
2130.3507307097225 2230.028624458238
2130.980758449008 2206.5415135730846
2131.6106343979427 1958.507678439451
2132.2403585923203 2098.013634055083
2132.8699310679276 2163.958686637551
2133.499351860526 2078.8547229294713
2134.1286210058715 1922.4695208091157
2134.7577385397053 2114.05313775805
2135.3867044977487 1912.655073516457
2136.0155189157176 2214.7788912744945
2136.644181829308 2178.737461585732
2137.2726932742025 1982.3818641363773
2137.901053286074 2189.6454338610138
2138.5292619005777 1777.2984815106622
2139.1573191533535 1793.933605099314
2139.7852250800315 2075.9479162292855
2140.4129797162295 2061.4997277321954
2141.0405830975433 1888.3323879299828
2141.6680352595613 1886.9766209057125
2142.2953362378576 1885.6397271237643
2142.9224860679915 1790.1966755705926
2143.549484785508 1912.0858486550108
2144.1763324259373 1959.516311621965
2144.803029024799 1767.5121684316891
2145.429574617594 1873.0860968135453
2146.0559692398165 1996.4834018325423
2146.682212926942 1802.369110023798
2147.308305714432 1962.4509596666244
2147.9342476377333 2132.7955669397406
2148.5600387322847 2270.2028747912964
2149.185679033506 2220.6440918430726
2149.8111685768017 1893.3928727808488
2150.4365073975678 1783.8911776855184
2151.061695531187 1899.0199603072876
2151.686733013021 2162.7257933597843
2152.311619878423 2056.2572331919855
2152.9363561627342 1868.9486495183658
2153.560941901278 1824.6997906416061
2154.1853771293663 1819.9650468013647
2154.809661882293 1898.436504282786
2155.433796195348 2202.8325715053497
2156.0577801037944 1904.585782919894
2156.681613642895 1931.1387174796025
2157.3052968478896 1705.5011068578847
2157.928829754006 2147.4556500162107
2158.552212396462 2150.8890292182523
2159.1754448104566 1987.065374847131
2159.7985270311783 1769.147754226809
2160.4214590938027 1502.1441571262183
2161.0442410334927 1458.1402024009612
2161.6668728853874 1572.3907894762165
2162.289354684628 1686.9126888474154
2162.911686466332 1799.7240664075612
2163.533868265602 2024.0772508590271
2164.1559001175337 2198.201761838788
2164.7777820572046 2006.7227973121771
2165.399514119681 1847.3230219667712
2166.021096340013 1688.9531383701615
2166.6425287532384 2094.667954271718
2167.263811394385 1708.6576735293033
2167.8849442984574 1743.4737457451677
2168.505927500455 1778.5384220704989
2169.126761035366 1985.5367440763905
2169.7474449381552 1916.1336917667086
2170.367979243778 1675.2404772384962
2170.9883639871823 2030.0806626766785
2171.608599203293 1728.411161661358
2172.2286849270276 2226.215888729953
2172.8486211932886 2381.8270008730833
2173.4684080369625 1994.8913760942269
2174.0880454929265 1790.2779020814328
2174.7075335960417 1707.9668462354189
2175.3268723811543 1725.9681974094433
2175.9460618831 1744.0399782109391
2176.565102136701 1994.2396932246902
2177.1839931767627 1932.4637743631727
2177.802735038078 1870.5523479725816
2178.421327755432 1863.718178125826
2179.0397713635866 1740.8614864270323
2179.658065897298 1865.8720389649002
2180.276211391305 1991.1036006140246
2180.8942078803357 1875.714691116491
2181.5120553991 1944.816418500272
2182.129753982299 1745.847708583074
2182.7473036646206 1847.1397917757472
2183.3647044807367 1898.9824545712793
2183.9819564653044 1593.1074453415574
2184.599059652968 2054.4400647561743
2185.216014078367 2117.6756235968837
2185.832819776113 2086.484720260585
2186.4494767808137 2055.100395434497
2187.065985127063 1805.5564153735413
2187.682344849436 1746.3547648113959
2188.298555982501 2145.223542448376
2188.9146185608097 1898.6419598832406
2189.530532618901 1977.5881783301295
2190.1462981912937 1969.6711437181511
2190.761915312507 1982.2110534174105
2191.377384017036 1842.3490349602446
2191.9927043393654 1854.9683584417562
2192.6078763139667 1522.5260887185345
2193.2228999753006 1675.6350792610222
2193.837775357808 1829.082816808795
2194.452502495922 1465.5815749289802
2195.0670814240602 1916.3732527527686
2195.6815121766285 1546.713556301318
2196.2957947880186 1569.545465653314
2196.9099292926057 1592.428928832432
2197.523915724758 1818.2541093927261
2198.137754118825 1774.7488328602733
2198.7514445091456 2125.4301189247876
2199.3649869300443 2215.4907551624156
2199.9783814158327 2305.8547834754136
2200.5916280008096 2120.549324076489
2201.2047267192593 2080.257911454156
2201.8176776054515 1794.4397477295672
2202.430480693649 1680.092300488882
2203.0431360180955 2095.178429160903
2203.6556436130195 2086.7989227892476
2204.268003512645 1513.8930372665177
2204.8802157511727 1825.9126269222822
2205.492280362796 1830.6466494932338
2206.1041973816937 1835.4391654504082
2206.715966842032 1744.1952067939758
2207.3275887779655 1830.9167875230628
2207.93906322363 1969.7147672903745
2208.550390213153 1911.5155797166803
2209.1615697806465 1938.8124231072384
2209.7726019602105 1795.2253009691071
2210.3834867859277 1795.058936683424
2210.9942242918787 1820.0629864023376
2211.6048145121167 1840.6779256884188
2212.2152574806914 2350.206620280417
2212.825553231638 1959.5793830244718
2213.435701798975 2532.0178958270294
2214.045703216707 1964.5576292799265
2214.655557518832 1451.8446687597288
2215.2652647393297 1543.8739977152925
2215.874824912169 1483.0343184805238
2216.4842380713 1895.366989197729
2217.09350425067 1583.321564197493
2217.7026234842033 2046.83117371179
2218.311595805819 2010.8992627081552
2218.9204212494133 1753.450902697678
2219.52909984888 1939.8575366183363
2220.137631638092 1993.4425434821733
2220.7460166509154 2047.0121107657155
2221.354254921198 1720.6198797648115
2221.9623464827764 1928.891553445855
2222.5702913694713 1909.1316244673174
2223.178089615096 1805.2256356280145
2223.7857412534486 1701.1266634562521
2224.39324631831 1457.8121810534049
2225.000604843457 1725.8646818085576
2225.607816862641 1946.693616133692
2226.214882409611 1974.2505693913724
2226.8218015180973 2097.105028316044
2227.4285742218217 1924.935946035701
2228.0352005544864 1911.6120768359692
2228.6416805497847 1540.5548460633547
2229.248014241399 1829.645757411994
2229.8542016629945 1724.8040396841084
2230.460242848223 1946.1775401712034
2231.0661378307304 1826.8644404623483
2231.671886644139 1707.46170628855
2232.277489322065 1569.058997879383
2232.8829458981127 1497.3749611830717
2233.48825640587 1787.8271691795053
2234.0934208789095 1933.1040402634876
2234.6984393507955 2078.6055076203393
2235.3033118550793 1899.3055465125726
2235.9080384252975 1893.4004004282074
2236.5126190949723 1595.5911721049288
2237.1170538976166 1880.2987733084512
2237.721342866729 1637.6492727180425
2238.32548603579 1671.1848453536873
2238.9294834382763 1772.1255471894237
2239.533335107646 1821.9025405545187
2240.1370410773434 1735.3190088873314
2240.740601380803 1547.2999242677135
2241.3440160514474 1904.069516627178
2241.9472851226783 1992.3657823856768
2242.550408627896 1790.9363318708827
2243.1533866004793 1967.7202655071578
2243.756219073799 1857.3871368338946
2244.3589060812064 1673.1148170398108
2244.961447656049 1506.2645741533552
2245.5638438316564 1583.030230114879
2246.166094641343 1659.9814726883797
2246.7682001184166 1600.8776229450496
2247.3701602961664 1780.3466905554935
2247.971975207871 1730.1745648054268
2248.5736448867974 2027.4287350835743
2249.175169366197 1758.7399712229576
2249.7765486793123 1807.8924611641542
2250.3777828593684 1912.1040026735086
2250.9788719395783 1852.4179918987
2251.579815953146 1975.9720206029942
2252.1806149332606 1653.4165262888716
2252.781268913097 1902.2959204965296
2253.381777925817 1637.4994004254527
2253.9821420045737 1853.7691198989876
2254.5823611825035 1991.0551093708448
2255.1824354927303 1930.9691379951232
2255.782364968365 1804.9540062072635
2256.38214964251 1678.820702928949
2256.9817895482483 1525.5607870451295
2257.5812847186553 1748.9273375473936
2258.180635186791 1637.6636338551452
2258.779840985704 1708.2197509339555
2259.37890214843 1637.4690953976822
2259.97781870799 1815.9230609963593
2260.5765906973957 1994.7110365215
2261.175218149645 1964.8051773723375
2261.773701097718 1813.981885196267
2262.3720395745895 1605.4055984065244
2262.970233613216 1493.251013037114
2263.568283246548 1763.926306243438
2264.1661885075137 1575.829452495076
2264.763949429038 1557.2354360925776
2265.3615660440246 2004.4148579484274
2265.959038385374 1556.366221488536
2266.5563664859637 2066.5277866397614
2267.153550378669 1754.8643495188794
2267.7505900963424 1900.9224675374157
2268.3474856718312 1715.2824389764996
2268.9442371379664 1738.3079209759903
2269.5408445275643 1897.319115594641
2270.1373078734377 1682.354952228788
2270.7336272083758 1632.140035915891
2271.32980256516 1656.8367667676998
2271.925833976562 1946.7268721526139
2272.5217214753357 1756.1282376730953
2273.117465094223 1565.1124145437227
2273.7130648659586 1708.0931019753461
2274.308520823257 1714.378757457769
2274.903832998827 1611.3003268354555
2275.4990014253563 1980.609758901261
2276.094026135528 1873.6814374353314
2276.6889071620117 1634.4078606807818
2277.2836445374614 1730.1478633388397
2277.878238294519 1646.4540601938054
2278.472688465812 1584.2317922777997
2279.066995083962 1521.8622546045228
2279.6611581815705 1625.3331049750545
2280.255177791232 1732.0915822747925
2280.8490539455233 2163.7245364111914
2281.442786677013 2185.782791040416
2282.0363760182554 1957.505867431494
2282.6298220017943 1582.5126691103615
2283.223124660155 1683.9756986363245
2283.816284025859 1785.7497008380906
2284.4093001314086 1933.1484049842802
2285.002173009292 1652.2286198694667
2285.5949026919952 1799.8529395624435
2286.1874892119777 1687.4495269663312
2286.7799326016993 1929.5401280288413
2287.3722328936 1595.234051083886
2287.964390120109 1478.8114330777585
2288.556404313642 1932.0793776806058
2289.1482755066027 1992.0294519075383
2289.7400037313873 1927.390198016486
2290.3315890203703 1651.0914366586906
2290.9230314059205 1599.4820470666
2291.5143309203904 1547.8387216136452
2292.1054875961236 1740.6658576386592
2292.6965014654506 2070.160813286787
2293.287372560684 1647.3150419736753
2293.878100914131 1577.6240147360488
2294.468686558086 1507.8349556933892
2295.059129524827 1741.7285329668678
2295.649429846617 1650.4830563045048
2296.239587555716 1558.9930417320775
2296.8296026843636 1790.3556334295768
2297.419475264791 1741.7645909601156
2298.0092053292137 1692.9749606850867
2298.598792909839 1966.3908579297708
2299.1882380388597 2021.5500318771642
2299.777540748455 2076.654599894058
2300.3667010707904 1768.5337222362523
2300.9557190380256 1886.6851115022314
2301.544594682302 2064.2858030537564
2302.1333280357503 1963.3957874524374
2302.721919130485 1862.4320998779936
2303.3103679986198 2152.9891257944137
2303.898674672242 1866.4866563507483
2304.486839183437 1637.7414644037503
2305.0748615642697 1819.817360066662
2305.6627418468015 1715.21799181399
2306.2504800630704 1667.0482308191636
2306.8380762451143 1795.094933402222
2307.425530424949 1883.7795143236162
2308.012842634582 1972.6529745981777
2308.6000129060103 2056.0326154692116
2309.187041271214 2266.3273181777
2309.773927762164 2117.6912774762814
2310.3606724108213 1968.7612894106726
2310.9472752491274 1592.8970792370535
2311.5337363090184 1947.4655798341487
2312.120055622414 1644.248636760735
2312.706233221221 1831.223858079382
2313.2922691373424 2006.3546467791093
2313.8781634026564 1639.7009822087457
2314.463916049037 1780.483982315581
2315.049527108342 1878.0003927616006
2315.6349966124235 2107.4254417745688
2316.2203245931123 1969.766712786263
2316.8055110822315 1514.8990384391946
2317.3905561115935 1718.148265738678
2317.9754597129977 1465.3604222743288
2318.560221918229 1468.6616681569033
2319.1448427590603 1472.0024234708528
2319.729322267256 1447.1941159552114
2320.313660474563 1854.4368899109127
2320.8978574127195 2131.3738558749296
2321.481913113452 1987.6320475973837
2322.0658276084705 1544.9336363394534
2322.6496009294806 1634.0008009613925
2323.233233108165 1895.6626798733846
2323.8167241762058 1801.151136398533
2324.4000741652617 1796.9023882643917
2324.983283106987 2046.1901783437818
2325.5663510330232 2046.975502482981
2326.1492779749933 1828.626542865923
2326.7320639645204 1784.8827181352488
2327.3147090332004 1639.6177768952243
2327.897213212629 1747.1579400277892
2328.4795765343843 1854.7131560786408
2329.0617990300307 1619.2252905270273
2329.643880731124 2010.9276880387672
2330.22582166921 1511.335779594632
2330.807621875816 1437.9485488563819
2331.3892813824623 1364.5662524648992
2331.9708002206517 1596.5588107440385
2332.5521784218818 1951.3794245704535
2333.133416017634 1851.3825356498514
2333.7145130393765 1626.9892335716906
2334.295469518571 1955.8555953034672
2334.876285486658 2038.1523140639274
2335.456960975076 1705.7486380574514
2336.037496015242 2023.9049679116633
2336.6178906385667 1807.1747144324086
2337.198144876451 1785.2989244028522
2337.778258760278 1634.7307959781197
2338.3582323214214 1743.1255155093281
2338.938065591243 1851.7284066123052
2339.517758601087 2070.680706376576
2340.0973113822965 1767.9254287213796
2340.676723966193 1830.1475801197957
2341.255996384094 1807.847557727545
2341.835128667295 1884.010364178268
2342.4141208470883 2060.6757361332675
2342.992972954751 1924.2216950740853
2343.5716850215467 1598.4946899211789
2344.1502570787306 1272.0697501854802
2344.7286891575386 1459.122377612196
2345.3069812892045 2011.514059894164
2345.885133504944 2063.5732609861248
2346.4631458359618 1727.2730727500214
2347.04101831345 1435.7017494219958
2347.6187509685915 1544.690372036896
2348.196343832553 1538.6465723662122
2348.7737969364935 1747.302556734164
2349.351110311558 1612.1614939595818
2349.9282839888765 1656.918145004552
2350.5053179995757 1546.1476489293946
2351.0822123747585 1526.311738131027
2351.658967145526 1559.081212967282
2352.2355823429643 1591.996926825633
2352.812057998144 1751.413233118059
2353.3883941421263 1705.6981903165731
2353.9645908059647 1883.2892856167268
2354.540648020693 1758.5525250463888
2355.116565817336 1875.0154285532722
2355.6923442269126 1991.7563189923908
2356.2679832804224 1789.0746057310232
2356.8434830088518 1667.2332135386107
2357.41884344318 1656.5666378655746
2357.994064614377 1847.7649119847586
