#exp_cfg={"servo_angle": 0.0, "laser_lim": 100.0, "servo_angle_to": 18.0, "laser_wup": 0.0, "bt_dev": "EnSpectr-25AE3", "laser_wdn_max": 0.0, "frames": 10.0, "servo_used": 0, "servo_calib_use": 0, "laser_wdn_min": 0.0, "servo_pix_from": 90.0, "cooler_tout": 300.0, "servo_angle_from": 0.0, "servo_calib": "[-1.9174921013161362e-09, 3.9322238269163779e-05, -0.27385609119055809, 653.59552119713567]", "laser_autoctl": 0, "servo_pix_to": 3682.0, "laser_pw": 100.0, "cooler_on": 0, "laser_volt": 4.0, "cooler_autoctl": 0, "cooler_curr": 70.0, "cooler_startup": 10.0, "laser_fixed_pw": 0, "gain": 1.3, "offset": 2.53059635486, "servo_calib_degree": 3.0, "laser_curr": 55.0, "shutter": 8200.0, "servo_calib_step": 1.0, "laser_fixed_curr": 0, "exp": 2000.0, "ccd_volt": 4.7, "bt_addr": "00:06:66:62:5A:E3", "servo_delay": 500.0, "laser_autooff": 1}
#proc_cfg={"flat_auto_wnd": 200.0, "flat_auto_fr": 200.0, "flat_auto_shift": 5.0, "yconv": 1, "flatten": 1, "flatten_strength": 100.0, "xfrom": 300.0, "auto_max_frame": 2000.0, "auto_signal": 48000.0, "flat_auto_tol": 0.1, "autoclip": 1, "xrel_range": 0.0, "flat_auto_to": 4000.0, "intensity_adj": 1.0, "xrel": 7852.0, "rmhot": 1, "flat_auto_slit": 4.999999999999997, "auto_ini_exp": 300.0, "auto_off": 0, "xto": 2860.0, "flat_auto_ref": "", "flat_auto_rank": 1, "autobackg": 0, "xrel_adj": 0.0, "auto_black_lvl": 1, "base_wnd": 100.0, "sub_baseline": 0, "xconv": 2, "auto_max_exp": 1000.0, "auto_total_exp": 10000.0, "auto_exp": 0, "rmripple": 0, "black_lvl": 8252.6, "shutter_clip_adj": 0.0, "auto_bckg": 0, "flat_auto_thr": 0.9, "subbackg": 1}
316.8218498245369 13517.960191334398
317.89969571804795 13376.633706046676
318.977263876126 13369.333827519411
320.05455438786703 13207.417360416886
321.1315673423287 13262.930657315499
322.2083028285215 13249.036328126205
323.2847609354267 13114.024692227744
324.3609417519747 13109.237909698611
325.43684536705587 13056.182738320256
326.5124718695279 13060.253373925068
327.58782134820103 13042.710317979641
328.66289389184385 13048.662418006334
329.7376895891921 12863.068964566299
330.8122085289342 12875.525044504811
331.88645079971866 12918.974404626988
332.9604164901575 12823.675080010795
334.03410568881554 12762.149642852017
335.1075184842266 12871.148080255345
336.18065496487543 12771.377511220326
337.2535152192122 12738.589094910496
338.32609933564163 12734.04192867073
339.39840740253203 12652.11532179267
340.4704395082099 12674.223973451855
341.5421957409617 12608.665862409249
342.6136761890357 12654.221447439584
343.6848809406365 12537.358887404976
344.75581008392874 12524.669612632879
345.82646370703696 12453.219570159607
346.8968418980512 12453.837509028039
347.96694474501055 12466.411614411865
349.0367723359268 12377.87249243133
350.106324758759 12400.500363374102
351.1756021014353 12323.8198833784
352.2446044518383 12299.019058733978
353.31333189781435 12347.538788890271
354.38178452716966 12229.642496692548
355.449962427665 12276.870728249396
356.51786568702846 12216.759276969056
357.58549439294256 12240.254997487298
358.6528486330535 12170.929177494192
359.71992849496564 12136.512742722778
360.7867340662433 12161.872205586349
361.8532654344144 12146.400878561657
362.9195226869597 12108.445537717602
363.9855059113288 12045.017390184144
365.05121519492604 12035.334193076804
366.11665062511565 12155.77238725692
367.1818122892273 11998.926790175741
368.2467002745434 12020.464329783183
369.31131466831175 11966.724291366054
370.375655557742 11925.583443928295
371.4397230299983 11937.910128739379
372.5035171722102 11881.341033218028
373.5670380714637 11880.823732011619
374.6302858148101 11913.973760380022
375.6932604892554 11847.085305788178
376.7559621817709 11944.914972882461
377.81839097928605 11800.743035884556
378.8805469686886 11825.278787698462
379.94243023683157 11812.002010649067
381.0040408705263 11767.539203415912
382.0653789565458 11694.074862910922
383.1264445816196 11754.659193804835
384.1872378324406 11728.90054678254
385.2477587956637 11726.422406277425
386.3080075579037 11591.581117001153
387.3679842057336 11527.900371857622
388.4276888256918 11596.805104072268
389.48712150426945 11600.62251989125
390.54628232792857 11537.68059201738
391.6051713830857 11515.64167150201
392.66378875611736 11504.145655471537
393.7221345333637 11502.14838117325
394.7802088011249 11432.235908912513
395.838011645661 11443.313879460595
396.89554315319765 11461.101540986781
397.9528034099112 11367.133647081431
399.00979250194723 11307.753359242064
400.06651051541485 11294.53830018347
401.1229575363741 11391.065182202157
402.17913365085224 11305.443986098519
403.23503894483656 11373.0904051009
404.2906735042761 11264.838212406888
405.3460374150818 11253.666153518307
406.401130763119 11287.673396950784
407.455953634224 11286.90400570989
408.5105061141876 11210.37873786158
409.56478828876243 11128.48451139286
410.6188002436629 11129.55840677144
411.6725420645689 11104.067156419242
412.72601383711117 11200.15247390698
413.77921564689314 11288.715143824433
414.8321475794728 11174.787134964532
415.88480972036814 11095.937150814409
416.93720215506437 11135.163952392722
417.9893249690049 11071.108392145885
419.04117824759123 11029.095869815888
420.09276207619223 10954.401833886686
421.144076540133 11055.18565311344
422.1951217247042 10976.63890586844
423.24589771515275 11042.537936263343
424.2964045966928 10927.560794624831
425.34664245449494 10949.492073035237
426.3966113736933 10879.15532156313
427.4463114393875 10884.130633196344
428.49574273662984 10919.843531427903
429.5449053504417 10765.532569161083
430.5937993658026 10884.784061915254
431.6424248676558 10799.246192058128
432.6907819409007 10839.018460077834
433.73887067040596 10825.975205178202
434.7866911409965 10782.533414870819
435.8342434374608 10820.038235167822
436.88152764455117 10794.420802297154
437.9285438469724 10785.37099275074
438.9752921294057 10698.518363475036
440.02177257648145 10750.014971694633
441.06798527279716 10707.293195642593
442.1139303029122 10793.473289146017
443.1596077513459 10909.074828120705
444.2050177025794 10736.941219568418
445.25016024105753 10663.829178667309
446.2950354511886 10770.207778570966
447.33964341733736 10754.428685463485
448.383984223834 10718.252178596416
449.4280579549686 10620.57909626389
450.471864694995 10713.801670574501
451.5154045281306 10718.758040492121
452.5586775385509 10629.967587592526
453.60168381039693 10653.44457744308
454.64442342776783 10770.46500046866
455.6868964747264 10670.92822618519
456.7291030353008 10699.919147784709
457.77104319347563 10780.535145417834
458.8127170332027 10659.26208641937
459.854124638392 10713.180816109065
460.895266092919 10830.822132322091
461.93614148061897 10915.575499833867
462.97675088529104 10830.871838167379
464.01709439069236 10903.565769363602
465.0571720805492 10867.629234517677
466.0969840385442 10868.747482626499
467.1365303483253 11100.63982256801
468.17581109350067 10956.664283108545
469.2148263576437 10942.813639979902
470.2535762242878 10971.314468397608
471.29206077693016 11082.693542961233
472.33028009902773 11030.83307514201
473.3682342740012 11083.330046763822
474.40592338523857 10951.467304442722
475.4433475160804 11029.593352298865
476.4805067498364 10970.647744893327
477.51740116978 10954.186270870046
478.5540308591426 10975.89465033381
479.59039590112116 11023.450642554413
480.6264963788726 10951.22817076377
481.6623323755193 11015.494741669847
482.6979039741436 10949.261967550638
483.7332112577915 11016.05596823143
484.76825430947247 11081.84644353035
485.80303321215797 10996.189656020233
486.837548048783 10964.296936803108
487.8717989022425 11067.778273248528
488.90578585539697 10944.783351712063
489.9395089910686 10933.136945696575
490.97296839203955 10937.843976662738
492.00616414106116 10797.256040252734
493.0390963208429 10857.560601545702
494.0717650140559 10893.737412290273
495.10417030333883 10794.261077964065
496.1363122712901 10799.184892290135
497.16819100046814 10672.519887795748
498.1998065734024 10633.33580856437
499.2311590725767 10634.103022165902
500.26224858044407 10539.086698018797
501.2930751794156 10540.287355273564
502.3236389518679 10513.619980490488
503.35393998014115 10452.075583604685
504.38397834653733 10450.189966942971
505.4137541333221 10490.814735458998
506.4432674227228 10333.627989237992
507.4725182969323 10340.703179958942
508.5015068381035 10428.314674598576
509.53023312835467 10343.588976541612
510.55869724976765 10418.805024945395
511.58689928438434 10328.69164865865
512.6148393142121 10274.174347057904
513.6425174212218 10293.04140139774
514.6699336873462 10315.314709514554
515.6970881944835 10349.669615069626
516.7239810244901 10286.066839471998
517.7506122591931 10166.604284974212
518.7769819803761 10207.347547002262
519.8030902697901 10231.279544146475
520.8289372091476 10266.911846978752
521.8545228801249 10274.32597584692
522.8798473643619 10190.718725505012
523.9049107434621 10189.382448667775
524.9297130989908 10260.235883540247
525.9542545124805 10191.120732925727
526.9785350654201 10168.121935392137
528.0025548392696 10223.861021222625
529.0263139154504 10182.816232804176
530.0498123753423 10197.645650477705
531.073050300296 10088.48484231665
532.0960277716204 10040.623022702837
533.1187448705896 10132.025528608223
534.1412016784416 10136.591973868331
535.1633982763833 10108.734849077979
536.1853347455726 10109.356207518162
537.2070111671401 10093.973311580887
538.2284276221817 10094.43149030148
539.2495841917516 10085.455787859759
540.2704809568677 9981.165915032418
541.2911179985167 10118.31268777691
542.3114953976419 10027.708429471015
543.3316132351592 9982.121594463493
544.3514715919409 9912.09120369854
545.3710705488247 9856.410378912584
546.3904101866156 9981.125415149805
547.4094905860784 9999.556746524906
548.4283118279418 9982.317648639875
549.4468739929034 10049.566250844344
550.4651771616191 10018.209276609461
551.4832214147063 9984.552444532836
552.501006832761 10013.055629718485
553.5185334963226 9966.70210725067
554.5358014859103 10032.870107748176
555.5528108820035 10076.67640164753
556.5695617650363 9978.803014378162
557.5860542154242 10062.334710390462
558.6022883135283 10018.894945961347
559.6182641396881 9993.25545351621
560.6339817741991 9960.973419167536
561.6494412973225 9992.184095276376
562.6646427892883 10067.731399456596
563.6795863302796 9884.041344797126
564.694272000459 9955.049749967677
565.7086998799423 10039.554625979343
566.7228700488104 9929.464313234686
567.7367825871115 9912.603478250334
568.7504375748576 9899.671771679114
569.7638350920224 9866.391403606061
570.7769752185486 9880.131418343593
571.7898580343353 9847.522819051686
572.802483619258 9691.946541465912
573.8148520531431 9858.666362334918
574.8269634157932 9807.900332654253
575.8388177869692 9784.753127150643
576.8504152463938 9796.326845360965
577.8617558737587 9767.106078645691
578.8728397487175 9708.107335680652
579.883666950891 9720.427850047361
580.8942375598654 9804.714364449479
581.9045516551851 9785.41932901308
582.9146093163617 9853.872763068804
583.924410622878 9748.595135470261
584.9339556541727 9695.857883380271
585.9432444896538 9794.638425082285
586.9522772086875 9825.398586318131
587.9610538906127 9783.127185797883
588.9695746147318 9764.538044632645
589.9778394603054 9779.124339370206
590.985848506567 9680.942538061736
591.9936018327098 9676.763006581998
593.0010995178891 9557.92812324688
594.0083416412344 9730.787125277902
595.0153282818283 9509.44546920844
596.0220595187293 9518.36777304303
597.0285354309508 9496.406479702526
598.0347560974806 9516.602956949608
599.0407215972609 9476.283529628725
600.0464320092051 9489.056208237169
601.0518874121954 9468.46881031393
602.0570878850685 9475.564996018044
603.062033506636 9486.358666250777
604.0667243556636 9417.999886784452
605.0711605108936 9368.75821667734
606.0753420510264 9620.092676426279
607.0792690547278 9426.568215438245
608.082941600629 9390.709023697258
609.0863597673306 9484.690962361328
610.0895236333909 9545.361750369804
611.0924332773357 9642.005922746695
612.0950887776617 9549.840261328542
613.0974902128219 9628.573287757925
614.0996376612384 9705.219259435253
615.1015312013005 9796.554998140959
616.1031709113595 9950.34039472618
617.1045568697336 9821.651324192087
618.1056891547069 9961.821115448669
619.1065678445229 10005.468877389747
620.1071930173985 10221.520045688178
621.1075647515099 10063.409912362375
622.1076831250048 10093.241404971137
623.1075482159849 10177.373112914047
624.1071601025305 10104.555869915728
625.1065188626781 10076.181989736891
626.105624574433 10166.128652193729
627.1044773157682 10116.189644367338
628.1030771646128 10108.731025137557
629.1014241988742 10149.719513303684
630.0995184964158 10145.44545541902
631.0973601350688 10111.9200304971
632.0949491926294 10168.652664299607
633.0922857468631 9993.262277792457
634.089369875499 10100.230883651486
635.0862016562278 10154.602310547463
636.0827811667077 9946.846584190684
637.0791084845641 10069.366645226584
638.0751836873878 9920.425844853155
639.0710068527369 10038.626491607487
640.0665780581294 9884.930250545029
641.0618973810506 9874.7263572996
642.0569648989604 9974.511826506994
643.0517806892676 9738.85982917721
644.0463448293649 9842.423238273845
645.040657396592 9741.502771256954
646.0347184682723 9685.832938618192
647.0285281216875 9634.594075388191
648.0220864340772 9617.427619939866
649.0153934826558 9549.321082783576
650.0084493446047 9537.088831387537
651.0012540970674 9511.093346439706
651.9938078171526 9432.325538781475
652.9861105819346 9480.493025616901
653.9781624684565 9531.071294383224
654.9699635537254 9389.757504998093
655.9615139147136 9395.864117137358
656.9528136283589 9293.889639986828
657.9438627715699 9416.80466208196
658.9346614212154 9319.262647623485
659.925209654135 9145.098001525135
660.9155075471263 9216.09843762113
661.9055551769616 9218.913556566595
662.895352620375 9277.25514172231
663.8848999540678 9195.881467511614
664.8741972547068 9096.924606397943
665.863244598926 9157.742073439527
666.8520420633213 9147.395088359784
667.8405897244611 9039.466768413515
668.8288876588758 8923.507988138012
669.8169359430613 9038.315130844328
670.8047346534822 9045.053809306375
671.7922838665672 8907.473397697719
672.7795836587156 8998.407884343107
673.766634106285 9106.78939222548
674.7534352856092 8953.77542890578
675.7399872729766 8949.320793617439
676.7262901446538 9009.195018817401
677.712343976862 8891.961748209029
678.6981488457986 9005.499410008098
679.6837048276229 8888.42062829227
680.6690119984596 8946.8171219354
681.6540704344043 8968.21558462806
682.6388802115107 8811.93601216778
683.6234414058108 8908.485452752173
684.6077540932874 8776.25915865903
685.591818349907 8858.496043322953
686.575634251587 8870.367816446033
687.5592018742263 8803.220573262937
688.5425212936734 8701.81321921343
689.5255925857564 8934.35731269311
690.5084158262707 8790.436842771427
691.4909910909646 8820.771370517485
692.4733184555644 8770.027985985598
693.4553979957618 8893.257898971624
694.4372297872123 8906.374124224905
695.4188139055404 8834.60356450755
696.4001504263324 8750.01445294521
697.3812394251509 8947.64940601673
698.3620809775111 8995.03453728939
699.3426751589104 8909.113494223184
700.3230220448004 8886.249183104732
701.3031217106054 8966.835347219776
702.2829742317172 9119.181957530101
703.2625796834873 8920.509013495126
704.2419381412474 8912.660873182691
705.22104968028 9039.521222056897
706.1999143758458 9074.615585913394
707.178532303169 9073.124371415135
708.1569035374378 9161.638241560207
709.1350281538107 9268.381421851958
710.1129062274158 9333.942316325314
711.0905378333373 9550.758158657085
712.0679230466376 9587.426855809688
713.0450619423427 9881.680402260386
714.0219545954424 10181.911071730387
714.9986010808989 10174.412252354316
715.9750014736292 10535.081868599156
716.9511558485392 10897.56926346147
717.9270642804786 11073.865809594525
718.9027268442787 11288.516517555316
719.8781436147328 11345.708328627667
720.8533146666014 11355.10316405274
721.828240074612 11417.718226105888
722.8029199134635 11239.950497510374
723.7773542578125 11117.016140173586
724.751543182294 10952.71735359935
725.7254867615029 10755.366403455617
726.6991850700015 10467.679664320702
727.6726381823228 10446.215271821628
728.6458461729599 10395.286954848489
729.6188091163858 10232.034762779502
730.5915270870246 10324.427344038562
731.5640001592856 10305.879402819704
732.536228407529 10413.14235960477
733.5082119060917 10423.122117877592
734.4799507292755 10439.963627986705
735.4514449513481 10451.183805773455
736.4226946465496 10574.132082310955
737.3936998890786 10520.748385399353
738.3644607531078 10382.08322616837
739.3349773127793 10280.632736841793
740.3052496421951 10178.128745835624
741.27527781543 9973.238260448688
742.2450619065221 9762.069287810886
743.2146019894826 9622.441279709888
744.183898138288 9423.509305342857
745.1529504268801 9320.955513429211
746.1217589291682 9003.489925355152
747.0903237190341 8936.904911804673
748.058644870318 8827.524902089015
749.0267224568397 8702.09472935589
749.994556552374 8564.266620667217
750.9621472306771 8552.168482066905
751.9294945654583 8475.018689477496
752.8965986304011 8434.620567325339
753.8634594991636 8279.456231482256
754.8300772453586 8320.080852633831
755.7964519425768 8284.82390460321
756.762583664371 8297.04929160277
757.7284724842611 8257.221998308505
758.6941184757416 8177.051333658388
759.6595217122667 8223.119901418548
760.6246822672638 8174.981495131115
761.5896002141235 8014.631096343286
762.5542756262093 8070.625485857362
763.5187085768503 8040.531635740297
764.4828991393406 7996.822776110006
765.4468473869474 8105.381818646218
766.4105533929032 8052.724169527704
767.3740172304078 8027.19324423715
768.3372389726283 8059.5451639711155
769.3002186926988 7912.464750493285
770.2629564637282 7964.635872375904
771.2254523587872 7869.91038626943
772.1877064509154 7915.72770168
773.1497188131179 7813.52788616283
774.1114895183728 7858.315620165177
775.0730186396268 7842.233386992777
776.0343062497905 7841.713694945965
776.9953524217381 7819.922670929409
777.9561572283274 7832.425857125943
778.9167207423689 7793.091445504246
779.8770430366476 7736.62589869301
780.8371241839159 7766.373345491898
781.7969642568951 7766.9096678709875
782.7565633282757 7893.221669280331
783.7159214707099 7824.72269379488
784.6750387568281 7839.827450143665
785.6339152592227 7745.414094045908
786.5925510504512 7698.996348089728
787.5509462030477 7722.623947711782
788.5091007895098 7702.118966804238
789.4670148823006 7679.233894850504
790.4246885538596 7706.179950368722
791.3821218765861 7725.912574811475
792.3393149228505 7602.554620479464
793.2962677649975 7694.648370492207
794.2529804753303 7719.513207962153
795.20945312613 7663.569436801465
796.1656857896378 7631.060717938931
797.1216785380675 7545.492320534802
798.0774314435985 7656.204183043391
799.0329445783846 7741.110420667554
799.9882180145414 7602.488601713603
800.9432518241574 7554.37196442244
801.89804607929 7668.363258101769
802.852600851962 7671.8473065561675
803.8069162141637 7664.5279050086
804.760992237856 7634.663364447895
805.714828994971 7724.004408889397
806.6684265574077 7718.606748374123
807.6217849970271 7614.801742868338
808.574904385674 7592.663753990547
809.527784795142 7665.367017798674
810.4804262972102 7688.890764946144
811.4328289636178 7560.744817853699
812.3849928660748 7521.725169210222
813.3369180762638 7485.33681997892
814.2886046658241 7569.941944606219
815.2400527063783 7463.484076986919
816.1912622695108 7528.329486750951
817.1422334267718 7527.22031211341
818.0929662496856 7457.790954774231
819.0434608097457 7400.500290020141
819.9937171784059 7458.417320950242
820.9437354271013 7386.691159947388
821.8935156272255 7420.316578427293
822.8430578501484 7330.010197075727
823.7923621672016 7224.781121841721
824.7414286496896 7294.496439261525
825.6902573688876 7343.927937732216
826.6388483960363 7312.091589214506
827.5872018023492 7231.974936565132
828.5353176590033 7319.853600282474
829.4831960371503 7265.47820748445
830.4308370079016 7277.2562187517415
831.3782406423525 7255.999009383634
832.3254070115545 7253.715141429678
833.2723361865319 7229.266599833441
834.2190282382799 7062.314486901548
835.1654832377644 7210.772346515655
836.1117012559116 7202.82958615117
837.0576823636256 7276.048611713688
838.003426631778 7059.355935531244
838.9489341312074 7079.9630936307385
839.8942049327197 7173.53915737934
840.8392391070975 7243.322715138417
841.7840367250865 7122.287628632602
842.7285978573982 7051.443593570046
843.672922574724 7133.1175948079745
844.6170109477152 7119.7921215532
845.560863046996 7084.509461733904
846.5044789431595 7125.971307718908
847.4478587067697 7092.6146427116455
848.3910024083561 7169.339527688348
849.333910118421 7107.759693880949
850.2765819074339 7085.173538973671
851.2190178458332 7164.515356180612
852.161218004032 7123.727606985869
853.1031824524016 7105.55605544512
854.0449112612987 7101.38113181993
854.9864045010327 7157.857934569613
855.9276622418947 6990.595288179882
856.8686845541379 7099.276497109978
857.8094715079915 7108.999128205377
858.7500231736467 7182.326708743271
859.690339621271 7132.209482904803
860.6304209209939 7052.230095810633
861.5702671429244 6971.4954774156095
862.5098783571284 7070.58900851694
863.4492546336569 7089.3390926332895
864.3883960425155 7047.647638002674
865.3273026536863 6969.960910965417
866.2659745371238 6968.660722908673
867.2044117627465 7163.914252112544
868.1426144004472 6959.916664487372
869.0805825200823 7013.564201629633
870.0183161914847 7023.44318479389
870.9558154844526 7105.631493901716
871.8930804687552 7049.147912786134
872.8301112141307 6958.801619317327
873.7669077902865 7030.310550523291
874.7034702669062 7120.18129666343
875.6397987136315 7058.441157446538
876.5758932000863 7011.035212380468
877.5117537958522 7123.708120570596
878.4473805704911 7019.0285519690515
879.3827735935283 6997.580000831236
880.3179329344603 7093.994758925325
881.2528586627541 7156.979439058703
882.1875508478479 7097.512095711514
883.1220095591489 7061.644648872534
884.0562348660296 7041.000761375105
884.9902268378391 7081.137664191808
885.9239855438955 7052.915024791901
886.8575110534839 6980.10265392407
887.7908034358588 7091.263306481151
888.7238627602474 7006.768773129802
889.6566890958475 7125.843105386011
890.5892825118208 6965.2028266780235
891.5216430773125 6973.988536605057
892.4537708614189 6996.2398169562775
893.3856659332196 6967.84480063309
894.3173283617652 6940.74942154389
895.2487582160684 6958.20732092338
896.179955565116 6895.335216761925
897.110920477864 6828.116738384242
898.0416530232451 6903.477487486202
898.9721532701478 6873.190577093878
899.9024212874428 7006.145614565061
900.8324571439662 6881.574920315004
901.7622609085302 6864.131551814156
902.6918326499072 6848.940754136066
903.6211724368477 6864.618091260423
904.5502803380696 6991.7824152759185
905.4791564222614 6977.79092414779
906.4078007580792 6865.206203353793
907.3362134141571 6900.40624594662
908.2643944590909 6945.279335174351
909.1923439614493 6856.869796940156
910.1200619897754 6901.84663002608
911.0475486125779 7019.90126296299
911.9748038983344 6996.549922359552
912.9018279155007 6871.708592990704
913.8286207324982 6789.998381040476
914.7551824177117 6871.700621574644
915.6815130395116 6859.70976024496
916.6076126662283 6780.4792612685
917.533481366163 6830.171455458115
918.4591192075914 6775.617491437309
919.3845262587565 6898.134928796167
920.3097025878706 6769.038115167027
921.2346482631237 6736.119515057323
922.1593633526682 6790.682180645621
923.0838479246304 6859.8697399164475
924.0081020471061 6833.912208654814
924.9321257881656 6714.257151033877
925.8559192158464 6773.244512039916
926.7794823981512 6675.251649117032
927.7028154030686 6625.129709796973
928.6259182985414 6613.715963442121
929.5487911524906 6804.543227812498
930.4714340328119 6722.017025050019
931.3938470073608 6594.750461314383
932.3160301439748 6668.414972350666
933.2379835104548 6704.253627422215
934.1597071745709 6798.891732695905
935.0812012040769 6659.917345507946
936.002465666681 6741.5184529303615
936.9235006300696 6689.988534140105
937.8443061619055 6740.942442431764
938.7648823298077 6590.882037161337
939.6852292013809 6588.764038395316
940.6053468441951 6686.180884389457
941.5252353257874 6637.364306031438
942.4448947136698 6656.088813336236
943.364325075323 6571.15628493712
944.2835264782043 6690.293105277064
945.2024989897309 6652.150520605287
946.1212426773054 6653.722291112613
947.0397576082851 6730.888974025178
947.9580438500125 6804.463174254044
948.8761014697939 6781.548098539963
949.7939305349064 6807.714981395204
950.7115311125999 6667.237961155328
951.6289032700952 6700.706074388497
952.5460470745875 6836.004617529463
953.4629625932339 6775.098558530536
954.3796498931715 6784.294780941728
955.2961090415029 6821.058988018382
956.2123401053068 6821.9938637160985
957.1283431516276 6713.504959091607
958.0441182474842 6662.6275267084
958.9596654598663 6863.6439342538215
959.8749848557309 6776.429695624391
960.7900765020167 6672.641230972675
961.7049404656209 6708.767304644755
962.6195768134185 6720.3846752582
963.5339856122537 6732.746102524822
964.4481669289453 6818.677242720497
965.3621208302793 6661.790881127027
966.2758473830145 6656.698707416894
967.1893466538822 6756.749490979126
968.1026187095813 6687.417373312237
969.0156636167867 6572.592573854626
969.9284814421426 6683.057198373496
970.8410722522622 6601.2404775370715
971.753436113735 6564.554803980813
972.6655730931161 6539.0032320550135
973.5774832569368 6591.264740023411
974.4891666716958 6572.755410030741
975.4006234038698 6479.492891766795
976.3118535198955 6491.446054543597
977.2228570861935 6646.288996843257
978.1336341691494 6619.2414274693365
979.0441848351202 6418.675796574529
979.9545091504333 6568.975550328939
980.864607181391 6531.732124326365
981.7744789942699 6527.833385080665
982.6841246553086 6572.14144562788
983.5935442307236 6518.728563733276
984.5027377867027 6550.1220880386745
985.4117053894024 6544.9401735590745
986.3204471049557 6427.992315858023
987.2289629994648 6535.740450169538
988.1372531390007 6526.8512880630105
989.0453175896091 6509.592529628378
989.9531564173067 6538.477024259779
990.860769688079 6452.50774432536
991.7681574678918 6453.06167264384
992.6753198226706 6505.572597218401
993.582256818323 6455.314505172768
994.4889685207218 6439.158343445001
995.3954549957143 6520.143363701385
996.301716309119 6522.537284311764
997.2077525267232 6461.0790436875905
998.1135637142943 6486.150694492152
999.0191499375615 6548.368632774982
999.924511262232 6510.592915386988
1000.8296477539861 6495.333961112341
1001.7345594784656 6515.969165403783
1002.6392465012996 6502.7399188876325
1003.5437088880753 6514.7938247469665
1004.4479467043584 6538.9532936894075
1005.3519600156869 6352.940507669238
1006.2557488875718 6525.413869199483
1007.1593133854858 6420.542155987065
1008.0626535748888 6392.530288077734
1008.9657695212009 6361.422430821759
1009.8686612898182 6528.730767706836
1010.7713289461135 6524.539317619313
1011.6737725554212 6410.921419476277
1012.5759921830577 6455.138972830538
1013.4779878943027 6430.441549842231
1014.379759754418 6505.1839003802315
1015.2813078286254 6413.10053063571
1016.18263218213 6338.323777754649
1017.0837328801026 6338.752922596659
1017.9846099876886 6458.657080381207
1018.8852635700023 6352.611128286721
1019.7856936921362 6314.9850802324745
1020.6859004191447 6426.634449837671
1021.5858838160675 6369.098004246061
1022.4856439479063 6289.54836432894
1023.3851808796389 6283.535425843465
1024.2844946762143 6369.840807603255
1025.183585402554 6418.776899616048
1026.082453123554 6183.512764163254
1026.9810979040776 6367.940415944537
1027.8795198089647 6202.03176140916
1028.777718903024 6328.304861177156
1029.6756952510368 6263.960120412475
1030.5734489177648 6163.934226909322
1031.4709799679313 6251.239094012288
1032.3682884662358 6449.115068865939
1033.2653744773506 6147.983611503411
1034.1622380659192 6190.547625731648
1035.058879296559 6356.523569761875
1035.9552982338591 6299.666158989578
1036.8514949423825 6201.793769252492
1037.7474694866614 6327.049009510226
1038.6432219312028 6268.382320233312
1039.5387523404825 6490.008123217291
1040.4340607789582 6311.681513113679
1041.3291473110476 6400.071750260187
1042.2240120011465 6468.775683524242
1043.1186549136273 6532.12824031149
1044.0130761128294 6423.649345336229
1044.9072756630649 6467.6450148807835
1045.8012536286205 6553.468295117113
1046.6950100737577 6543.6924506287605
1047.588545062701 6657.979038971702
1048.481858659663 6618.95618766579
1049.3749509288118 6654.465631568241
1050.2678219343034 6573.6719647002055
1051.1604717402515 6540.914367595386
1052.0529004107575 6531.754888814417
1052.9451080098825 6592.668664330318
1053.8370946016694 6494.17068485929
1054.7288602501267 6562.575555648214
1055.6204050192446 6515.121365712576
1056.511728972977 6493.167464258875
1057.402832175254 6418.879626060666
1058.2937146899785 6407.396157973787
1059.1843765810263 6316.490659827855
1060.0748179122456 6425.137741807283
1060.9650387474576 6364.167621560767
1061.855039150456 6371.024987304487
1062.7448191850071 6302.415714496387
1063.6343789148505 6414.668516577291
1064.5237184037014 6387.565512346822
1065.412837715241 6291.277190797194
1066.3017369131267 6234.043774904791
1067.190416060992 6188.777108816413
1068.0788752224398 6206.27747431708
1068.9671144610438 6275.06316177838
1069.8551338403558 6201.111123018958
1070.7429334239023 6294.705138052895
1071.6305132751695 6139.9451000935105
1072.517873457633 6237.217512661831
1073.4050140347335 6218.072949325434
1074.2919350698776 6255.159274259195
1075.1786366264623 6256.033901584894
1076.0651187678395 6288.60010678482
1076.95138155735 6196.937658186228
1077.8374250582929 6242.263514760805
1078.7232493339507 6341.510698939138
1079.608854447577 6235.427800543594
1080.4942404623907 6189.448525737456
1081.3794074415982 6375.710534549311
1082.2643554483657 6430.93828540365
1083.149084545841 6356.009788876744
1084.033594797138 6354.18884843165
1084.9178862653516 6361.817699848914
1085.8019590135427 6590.993362449776
1086.6858131047484 6352.724629248969
1087.5694486019802 6536.219743953457
1088.4528655682225 6492.710761133865
1089.3360640664287 6641.371021219484
1090.2190441595321 6622.37306609615
1091.1018059104317 6625.65035418275
1091.98434938201 6693.391666653966
1092.866674637111 6750.607270384775
1093.748781738559 6687.432574298747
1094.6306707491512 6530.160706419609
1095.5123417316554 6748.885531971277
1096.3937947488157 6649.330421277938
1097.2750298633455 6593.146878282752
1098.156047137938 6615.664654551413
1099.0368466352556 6588.0169878347315
1099.9174284179317 6726.392608331764
1100.7977925485757 6503.468272017458
1101.6779390897755 6487.156523441001
1102.5578681040806 6501.8649695855875
1103.4375796540226 6471.5508162449605
1104.3170738021054 6378.078569220398
1105.1963506108077 6276.710116452299
1106.0754101425773 6271.722952247814
1106.9542524598382 6295.063228929255
1107.8328776249855 6220.301200223977
1108.7112857003904 6207.491778904083
1109.5894767483987 6128.85002001847
1110.4674508313292 6213.185893167417
1111.3452080114657 6159.4409204515705
1112.2227483510815 6178.207363088981
1113.1000719124077 6203.659641986122
1113.9771787576592 6100.597390316301
1114.854068949022 6136.89259728618
1115.7307425486542 6134.960658047064
1116.6071996186893 6191.857470101253
1117.483440221229 6113.0181897761695
1118.3594644183577 6088.819566876242
1119.235272272128 6080.4220363360855
1120.1108638445658 6171.388655983219
1120.9862391976712 6297.28256918466
1121.8613983934229 6251.188865095473
1122.7363414937627 6170.595452821783
1123.6110685606182 6147.425514004825
1124.485579655884 6247.394361307876
1125.359874841426 6263.641448895482
1126.2339541790916 6191.67716107077
1127.1078177306936 6309.683689439078
1127.9814655580267 6233.639051842165
1128.854897722851 6211.935618763733
1129.7281142869106 6216.323565646166
1130.6011153119125 6276.226700342171
1131.473900859548 6404.224386887027
1132.3464709914697 6238.110233169597
1133.2188257693178 6171.383181632119
1134.0909652546961 6095.406859976205
1134.96288950919 6083.263430580895
1135.8345985943506 6196.711025423927
1136.7060925717087 6043.089434461563
1137.57737150277 6167.490002154724
1138.4484354490069 6158.918988986685
1139.3192844718778 6049.435578792369
1140.1899186327992 5919.962760148495
1141.060337993178 6060.806843281779
1141.930542614382 6038.006750778339
1142.8005325577597 5974.4516101379195
1143.670307884635 5910.589239334695
1144.5398686563003 5987.93309085373
1145.409214934025 5981.095020492088
1146.2783467790541 5855.236756265932
1147.1472642526023 5902.4826465089245
1148.0159674158622 6025.908643452529
1148.8844563300026 5827.832549488515
1149.7527310561618 5883.954053565401
1150.6207916554504 5883.942744666521
1151.4886381889592 5864.903847860982
1152.3562707177498 5943.332720492655
1153.2236893028585 5893.862149887191
1154.090894005296 5866.496594299771
1154.9578848860474 5927.176586107497
1155.8246620060709 5789.383491409765
1156.6912254262988 5834.560508952761
1157.5575752076438 5795.160284765088
1158.42371141098 5980.043953300541
1159.2896340971656 5891.130451653954
1160.1553433270346 5796.410542135234
1161.0208391613887 5788.389998549813
1161.8861216610057 5940.26737971341
1162.75119088664 5933.93054726653
1163.6160468990201 5781.812952009144
1164.4806897588442 5756.757540888551
1165.3451195267917 5875.728339533225
1166.2093362635114 5898.646645807347
1167.0733400296285 5940.499250673231
1167.9371308857444 5808.860109909712
1168.8007088924278 5812.571191406907
1169.6640741102328 5882.246970613473
1170.5272265996773 5701.1806294582475
1171.390166421259 5878.4760897824035
1172.252893635452 5781.254323246785
1173.1154083026995 5940.264418523645
1173.977710483421 5940.38177466034
1174.8398002380145 5767.0845876212625
1175.7016776268483 5909.692031085766
1176.563342710264 5874.91043341257
1177.4247955485826 5773.05328195585
1178.2860362020947 5885.401235715859
1179.147064731069 5710.240661274387
1180.0078811957483 5931.08355866691
1180.8684856563486 5799.932554780185
1181.7288781730604 5856.954520569929
1182.589058806052 5927.453916516216
1183.4490276154593 5986.254479434522
1184.3087846614017 5849.515987188546
1185.1683300039676 5849.861692372588
1186.027663703222 5968.370718142489
1186.8867858192025 5917.080340723285
1187.7456964119228 5913.29439644874
1188.6043955413716 5946.49346872811
1189.4628832675116 6038.168237071847
1190.3211596502842 6068.5188685923185
1191.179224749596 5960.980601343306
1192.0370786253388 5896.619641774894
1192.8947213373758 6140.134924243368
1193.7521529455407 6069.201051765147
1194.6093735096438 5948.6182869582
1195.466383089477 6008.0032503036655
1196.3231817447977 6004.662165364331
1197.1797695353398 6119.852820522097
1198.0361465208189 5967.611256365222
1198.8923127609214 5942.466257371396
1199.7482683153048 6053.441924091226
1200.6040132436028 6240.513775855162
1201.459547605431 5942.410674909987
1202.3148714603722 6024.424511201886
1203.1699848679855 6033.068338938896
1204.0248878878065 6180.404917458012
1204.8795805793507 5938.856578836722
1205.7340630020935 6017.437454183594
1206.5883352155033 6098.552725735659
1207.4423972790064 6066.747939288465
1208.2962492520237 5936.583258651998
1209.1498911939307 5950.134604283996
1210.0033231640937 5937.855790515701
1210.8565452218427 6008.871464947597
1211.7095574264913 5847.524248968726
1212.5623598373222 5843.739673665189
1213.4149525135963 5894.465703739597
1214.2673355145507 5852.454973548667
1215.1195088993936 5729.069628134478
1215.9714727273113 5845.365367642359
1216.8232270574663 5974.312247373055
1217.6747719489904 5742.455018921775
1218.5261074609934 5770.112952139984
1219.3772336525653 5876.493434427015
1220.2281505827668 5848.687953061753
1221.0788583106296 5855.429430356636
1221.9293568951707 5728.938241084124
1222.7796463953746 5625.572524408144
1223.629726870202 5808.356829909359
1224.4795983785934 5746.137543516963
1225.3292609794553 5702.221112521309
1226.1787147316809 5646.338155849824
1227.0279596941327 5699.038322244574
1227.8769959256424 5750.02772618201
1228.7258234850306 5718.736279367431
1229.5744424310833 5550.781187450374
1230.422852822563 5693.420327876664
1231.2710547182105 5804.951983314719
1232.119048176739 5669.831464496403
1232.9668332568417 5493.289537440991
1233.8144100171812 5648.124807329799
1234.6617785163999 5569.632654454654
1235.508938813111 5545.86412892023
1236.3558909659114 5554.163962893806
1237.2026350333617 5608.418259287313
1238.049171074008 5647.883089609391
1238.8954991463652 5543.920437177256
1239.741619308932 5505.195476858587
1240.587531620169 5580.884165747501
1241.4332361385277 5655.2912566778805
1242.2787329224248 5514.421608832513
1243.1240220302534 5490.12341238448
1243.9691035203869 5410.049498149477
1244.813977451171 5675.658399821257
1245.6586438809263 5447.212635717206
1246.5031028679496 5392.930113444183
1247.3473544705157 5551.188909293068
1248.1913987468706 5523.88525624124
1249.0352357552383 5383.6043918582955
1249.8788655538228 5477.24583655264
1250.7222882007918 5538.534920665476
1251.565503754302 5595.224700419229
1252.4085122724755 5377.672693708095
1253.2513138134182 5616.154531613661
1254.0939084352049 5533.647084728156
1254.9362961958905 5534.993096017238
1255.7784771535007 5544.3345961836585
1256.6204513660432 5520.670974846256
1257.4622188915 5779.309478621971
1258.3037797878242 5576.7507598911125
1259.1451341129468 5563.367452780257
1259.9862819247755 5635.213095429804
1260.8272232811978 5633.645282393776
1261.6679582400666 5848.07564051485
1262.5084868592203 5496.12878358326
1263.34880919647 5608.514842668232
1264.1889253095997 5718.466121363994
1265.0288352563712 5743.265297365515
1265.8685390945266 5584.0913658588515
1266.7080368817751 5770.354439061773
1267.5473286758115 5785.361910175623
1268.386414534294 5747.3279281639825
1269.2252945148703 5646.607961874055
1270.0639686751547 5637.552133279352
1270.9024370727402 5664.551049690996
1271.7406997651997 5715.786998161024
1272.5787568100714 5659.313620465494
1273.4166082648808 5673.862500837898
1274.2542541871244 5760.540913211133
1275.091694634275 5897.797613233146
1275.9289296637817 5631.2842488066235
1276.7659593330663 5823.508536010987
1277.6027836995308 5684.621451462472
1278.4394028205552 5760.488022129699
1279.2758167534867 5725.837873688832
1280.112025555658 5673.042216978985
1280.9480292843746 5770.020806616478
1281.7838279969128 5524.192147406689
1282.6194217505326 5648.374532985461
1283.4548106024686 5566.453288409641
1284.289994609926 5670.477137659117
1285.1249738300921 5787.436612708012
1285.959748320127 5582.137762268477
1286.7943181371702 5697.957391862035
1287.6286833383328 5596.009773685024
1288.4628439807038 5687.7157362633325
1289.2968001213521 5682.589832429879
1290.1305518173194 5683.281854100658
1290.9640991256183 5762.431949468004
1291.7974421032523 5659.3509596600625
1292.630580807183 5566.316643764427
1293.463515294361 5709.825032993397
1294.29624562171 5940.276697550614
1295.12877184613 5770.181689735921
1295.961094024493 5675.285873586068
1296.79321221365 5742.75971173316
1297.6251264704333 5929.544993010137
1298.4568368516466 6002.810881459276
1299.2883434140658 5822.065802188728
1300.1196462144526 5790.275814756712
1300.9507453095375 5975.393857807266
1301.7816407560313 6009.363320273367
1302.6123326106172 5953.413473136498
1303.4428209299622 5852.571620571491
1304.2731057707024 6170.085408555516
1305.1031871894502 5960.482777895741
1305.933065242798 6019.500619452601
1306.7627399873181 5998.082138692773
1307.5922114795467 6301.107716587214
1308.4214797760123 6117.981222485177
1309.2505449332057 6091.687842991572
1310.0794070076026 6103.305684928114
1310.9080660556538 6193.560556995148
1311.736522133786 6200.911263536442
1312.5647752983987 6088.490049227539
1313.3928256058734 6045.189503184469
1314.2206731125661 6149.736848888798
1315.048317874809 6249.358429196276
1315.8757599489109 6113.241237887756
1316.7029993911547 6122.219145698236
1317.5300362578055 6365.994216383583
1318.356870605101 6140.890331046781
1319.183502489257 6176.418359563986
1320.0099319664623 6361.381421248872
1320.836159092889 6299.7112130740625
1321.66218392468 6279.1726591059405
1322.4880065179532 6216.700847581318
1323.3136269288134 6253.7970572216645
1324.1390452133292 6319.054938378226
1324.9642614275563 6353.488764351703
1325.7892756275214 6183.820665445765
1326.6140878692295 6158.990501803818
1327.4386982086617 6393.055824164799
1328.2631067017755 6164.7711212462245
1329.0873134045069 6166.749180068265
1329.911318372764 5987.38929362221
1330.735121662441 6114.464920820707
1331.558723329399 6038.6745857279275
1332.3821234294774 5961.527867572358
1333.2053220185007 6007.185347863569
1334.0283191522612 5882.52761290147
1334.851114886529 5914.7994354618695
1335.6737092770582 5700.667382662429
1336.4961023795695 5687.324697337971
1337.3182942497697 5575.395152030381
1338.1402849433325 5671.884011966782
1338.962074515921 5535.906021615252
1339.7836630231632 5448.298836222306
1340.6050505206676 5769.654557425591
1341.426237064028 5600.69137490082
1342.2472227088037 5426.320503873063
1343.0680075105338 5296.139536655844
1343.888591524741 5489.61257604949
1344.7089748069138 5463.838389466961
1345.5291574125276 5281.527833498697
1346.3491393970307 5248.7871867180775
1347.168920815846 5360.248140541293
1347.9885017243778 5424.054287271383
1348.8078821780036 5256.606639742964
1349.6270622320844 5342.655343353096
1350.4460419419447 5200.781107033004
1351.2648213629054 5318.570714400976
1352.0834005502438 5081.02266198623
1352.90177955923 5080.001356208232
1353.7199584451064 5155.272311391812
1354.5379372630887 5235.999677533311
1355.355716068374 5076.510611804135
1356.1732949161305 5001.180841604701
1356.9906738615155 5099.762585330721
1357.8078529596478 5128.978372343717
1358.6248322656375 5166.813990891658
1359.441611834567 4952.781457604989
1360.2581917214866 5112.202133893452
1361.0745719814367 4977.301155724172
1361.890752669433 4937.462954372742
1362.7067338404577 4990.2619132597465
1363.5225155494845 5155.452124390544
1364.3380978514506 5092.5942911729435
1365.1534808012839 4906.276119847818
1365.9686644538815 4835.909690741744
1366.783648864117 5168.862025548615
1367.5984340868417 5096.736661532034
1368.413020176893 5074.730325125963
1369.2274071890715 5053.563391377707
1370.0415951781652 5082.096865323592
1370.8555841989346 5066.855060447562
1371.6693743061223 4887.557991417697
1372.48296555444 4715.326712093074
1373.2963579985844 4928.339567231889
1374.1095516932255 4940.6739869844805
1374.9225466930166 4795.745350921122
1375.7353430525782 4888.59745551855
1376.5479408265164 4860.451516756583
1377.36034006941 4929.5127264023
1378.1725408358216 4941.51965513845
1378.9845431802805 4818.287387917958
1379.796347157304 5140.019589378909
1380.6079528213813 5046.197632169264
1381.4193602269788 4859.589828304246
1382.230569428546 4734.379307665333
1383.0415804805016 5066.448029357902
1383.852393437246 4944.943641115491
1384.6630083531563 5000.477075303186
1385.4734252825892 4826.111263819283
1386.2836442798798 4921.863128046083
1387.0936653993322 5073.030665133856
1387.9034886952395 4992.885938724796
1388.713114221864 4939.459620993674
1389.5225420334482 4958.070613092585
1390.331772184214 4898.4645033915285
1391.1408047283585 4810.155004560472
1391.9496397200564 4952.539288906907
1392.758277213461 5021.590575369695
1393.5667172627054 5063.622382687046
1394.3749599218918 4905.229064969155
1395.1830052451114 4836.845674347595
1395.9908532864265 4876.976306574807
1396.7985040998774 4977.63792235393
1397.6059577394808 4753.862818639374
1398.4132142592352 4810.759003189758
1399.2202737131156 4907.315241310083
1400.027136155073 4981.424665986592
1400.8338016390353 4767.727403890398
1401.6402702189134 4790.564339411459
1402.446541948586 4849.194818636265
1403.2526168819204 4800.952337347191
1404.058495072757 4755.270985446759
1404.8641765749107 4889.852275811912
1405.6696614421799 4884.959344586689
1406.4749497283356 5109.490392829126
1407.280041487129 4759.41168778364
1408.084936772295 4655.85010450878
1408.8896356375335 4901.747414679117
1409.6941381365323 4812.683424366203
1410.498444322955 4749.195359069647
1411.3025542504402 4764.581990653076
1412.106467972606 4918.348925139372
1412.9101855430508 4877.604084443715
1413.7137070153458 4690.1060317189385
1414.5170324430437 4839.520962314603
1415.320161879672 4969.887305356748
1416.1230953787435 4959.784602809645
1416.925832993742 4773.453373214206
1417.7283747781275 4836.20942224446
1418.5307207853439 4988.478266234877
1419.3328710688093 4874.297392015882
1420.134825681922 4810.385971239582
1420.9365846780584 4839.656807896459
1421.7381481105713 5021.236814295646
1422.539516032788 4974.152836749711
1423.3406884980232 4868.2924084735005
1424.1416655595604 4806.886771901298
1424.942447270665 4959.337978082944
1425.7430336845828 5026.763070613908
1426.5434248545298 4907.191723611874
1427.3436208337116 5059.460243136214
1428.143621675301 5123.554046129564
1428.9434274324558 5303.676233203918
1429.7430381583108 4939.160526901536
1430.5424539059713 5086.944883319689
1431.3416747285337 5500.887758994804
1432.1407006790632 5313.878255283487
1432.9395318106053 5188.407789304043
1433.7381681761835 5105.458183713541
1434.5366098288014 5283.474019583524
1435.3348568214424 5364.522908257191
1436.1329092070573 5145.314245656417
1436.9307670385879 5241.386347093203
1437.7284303689503 5459.405931763772
1438.5258992510335 5437.466942101622
1439.3231737377118 5251.613590778163
1440.1202538818306 5266.727211655675
1440.9171397362225 5333.860002168252
1441.7138313536925 5335.256640874867
1442.5103287870243 5218.752711352821
1443.3066320889775 5161.351416595663
1444.1027413122956 5322.014701557364
1444.8986565096966 5127.061341778307
1445.694377733882 5146.205666205114
1446.4899050375207 5074.561938743741
1447.2852384732687 5093.729271156639
1448.0803780937622 5077.060418602072
1448.8753239516063 4956.091265544019
1449.6700760993954 4923.879524761512
1450.464634589689 5014.082960986756
1451.2589994750397 5141.7572909602895
1452.0531708079689 4846.9209230334645
1452.8471486409799 4921.42300995613
1453.6409330265524 5066.9912210099965
1454.4345240171442 4830.213636083818
1455.2279216651987 4863.679720432517
1456.0211260231263 4832.992884076677
1456.8141371433194 5149.157420351145
1457.6069550781594 4923.475468391249
1458.3995798799897 4680.709559263966
1459.1920116011424 4697.02210477316
1459.98425029393 4728.454819979706
1460.7762960106338 4651.774773145656
1461.5681488035225 4685.4122061326725
1462.3598087248392 4789.411059888489
1463.1512758268036 4859.100635420045
1463.942550161617 4658.965708126961
1464.7336317814625 4598.506431154146
1465.524520738496 4767.324350016293
1466.3152170848552 4512.978051476267
1467.1057208726506 4594.877665469429
1467.8960321539817 4523.014940431943
1468.6861509809169 4515.264135330715
1469.4760774055085 4473.332174275355
1470.265811479785 4475.629212484962
1471.055353255755 4330.039115525667
1471.844702785409 4317.2877042109585
1472.6338601207044 4325.6373685436465
1473.4228253135934 4457.357483281701
1474.2115984159936 4248.924112485492
1475.0001794798063 4109.871929616612
1475.7885685569145 4297.7800014383865
1476.576765699172 4384.971579846228
1477.3647709584238 4210.393407534104
1478.1525843864802 4423.1599234264195
1478.9402060351367 4356.602896655217
1479.7276359561693 4355.189471482908
1480.514874201328 4142.222243550091
1481.3019208223468 4084.133671134525
1482.0887758709323 4118.6424278025615
1482.8754393987747 4245.941451966125
1483.6619114575406 4107.865537233215
1484.4481920988783 4086.311787018065
1485.2342813744108 4146.561923214618
1486.0201793357446 4313.63616000822
1486.8058860344572 3999.134824928277
1487.591401522117 4026.58569586171
1488.3767258502594 4169.891225444883
1489.1618590704056 4164.955105099657
1489.9468012340494 3904.487650452685
1490.7315523926754 4175.308228330568
1491.5161125977356 4161.974496232217
1492.3004819006637 4168.18862127621
1493.084660352877 3933.002790302219
1493.8686480057622 4092.1507706101183
1494.6524449106964 4249.049039536452
1495.4360511190262 4296.268182906124
1496.219466682087 4086.135699888863
1497.0026916511779 4074.744062350903
1497.7857260775945 4096.8204656966145
1498.5685700125996 4121.304707963081
1499.3512235074395 3903.3949708124082
1500.133686613337 3952.3972951935984
1500.9159593814966 3900.8471007869216
1501.698041863101 4335.1065051547575
1502.4799341093094 3944.385874640204
1503.2616361712662 3812.150239155237
1504.043148100087 3947.4179570636115
1504.8244699468742 4023.589438896443
1505.6056017626997 3870.150138020662
1506.3865435986281 3928.782701806761
1507.1672955056893 4112.589159538822
1507.9478575348967 3944.777248751672
1508.7282297372512 4114.565495123164
1509.5084121637192 4018.289557865223
1510.2884048652577 4032.445831386586
1511.0682078927948 3945.5965906137258
1511.8478212972423 3982.564809899863
1512.6272451294917 3863.6940521694196
1513.4064794404076 4102.069325817554
1514.1855242808433 4094.1999230598144
1514.9643797016215 4072.1187772837147
1515.743045753552 4012.256254446604
1516.5215224874191 4034.5708627710183
1517.2998099539836 3921.34323446701
1518.077908203999 4020.2394184527816
1518.8558172881785 3977.5581608577886
1519.633537257234 4127.2017161051335
1520.4110681618404 4065.524132898053
1521.1884100526604 3998.4265975824783
1521.9655629803365 3960.6397767134067
1522.7425269954856 4212.74921051852
1523.5193021487103 4278.48399524466
1524.2958884905856 4034.2346105021447
1525.0722860716687 4091.799031163315
1525.848494942502 3991.694043775255
1526.624515153595 4032.592010247214
1527.4003467554485 4090.7109801439474
1528.175989798534 4093.5470370771463
1528.9514443333064 4069.2784759758847
1529.726710410203 4264.727336141338
1530.5017880796331 3931.788896702589
1531.276677391992 3992.277320720127
1532.0513783976457 4226.728141941934
1532.825891146953 4099.646560445556
1533.6002156902414 4078.559529535195
1534.3743520778207 4219.314612670544
1535.1483003599806 4086.9521383965875
1535.9220605869923 3992.279808493763
1536.6956328091019 4086.487544588976
1537.4690170765407 4021.2250557943344
1538.242213439511 4131.569019100794
1539.015221948208 3976.696043414087
1539.78804265279 3970.0936923187546
1540.560675603405 3903.185400906307
1541.3331208501804 4094.8023707093926
1542.1053784432224 4155.139950093968
1542.8774484326168 4009.767408472232
1543.649330868422 3914.5305431775173
1544.4210258006842 3933.267171903442
1545.1925332794308 3847.889762026848
1545.9638533546604 3915.6462353544425
1546.7349860763552 3837.5115403532304
1547.5059314944829 4149.3350128232905
1548.27668965898 3985.9995524732904
1549.0472606197673 3915.2454048512054
1549.817644426752 3771.5892834866268
1550.5878411298072 4027.0677146323737
1551.3578507787988 3978.660297541038
1552.1276734235635 3808.045813185944
1552.8973091139233 3923.6749044190015
1553.6667578996767 4026.9180307534953
1554.436019830604 3945.456379070758
1555.20509495646 3960.3887531835258
1555.9739833269869 3822.8322001410233
1556.7426849919011 3787.2915417430304
1557.511200000903 4047.0517582607185
1558.2795284036674 3921.7489417709476
1559.0476702498509 3891.2092272668406
1559.8156255890954 4005.2312845970746
1560.5833944710157 4225.5249825770425
1561.3509769452048 3879.2280662157477
1562.1183730612447 3968.7934984718654
1562.8855828686865 3926.5332632803998
1563.6526064170703 4163.430122218048
1564.4194437559127 4045.978034090378
1565.1860949347047 3902.241731496576
1565.9525600029283 4169.62595371973
1566.7188390100328 4266.083009006045
1567.4849320054564 3916.98431145293
1568.250839038612 3998.197834680667
1569.0165601588997 4044.671438648049
1569.7820954156887 4160.283767693618
1570.5474448583373 3968.811589630774
1571.31260853618 3918.3291952450804
1572.0775864985299 3894.107919988436
1572.8423787946813 4091.9925195146825
1573.6069854739108 4014.0009032157236
1574.371406585471 4078.686151176045
1575.1356421785986 4205.199392009513
1575.899692302506 3942.199175556992
1576.6635570063845 4140.230995221762
1577.4272363394157 4074.2230634186644
1578.190730350747 4005.6941241591726
1578.9540390895163 4259.781149789748
1579.7171626048384 3910.9813679824574
1580.480100945806 3922.2987882431385
1581.2428541614918 4083.7500286065333
1582.0054223009538 4208.450415019443
1582.767805413223 4068.388098439881
1583.5300035473156 4063.561858102338
1584.292016752228 4182.618593732249
1585.0538450769309 4068.685879187303
1585.8154885703807 3893.0022079550645
1586.5769472815136 3877.594860817383
1587.3382212592405 4034.6156872913803
1588.099310552463 4226.676713593055
1588.8602152100484 3985.9279085338726
1589.6209352808564 4046.311633638903
1590.3814708137234 3906.3898899373394
1591.14182185746 3995.75843417108
1591.9019884608679 3859.530862397353
1592.6619706727215 3777.0803946507644
1593.4217685417734 3990.3003672502937
1594.1813821167616 4074.531912388889
1594.9408114464022 3821.7527779590737
1595.7000565793933 3787.784243204391
1596.459117564409 3992.8620223284256
1597.2179944501113 3668.229889831347
1597.9766872851324 3820.0861639123277
1598.735196118092 3828.049767407875
1599.4935209975883 3858.7498787388845
1600.2516619721973 3940.0888198165185
1601.0096190904787 3776.9643632917278
1601.7673924009723 3787.5914687025484
1602.524981952196 3766.3205089038565
1603.2823877926476 3820.0436416107636
1604.0396099708087 3682.6245294617643
1604.7966485351371 3660.6897380380337
1605.5535035340745 3759.852935033575
1606.3101750160404 3963.045212997828
1607.0666630294363 3678.5246843759064
1607.822967622642 3616.6046978218865
1608.5790888440224 3694.148602040031
1609.3350267419137 3747.5458299637894
1610.0907813646445 3646.280512591083
1610.8463527605145 3611.6129619978738
1611.601740977805 3770.852793296786
1612.356946064785 3727.2067566935243
1613.1119680696902 3557.6028473956076
1613.8668070407512 3557.4274981869994
1614.6214630261748 3557.3106520058727
1615.375936074137 3730.1824773297994
1616.1302262328118 3654.9765695121714
1616.8843335503425 3701.0446606375285
1617.638258074854 3549.7182621606325
1618.391999854457 3762.70091100056
1619.1455589372363 3665.647004144489
1619.8989353712623 3637.224959614169
1620.65212920458 3513.731610426784
1621.4051404852235 3659.476361458105
1622.1579692611976 3766.241138186917
1622.9106155804966 3539.753064098388
1623.663079491087 3574.7084976555757
1624.4153610409248 3680.0986236864874
1625.1674602779385 3671.1462465330274
1625.9193772500403 3524.11719941892
1626.6711120051277 3782.4052597153836
1627.4226645910676 3691.2849623779466
1628.174035055721 3495.9132245718006
1628.9252234469168 3622.646925538816
1629.676229812474 3603.4951130969457
1630.4270542001905 3920.2234290483793
1631.1776966578382 3618.869538969172
1631.9281572331747 3529.3639505608894
1632.678435973945 3905.6897745790347
1633.4285329278573 3669.7165332713143
1634.1784481426203 3396.0425129085684
1634.9281816659113 3568.263446738974
1635.677733545388 3737.9849713245108
1636.4271038286934 3611.7926162681265
1637.176292563452 3740.216119244537
1637.9252997972635 3687.897327572203
1638.674125577716 3752.6941735463224
1639.4227699523672 3947.9713359026464
1640.171232968767 3559.1788133808463
1640.9195146744423 3601.236741488796
1641.6676151168977 3782.745620523378
1642.4155343436178 3845.471997390666
1643.1632724020765 3687.1062794473087
1643.9108293397167 3720.8802959306254
1644.658205203974 3547.575186803098
1645.4054000422566 4100.989891595656
1646.1524139019566 3589.7145329104146
1646.8992468304423 3544.220233739473
1647.6458988750728 3658.7661848169673
1648.3923700831765 3574.6104800804715
1649.1386605020743 3565.195812708566
1649.8847701790564 3773.782712584617
1650.6306991614038 3770.632999536221
1651.3764474963682 3659.851254558249
1652.1220152311944 3437.6719812990864
1652.867402413096 3667.367172606675
1653.6126090892776 3693.613453464831
1654.3576353069184 3847.8116755539363
1655.1024811131829 3580.3824341417067
1655.8471465552066 3524.123350250701
1656.5916316801213 3726.3930436226974
1657.3359365350298 3757.062686971716
1658.0800611670165 3533.8988969221
1658.824005623148 3645.3410678012347
1659.5677699504722 3551.4279025578203
1660.3113541960192 3626.327460199831
1661.054758406799 3583.507973795934
1661.7979826297997 3525.0265161285797
1662.5410269119966 3519.755220490588
1663.283891300338 3724.2987018589492
1664.0265758417645 3517.7977785562675
1664.7690805831826 3538.762729245551
1665.5114055714948 3537.638196547638
1666.2535508535748 3851.964158336242
1666.9955164762814 3313.560237874254
1667.7373024864555 3522.7533299195593
1668.478908930916 3609.2266753691642
1669.220335856462 3553.5323438281607
1669.9615833098778 3403.7808318561206
1670.7026513379296 3376.063300804958
1671.44353998736 3574.606135603151
1672.1842493048916 3554.250910916215
1672.9247793372379 3455.726791806138
1673.6651301310812 3580.5783721211724
1674.4053017330934 3414.7348463389667
1675.1452941899242 3561.0596979932016
1675.885107548207 3188.5152785919627
1676.6247418545518 3374.400057188285
1677.3641971555535 3482.427913576585
1678.1034734977893 3581.829686494287
1678.8425709278108 3403.983578605212
1679.5814894921605 3476.380496987548
1680.320229237359 3463.0874568385902
1681.0587902098978 3661.8792588618758
1681.7971724562685 3425.894834395389
1682.5353760229264 3278.876753475106
1683.2734009563173 3568.5600809170746
1684.0112473028657 3248.2982333653604
1684.7489151089794 3458.268719730233
1685.4864044210462 3509.690060101651
1686.2237152854377 3217.9875841074318
1686.960847748498 3511.26411292974
1687.6978018565642 3368.619750459079
1688.434577655944 3342.563885228096
1689.1711751929379 3280.317031565298
1689.9075945138156 3498.958767995223
1690.6438356648396 3423.7025312320634
1691.3798986922448 3156.2186907394216
1692.1157836422499 3348.886276112542
1692.851490561059 3347.868563146473
1693.587019494853 3364.8080935001135
1694.3223704897991 3225.4183736441855
1695.0575435920364 3179.7986890217344
1695.792538847696 3504.193331646009
1696.527356302886 3293.293450372576
1697.2619960036936 3070.456654167698
1697.9964579961907 3196.2706406204675
1698.730742326432 2929.380172956196
1699.4648490404488 3098.575314398089
1700.1987781842563 3128.1200788717315
1700.9325298038548 3327.060491980086
1701.6661039452174 3330.505201291808
1702.3995006543082 3272.426049183798
1703.1327199770658 3284.1580089607182
1703.865761959416 2914.7123186092986
1704.598626647261 3340.5159415430403
1705.3313140864866 3142.352027649901
1706.0638243229587 3209.140849691496
1706.7961574025303 3259.146954492249
1707.528313371029 3147.611207871908
1708.260292274268 3077.117235269966
1708.9920941580403 3104.6093175648225
1709.7237190681226 3198.4762096540007
1710.4551670502697 3099.8364750675787
1711.18643815022 2970.5655008382937
1711.9175324136959 3337.483873105938
1712.6484498863938 3122.9652969620356
1713.379190614005 2890.54964837858
1714.109754642188 3104.153897236528
1714.8401420165883 2917.161385121709
1715.570352782839 3391.057200619165
1716.3003869865497 3167.120903547814
1717.0302446733076 2980.0791161094735
1717.7599258886876 3098.335585453021
1718.4894306782444 3335.38611054927
1719.2187590875183 2816.215979900034
1719.9479111620203 3251.4122116151248
1720.6768869472544 2978.860406769813
1721.4056864887025 3213.532252948965
1722.1343098318284 3236.5473452120996
1722.8627570220742 3039.095605763486
1723.591028104871 2956.129107495053
1724.3191231256242 2797.7958168190435
1725.0470421297232 3057.115154345468
1725.7747851625427 3090.8629950397776
1726.5023522694337 3036.312813246749
1727.2297434957363 3034.21424669301
1727.9569588867635 2876.702734205569
1728.6839984878152 3114.916171285031
1729.4108623441734 2741.626659938992
1730.1375505011038 3157.861944379476
1730.8640630038426 2870.922393342532
1731.5903998976264 2924.9774900734456
1732.316561227657 3027.2096433350844
1733.0425470391274 2794.206849744537
1733.7683573772065 2979.6701272953187
1734.4939922870508 2954.3972992983336
1735.2194518137949 3037.7461090272564
1735.9447360025606 3003.0910505564602
1736.669844898439 2979.571960021686
1737.3947785465189 2891.6798607040814
1738.1195369918605 2778.9295811833513
1738.8441202795093 3017.347080663452
1739.5685284544943 2992.7766480175806
1740.292761561821 3049.8814012718367
1741.0168196464838 3000.4582236160377
1741.7407027534518 3046.702621329722
1742.464410927687 2974.9345245611903
1743.187944214118 2889.350971087077
1743.9113026576688 2950.4575364109787
1744.634486303241 2866.620856801885
1745.3574951957125 3003.5583536618346
1746.0803293799509 3083.2016688339886
1746.8029889008048 2891.968590253427
1747.5254738031017 2941.854914363902
1748.2477841316504 2786.550383445666
1748.969919931249 2827.216728687801
1749.6918812466665 2855.576365313094
1750.4136681226646 2991.63036365774
1751.1352806039777 2946.632312101189
1751.856718735331 2616.102431887192
1752.5779825614281 2663.2301639863394
1753.2990721269507 2943.8384764094208
1754.0199874765676 2916.0518190447897
1754.7407286549314 2717.4693803907066
1755.4612957066693 2884.2201102884073
1756.1816886763954 2802.7061945901632
1756.9019076087097 2938.020023623389
1757.6219525481865 2967.605082808658
1758.3418235393856 2925.6530120026628
1759.061520626854 2860.6747160003288
1759.7810438551096 2935.689887824109
1760.5003932686614 2850.783733753529
1761.2195689119999 2922.65703960589
1761.938570829594 2946.056490924207
1762.657399065898 2876.2334620445426
1763.376053665348 2735.042095361615
1764.0945346723602 2630.8291066887678
1764.812842131334 2809.0854265249227
1765.5309760866512 2687.8390860077734
1766.2489365826787 2712.3319080156443
1766.9667236637597 2799.3178403770216
1767.684337374223 2567.596376817733
1768.401777758383 2702.261771962314
1769.1190448605284 2662.4435143451874
1769.836138724937 2679.6564574155227
1770.5530593958665 2855.5787326353907
1771.2698069175603 3052.544773525986
1771.9863813342326 2889.836714542594
1772.702782690094 2688.438998050994
1773.4190110293293 2876.726585330074
1774.1350663961111 2962.286073143684
1774.8509488345844 2801.1854775496113
1775.5666583888924 2753.000592852525
1776.2821951031437 2919.5492093073985
1776.9975590214362 2717.6480777944757
1777.7127501878585 3027.603094669723
1778.4277686464684 2828.035161499961
1779.1426144413108 2964.9090431474083
1779.8572876164162 2983.4902530188438
1780.571788215797 2566.368176451265
1781.2861162834415 2781.802630960852
1782.0002718633277 2708.9598222680897
1782.7142549994132 2838.865496185496
1783.4280657356376 2812.56733282945
1784.141704115922 2695.699933575456
1784.855170184177 2852.9352400305115
1785.5684639842839 2824.4024217817087
1786.2815855601148 2465.828359381937
1786.9945349555237 2909.360885867964
1787.707312214343 2697.7762753100574
1788.4199173803918 3127.0521067417512
1789.132350497468 2545.8816346885314
1789.8446116093583 2626.3617959669787
1790.556700759822 2691.7551696991454
1791.2686179926077 2741.940560078773
1791.9803633514493 2769.477618349877
1792.6919368800554 2666.559986836676
1793.4033386221236 2791.956765605441
1794.1145686213295 2827.6544222280195
1794.8256269213307 2887.104352289283
1795.536513565774 2773.8321990077193
1796.247228598284 2518.473355965285
1796.9577720624693 2732.0178585711333
1797.6681440019165 2761.932175970517
1798.3783444602013 2684.9116498695525
1799.0883734808776 2784.611779301379
1799.7982311074884 2814.3081590124466
1800.5079173835475 2719.368130600001
1801.2174323525633 2789.9800737503238
1801.9267760580187 2689.5878078762416
1802.635948543386 2774.868450792941
1803.3449498521113 2581.4894315130296
1804.0537800276325 2838.7716574030683
1804.7624391133668 2676.586477207808
1805.47092715271 2434.6939392573927
1806.1792441890484 2521.6697812184334
1806.8873902657433 2765.619601018731
1807.5953654261448 2752.6246318694707
1808.3031697135812 2648.2668513004437
1809.0108031713662 2603.6089703075513
1809.71826584279 2652.007021017146
1810.425557771141 2721.184180142257
1811.1326789996747 2973.559560054146
1811.839629571632 2728.4960630434657
1812.5464095302468 2695.6642170336795
1813.2530189187182 2684.373747505615
1813.959457780249 2557.822886341094
1814.6657261580076 2715.848466434217
1815.371824095153 2615.081687190783
1816.0777516348262 2735.7334517792856
1816.78350882015 2434.3685872098004
1817.4890956942272 2608.7520676928134
1818.1945123001533 2565.8007158312007
1818.8997586809928 2661.8575407481794
1819.6048348798067 2496.617316418677
1820.3097409396287 2578.451079317598
1821.0144769034796 2822.155072471557
1821.7190428143622 2709.31863940723
1822.423438715261 2827.079625579302
1823.1276646491478 2602.990766296151
1823.8317206589727 2633.148628536553
1824.5356067876692 2683.387658233395
1825.2393230781581 2582.314338530156
1825.942869573335 2522.3478340237707
1826.646246316086 2616.2138647828933
1827.3494533492758 2610.9105032020443
1828.052490715756 2726.7747382649127
1828.7553584583547 2604.6568968086312
1829.458056619891 2735.02989409939
1830.1605852431585 2606.28333532383
1830.8629443709433 2430.39486681355
1831.5651340460063 2583.9269033044907
1832.2671543110919 2449.4468919691517
1832.9690052089318 2718.133552719389
1833.6706867822395 2408.39347254071
1834.3721990737104 2655.0240083340477
1835.0735421260233 2682.619088235694
1835.774715981841 2590.5820472539426
1836.4757206838058 2700.535151731169
1837.1765562745459 2528.1346326171274
1837.8772227966747 2498.704413227765
1838.5777202927839 2637.6725888868637
1839.2780488054523 2415.9017899304536
1839.9782083772352 2508.3742305083947
1840.6781990506806 2724.939098912587
1841.378020868313 2459.737341072053
1842.0776738726418 2694.3885552133424
1842.777158106157 2534.366358979005
1843.4764736113375 2441.0462233323224
1844.1756204306403 2593.0561328568424
1844.8745986065078 2580.415035363214
1845.5734081813607 2318.99537694678
1846.2720491976124 2436.888736109246
1846.970521697649 2390.4779294327823
1847.6688257238511 2577.135022128591
1848.3669613185684 2636.257916430539
1849.0649285241452 2438.9027643630297
1849.7627273829057 2579.211555354285
1850.460357937156 2569.666634523658
1851.1578202291857 2383.9798975163826
1851.8551143012664 2570.0384572495395
1852.5522401956569 2419.0593223793076
1853.2491979545957 2768.8510335655237
1853.9459876203055 2371.720652399204
1854.6426092349902 2467.5642522844
1855.3390628408451 2426.7558978832412
1856.0353484800362 2750.207878936812
1856.7314661947203 2647.787762720486
1857.4274160270397 2337.0568894996427
1858.123198019115 2406.3584393548285
1858.8188122130487 2333.8391389897847
1859.5142586509319 2488.974701274532
1860.209537374838 2457.9766247542802
1860.9046484268183 2448.588474601159
1861.599591848917 2701.3223454259587
1862.294367683151 2432.284646213074
1862.988975971528 2423.621015575372
1863.6834167560355 2521.9262409915036
1864.3776900786452 2693.483193529145
1865.0717959813119 2436.6320841475217
1865.7657345059724 2476.750592075365
1866.4595056945564 2603.3678541601757
1867.1531095889586 2469.18195433212
1867.846546231076 2390.7991220383606
1868.5398156627743 2521.4005798132025
1869.2329179259123 2327.4817314101065
1869.9258530623283 2572.182267393186
1870.618621113843 2397.212872614181
1871.3112221222636 2350.889400373555
1872.0036561293764 2412.448217456762
1872.695923176956 2438.8877085955287
1873.3880233067594 2680.848587954436
1874.0799565605212 2237.4471666327586
1874.7717229799673 2515.7884939706173
1875.4633226068036 2712.617802518533
1876.1547554827175 2555.986213176876
1876.8460216493859 2331.116209174933
1877.5371211484617 2405.487995965865
1878.2280540215852 2577.2582571209123
1878.9188203103804 2186.265443108821
1879.6094200564548 2384.649931618317
1880.299853301396 2449.4339208226706
1880.9901200867826 2786.6758493856637
1881.6802204541673 2657.344345123366
1882.3701544450942 2486.015691914582
1883.059922101087 2308.175830435214
1883.7495234636517 2590.0903109122055
1884.4389585742792 2443.1575030320546
1885.1282274744517 2390.4434061596608
1885.8173302056166 2796.837213830826
1886.506266809225 2418.6145152619442
1887.195037326701 2322.0468586984734
1887.8836417994517 2397.8249538417463
1888.5720802688702 2604.30582997705
1889.260352776333 2471.1376375089176
1889.9484593632042 2527.664016188233
1890.63640007082 2418.542430545712
1891.3241749405151 2252.784918484562
1892.0117840135954 2522.143503136509
1892.6992273313572 2393.082605089884
1893.3865049350788 2220.6319430489007
1894.0736168660223 2684.0538271899936
1894.7605631654333 2516.823748515825
1895.4473438745408 2177.994148992422
1896.133959034556 2735.882121031277
1896.820408686679 2521.926859097903
1897.506692872088 2514.3930564095417
1898.192811631945 2361.34990011039
1898.8787650073991 2357.308641610452
1899.5645530395832 2606.6058416576093
1900.2501757696118 2535.9490220218404
1900.9356332385796 2254.318232440027
1901.620925487574 2731.203896968097
1902.3060525576602 2494.122368715664
1902.9910144898859 2432.063372725736
1903.6758113252872 2329.110380286764
1904.3604431048789 2584.642295863702
1905.0449098696663 2548.308983520018
1905.7292116606295 2359.5785794602966
1906.4133485187394 2428.8515249720504
1907.0973204849488 2053.026248336792
1907.7811276001976 2211.714226868878
1908.4647699053967 2439.3685747810828
1909.1482474414588 2390.903880694748
1909.8315602492694 2342.2286394807093
1910.5147083696957 2664.030663408208
1911.1976918436012 2451.105494589208
1911.880510711815 2139.2483951694617
1912.5631650151681 2175.840604355538
1913.2456547944657 2212.426766677815
1913.927980090495 2371.6879332816497
1914.6101409440362 2430.584969928815
1915.2921373958416 2434.178039012285
1915.9739694866603 2299.186105237673
1916.655637257214 2471.09637614646
1917.3371407482136 2358.1976995323716
1918.0184800003572 2523.924219750709
1918.6996550543154 2477.55545563297
1919.3806659507554 2398.5486675247585
1920.0615127303208 2431.6230029059816
1920.7421954336423 2644.788468783253
1921.4227141013343 2557.9500580452486
1922.103068773993 2351.0412072687936
1922.783259492202 2516.031996198632
1923.4632862965227 2308.990634278446
1924.1431492275078 2362.589395949198
1924.8228483256917 2216.938006781834
1925.5023836315922 2264.2498689072045
1926.1817551857057 1994.3780607219462
1926.8609630285227 2520.0354510785387
1927.5400072005123 2429.6242885582815
1928.218887742125 2343.861461581779
1928.8976046938005 2368.612496139001
1929.5761580959588 2463.8962531155807
1930.2545479890086 2299.534792806454
1930.9327744133352 2095.4454418849095
1931.6108374093164 2397.123846555794
1932.2887370173066 2495.1057682684386
1932.9664732776473 2002.8852451644264
1933.6440462306673 2361.088893606682
1934.3214559166754 2331.5251251055
1934.9987023759659 2562.969305891959
1935.675785648813 2442.5063216442845
1936.3527057754836 2577.789068075266
1937.029462796223 2127.7573465549976
1937.70605675126 2260.222831186772
1938.3824876808085 2257.9616123042015
1939.058755625072 2250.030770418386
1939.7348606242267 2216.3765342267143
1940.4108027184448 2396.465275146741
1941.0865819478713 2391.583122434126
1941.7621983526478 2198.210080515107
1942.4376519728921 2119.3041578041293
1943.1129428487038 2289.482721540614
1943.7880710201734 2333.281070199096
1944.4630365273733 2410.7404443477117
1945.1378394103576 2137.1767182819635
1945.8124797091714 2433.982387570614
1946.4869574638324 2051.7823689873467
1947.161272714353 2117.398309872923
1947.8354255007234 2386.835373745195
1948.5094158629272 2233.3866527790337
1949.1832438409183 2412.4244333165443
1949.8569094746435 2455.252820615482
1950.530412804037 2480.7068220626797
1951.2037538690092 2331.6014691814244
1951.8769327094578 2179.287902356177
1952.5499493652678 2200.5818043346676
1953.222803876306 2413.393246190931
1953.895496282421 2392.861370186584
1954.5680266234522 2251.4094278754847
1955.2403949392155 2282.159630340292
1955.9126012695142 2166.603628813703
1956.5846456541403 2329.9601766730607
1957.2565281328643 2237.731233934153
1957.9282487454457 2330.120543182752
1958.5998075316202 2315.1787184887908
1959.27120453112 2158.421961969584
1959.9424397836501 2287.450738859753
1960.613513328908 2285.381744764602
1961.2844252065697 2504.9749127245323
1961.9551754563017 2180.0212766505215
1962.6257641177453 2231.7186873143874
1963.29619123054 2187.0416802172267
1963.966456834296 2054.6467263960135
1964.6365609686181 2115.9090390413626
1965.306503673086 2373.145058841942
1965.976284987275 2066.002916884245
1966.645904950734 2134.085994635475
1967.315363603002 2012.7920520879943
1967.9846609836077 2211.9792091624904
1968.6537971320486 2188.135318003026
1969.3227720878222 2313.2797102222275
1969.9915858904042 2342.6527204220047
1970.660238579252 2372.090518814358
1971.3287301938108 2291.9776697822913
1971.997060773514 2141.7985043325284
1972.665230357772 2025.357952657622
1973.3332389859843 2222.9088797938384
1974.0010866975335 2046.3358369583275
1974.6687735317864 2225.672661907988
1975.3362995280932 2336.8167236246445
1976.003664725793 2256.2769036238733
1976.6708691642052 2050.1609110864765
1977.3379128826364 2223.6947595952106
1978.004795920373 2332.588210361771
1978.6715183166925 2451.47849822461
1979.3380801108524 1989.362913449188
1980.0044813420973 2165.097100651447
1980.6707220496555 1958.922549075524
1981.3368022727373 2326.9105385703733
1982.0027220505417 2211.857265980447
1982.66848142225 1807.6369719184684
1983.3340804270283 1949.5744469468289
1983.999519104027 2212.160308529117
1984.6647974923835 2208.380873207857
1985.329915631215 2247.762408629794
1985.99487355963 2269.05432525949
1986.6596713167146 2346.6451723789137
1987.3243089415428 2155.332149380187
1987.9887864731754 2334.6248797796425
1988.6531039506553 2131.7779411353445
1989.3172614130071 2403.234810975235
1989.9812588992481 2187.0067385116927
1990.645096448372 1907.7134954890419
1991.3087740993633 2218.275593720455
1991.9722918911848 2065.2536057040115
1992.635649862792 2032.6904775869418
1993.2988480531185 2327.069239600386
1993.9618865010852 2606.852250529591
1994.6247652455968 2130.3219069880374
1995.287484325545 2010.4091782132105
1995.9500437798033 2039.2087650102821
1996.6124436472292 2136.559085254659
1997.2746839666706 2377.291769527424
1997.936764776954 2048.5935277732115
1998.598686116895 2022.3674701687862
1999.2604480252903 2422.7802576584745
1999.9220505409212 2286.901327977451
2000.5834937025593 2058.0597563836964
2001.2447775489582 2099.269859422769
2001.9059021188514 2083.735426108299
2002.5668674509616 1940.1427218206186
2003.2276735839987 2084.0320009151446
2003.8883205566508 2420.06088525727
2004.5488084075987 2095.1912293274427
2005.2091371755014 2195.8893097912533
2005.8693068990033 2053.665205973522
2006.5293176167397 2295.5696196160015
2007.1891693673224 2022.9602190015794
2007.848862189354 2050.8969083981565
2008.5083961214223 2114.3826411120035
2009.1677712020955 1973.317611395909
2009.8269874699254 2044.4309600787274
2010.4860449634598 2054.34367229552
2011.1449437212177 2064.40347212906
2011.8036837817108 2366.232373874759
2012.4622651834325 2081.7956494394584
2013.1206879648653 2159.335266673702
2013.7789521644736 2347.4067044538315
2014.4370578207036 2297.8918895423494
2015.0950049719922 2248.1963574550145
2015.7527936567585 2230.4626160722974
2016.4104239134067 2031.9810597064047
2017.067895780323 1973.0076780891388
2017.725209295886 1913.8087207146232
2018.3823644984514 2341.7977345068066
2019.0393614263648 2102.8164801493226
2019.6962001179545 2169.4748640624202
2020.3528806115355 2156.4298577992968
2021.0094029454067 2167.8902164361543
2021.6657671578487 1996.7998900045186
2022.321973287133 2035.9834311456693
2022.9780213715148 2042.1694589919339
2023.6339114492293 2119.283739353859
2024.2896435585026 2197.8379498728928
2024.9452177375442 2050.776979543417
2025.600634024544 2273.0402814014533
2026.2558924576842 2219.692102766533
2026.9109930751292 2303.554387157869
2027.565935915025 2022.5712102542643
2028.2207210155066 2337.527079543371
2028.8753484146964 2423.018223964732
2029.529818150695 2317.0408360053484
2030.1841302615903 2210.5701741081602
2030.8382847854573 2052.240465169464
2031.4922817603601 2245.4590166141616
2032.1461212243357 2179.348366233726
2032.7998032154192 1886.9068698952221
2033.4533277716218 1952.5344423821891
2034.1066949309443 1943.3597935269913
2034.7599047313688 1985.6791921072167
2035.4129572108704 2120.3887173454127
2036.0658524074006 2142.9131279019434
2036.7185903589016 2093.8528866504175
2037.3711711032956 2237.8478964193837
2038.023594678496 2098.5191218631435
2038.675861122394 1923.7735651516628
2039.3279704728757 2289.864578653577
2039.9799227678031 1974.6821102919282
2040.6317180450278 2218.9297363687624
2041.2833563423865 2009.681474442724
2041.9348376977014 2359.1605530998722
2042.5861621487784 2229.6015629507547
2043.2373297334088 2203.228705835654
2043.8883404893695 2168.793670666145
2044.5391944544208 2262.518380898593
2045.1898916663158 2485.8625052096504
2045.8404321627804 2254.010458955471
2046.4908159815368 2088.7813410214926
2047.1410431602853 1998.219814896795
2047.7911137367173 2076.6664254777893
2048.441027748504 2288.5367752854418
2049.090785233302 1993.4094081671396
2049.7403862287592 2060.524583070043
2050.389830772503 2309.6373365456866
2051.0391189021466 1948.989705672962
2051.688250655294 2038.834791147021
2052.337226069527 1996.191801752253
2052.986045182417 2260.9263582169256
2053.634708031521 1792.943492971141
2054.283214654375 2271.295455177692
2054.931565088511 1815.1790290665347
2055.579759371436 1835.9613992902832
2056.2277975406523 2193.498666939728
2056.8756796336384 2326.3150253663543
2057.5234056878617 1755.0621794215058
2058.1709757407752 1986.8659377622582
2058.8183898298194 2420.1879451590075
2059.465647992416 2242.8444903018785
2060.1127502659747 2244.288433477656
2060.759696687888 1926.1011054266987
2061.4064872955405 2186.9771864291
2062.053122126292 2272.321446162364
2062.699601217497 1800.0477550780452
2063.345924606485 1927.5574561910084
2063.992092330587 2063.1997788286217
2064.638104427102 1877.8702546880427
2065.283960933324 2310.0439894385718
2065.92966188653 2032.748561351827
2066.5752073239855 2218.828961251419
2067.2205972829397 1929.9221563673975
2067.86583180062 2112.7359509231565
2068.5109109142522 2073.8731929622777
2069.15583466104 2049.794087286086
2069.8006030781708 2025.6946599809803
2070.445216202821 1917.2512533127788
2071.089674072153 2229.305041875428
2071.7339767233116 2303.3020211798976
2072.3781241934303 2076.1831985906183
2073.0221165196253 2215.3042972895328
2073.6659537390024 1980.0462542917314
2074.3096358886505 2189.119739874344
2074.953163005637 2086.3790564901515
2075.596535127028 1903.480866246955
2076.2397522898664 1929.8861381726867
2076.882814531182 2144.2041354587996
2077.5257218879924 2265.943010453584
2078.1684743973 2056.32972565444
2078.8110720960885 1904.9562861335442
2079.453515021336 2278.1855686333834
2080.095803209997 2064.6082780658085
2080.7379366990135 2197.9339318336647
2081.37991552532 2352.047490153583
2082.0217397258275 2134.559112674886
2082.6634093374414 1838.5792970728526
2083.3049243970418 2129.924247202519
2083.9462849415067 2225.7789606109577
2084.587491007689 2246.9522408490375
2085.2285426324324 1991.247039846957
2085.869439852564 2058.7766998509096
2086.510182704902 1889.4058948772454
2087.1507712262483 2024.1678362108614
2087.791205453381 1871.8198799047684
2088.4314854230743 2137.7332423289326
2089.0716111720867 1965.42483950014
2089.7115827371617 1809.1095218473959
2090.351400155023 1906.5657151185856
2090.991063462385 2004.2920665696868
2091.6305726959527 1716.266857413717
2092.2699278924047 2148.183936728515
2092.9091290884153 2086.2826018479795
2093.548176320641 1838.5433214814213
2094.187069625721 2183.2337839756037
2094.8258090402887 1806.2837193231178
2095.464394600951 2200.9264436904277
2096.102826344313 2066.0662179130923
2096.741104306955 2270.410280020634
2097.379228525453 1917.7836946701652
2098.017199036358 1809.2490303203613
2098.6550158762147 2129.471974709555
2099.2926790815527 2161.2984957179
2099.9301886888825 2069.1341969719465
2100.5675447347076 1983.838246978327
2101.2047472555114 2116.1475014276084
2101.841796287761 1947.7642236550612
2102.47869186792 2114.7298952642573
2103.1154340324265 1991.1405396978698
2103.752022817709 1973.1004424438972
2104.388458260184 1931.232712148975
2105.024740396251 1950.0559884715644
2105.660869262292 1916.4657621497397
2106.296844894685 2199.2746402559105
2106.93266732978 1975.8914153234757
2107.5683366039284 1907.6322858349838
2108.2038527534532 2070.546259529062
2108.8392158146726 2118.712782305493
2109.4744258238843 1911.1405519196815
2110.1094828173755 2030.2679631406554
2110.744386831422 2091.9201294373265
2111.3791379022787 2011.4492535702652
2112.01373606619 2162.660762236109
2112.648181359389 2111.103710923598
2113.28247381809 2138.0746905476954
2113.916613478492 2089.866451246511
2114.550600376786 2039.0042288050342
2115.1844345491445 1970.8911228335874
2115.818116031729 1925.6221014635619
2116.451644860679 2090.838114950493
2117.085021072133 1858.847532932683
2117.718244702204 1927.7183612347155
2118.3513157869984 1865.9330551147439
2118.984234362604 1878.5189917775042
2119.617000465092 1859.2435989174355
2120.249614130529 2296.5770243872803
2120.8820753949585 2005.5401028748183
2121.5143842944162 1875.9753082683794
2122.14654086492 1932.8816114515896
2122.7785451424734 2158.406814424079
2123.4103971630702 1770.8859121717815
2124.042096962681 2043.9705509083997
2124.6736445772767 1934.43481875095
2125.305040042802 1846.928903710479
2125.936283395191 2079.424573213457
2126.567374670365 2015.2934705157363
2127.198313904233 1908.6697045530614
2127.8291011326855 1868.5848366750088
2128.4597363916037 1828.1940506743128
2129.0902197168507 1944.1748865589834
2129.720551144279 1747.8601255451103
2130.3507307097225 2278.277429147103
2130.980758449008 2343.282299069779
2131.6106343979427 1874.6695871758907
2132.2403585923203 2180.0257603565824
2132.8699310679276 2197.341555649982
2133.499351860526 2170.936125821993
2134.1286210058715 2052.0706987064164
2134.7577385397053 2119.989733917879
2135.3867044977487 2188.079905122864
2136.0155189157176 2175.6761566121622
2136.644181829308 2182.1808684934103
2137.2726932742025 1965.7784762098242
2137.901053286074 2234.479239279416
2138.5292619005777 1789.5362358854704
2139.1573191533535 2007.183065509404
2139.7852250800315 2135.988202722289
2140.4129797162295 2090.1316683951427
2141.0405830975433 1807.3948589610022
2141.6680352595613 1817.3104275846028
2142.2953362378576 1827.265672652898
2142.9224860679915 1711.551832201313
2143.549484785508 1871.3022715259606
2144.1763324259373 1921.2247299510575
2144.803029024799 1910.3702307905944
2145.429574617594 1851.2101759130487
2146.0559692398165 2078.6654109035258
2146.682212926942 1841.4267915835103
2147.308305714432 1859.1807909665513
2147.9342476377333 2178.262139103185
2148.5600387322847 2324.6037564602025
2149.185679033506 2310.730427564344
2149.8111685768017 2011.5706580772307
2150.4365073975678 1847.3283371493173
2151.061695531187 1965.0645052978132
2151.686733013021 2306.7584768809397
2152.311619878423 2008.6231648235766
2152.9363561627342 1886.5500494710218
2153.560941901278 1830.7863945780864
2154.1853771293663 1982.5306350198796
2154.809661882293 1972.5640959814543
2155.433796195348 1883.3255148511478
2156.0577801037944 1793.7419747034023
2156.681613642895 2090.2455192692837
2157.3052968478896 1772.0619532228134
2157.928829754006 2053.2069224166376
2158.552212396462 2086.2078959338614
2159.1754448104566 1970.002110934801
2159.7985270311783 1798.4617465127963
2160.4214590938027 1509.5581733523777
2161.0442410334927 1630.72980600373
2161.6668728853874 1727.6926313115468
2162.289354684628 1824.9034394485357
2162.911686466332 1880.9121937742573
2163.533868265602 2037.998447561992
2164.1559001175337 2228.984363161707
2164.7777820572046 1946.7286606763087
2165.399514119681 1935.2753302859903
2166.021096340013 1879.6099637977163
2166.6425287532384 2132.0495208051207
2167.263811394385 1654.9774533974803
2167.8849442984574 2242.679059945269
2168.505927500455 1737.7911158463764
2169.126761035366 2050.4811576318148
2169.7474449381552 1820.3923596235222
2170.367979243778 1990.3296529378463
2170.9883639871823 2160.810518133101
2171.608599203293 1814.7004812355676
2172.2286849270276 2312.623028448958
2172.8486211932886 2377.55023968367
2173.4684080369625 2022.2321925103138
2174.0880454929265 1684.4047984395497
2174.7075335960417 1675.934212034948
2175.3268723811543 2077.4440966137036
2175.9460618831 1798.0032501259698
2176.565102136701 1885.179710001465
2177.1839931767627 1917.5271770003517
2177.802735038078 1949.9876733395763
2178.421327755432 1794.1615532636301
2179.0397713635866 1727.1985229998675
2179.658065897298 1921.5946123746176
2180.276211391305 2005.4689453835551
2180.8942078803357 1958.329086392128
2181.5120553991 2002.0759928052903
2182.129753982299 1795.1256680995316
2182.7473036646206 1952.8536425041918
2183.3647044807367 2084.109725000999
2183.9819564653044 1750.198065479756
2184.599059652968 2004.2578402236054
2185.216014078367 2086.315140635975
2185.832819776113 2106.4042345802254
2186.4494767808137 2126.420491394477
2187.065985127063 1959.5159672841412
2187.682344849436 1839.4982016467595
2188.298555982501 2184.209115675551
2188.9146185608097 1962.08835847119
2189.530532618901 2022.070330006168
2190.1462981912937 1925.8327072896416
2190.761915312507 1949.2195516704153
2191.377384017036 1779.3714718657059
2191.9927043393654 1913.234263896117
2192.6078763139667 2067.2111612282793
2193.2228999753006 1736.0644617038095
2193.837775357808 1888.8902706469005
2194.452502495922 1747.134711289053
2195.0670814240602 1902.332633853043
2195.6815121766285 1743.823550732448
2196.2957947880186 1725.6764640949968
2196.9099292926057 1707.4987500487532
2197.523915724758 1842.6671278811689
2198.137754118825 1902.4508920129422
2198.7514445091456 2348.3797439157634
2199.3649869300443 2309.6715362523155
2199.9783814158327 2270.9699223113907
2200.5916280008096 2348.4426712008217
2201.2047267192593 2114.536462258743
2201.8176776054515 1931.380184428404
2202.430480693649 1713.0693187836018
2203.0431360180955 2071.1957961794656
2203.6556436130195 1989.0019752736073
2204.268003512645 1531.6666433670223
2204.8802157511727 1697.1355322482912
2205.492280362796 1807.9295757595453
2206.1041973816937 1919.0909504509127
2206.715966842032 2064.9224202619193
2207.3275887779655 1956.9327243943783
2207.93906322363 2056.531246148462
2208.550390213153 1922.4244499249312
2209.1615697806465 2061.0449650436867
2209.7726019602105 1721.540680406942
2210.3834867859277 1739.6689498400087
2210.9942242918787 1780.1740962814176
2211.6048145121167 1847.3879948726244
2212.2152574806914 2416.2752670020704
2212.825553231638 1798.0483985291285
2213.435701798975 2463.7665754506866
2214.045703216707 1972.6961064905604
2214.655557518832 1433.076920602591
2215.2652647393297 1722.1496223366862
2215.874824912169 1485.51786877463
2216.4842380713 1836.7583772753853
2217.09350425067 1735.1810223988246
2217.7026234842033 2019.4118973764023
2218.311595805819 2014.821229355281
2218.9204212494133 1768.8007375543555
2219.52909984888 1681.4719435868224
2220.137631638092 1593.82385700163
2220.7460166509154 2046.6539910822369
2221.354254921198 1684.41516979476
2221.9623464827764 1988.8106176991023
2222.5702913694713 1987.780952111851
2223.178089615096 2050.0202708057677
2223.7857412534486 1805.8279872857297
2224.39324631831 1713.8656545536446
2225.000604843457 1826.4319846958983
2225.607816862641 1979.5233268579632
2226.214882409611 1960.8915220125352
2226.8218015180973 2161.781423917107
2227.4285742218217 1960.7302094950428
2228.0352005544864 2034.2533512582618
2228.6416805497847 1641.5451660942933
2229.248014241399 1884.3323190448543
2229.8542016629945 1605.5896428235887
2230.460242848223 1967.5680906313562
2231.0661378307304 2202.3220846002614
2231.671886644139 1743.39680597447
2232.277489322065 1735.7715164040674
2232.8829458981127 1560.9770529808964
2233.48825640587 1879.109638557873
2234.0934208789095 1958.9418389944192
2234.6984393507955 2038.9124451938121
2235.3033118550793 1861.0424838909646
2235.9080384252975 1853.6506616672916
2236.5126190949723 1811.2806466506772
2237.1170538976166 1742.600125768186
2237.721342866729 1587.5693730835844
2238.32548603579 1828.8645012966467
2238.9294834382763 1760.0428730040414
2239.533335107646 1773.1670140272156
2240.1370410773434 1881.640286263926
2240.740601380803 1610.0580568696535
2241.3440160514474 1822.8967999654099
2241.9472851226783 2199.3218590430815
2242.550408627896 1884.750786395754
2243.1533866004793 2094.0166822491033
2243.756219073799 1899.767994122763
2244.3589060812064 1687.5000634826133
2244.961447656049 1626.9872495818227
2245.5638438316564 1786.6365925783007
2246.166094641343 1883.0137427487837
2246.7682001184166 1452.4151051834945
2247.3701602961664 1750.3283554316397
2247.971975207871 2149.734477497309
2248.5736448867974 1900.8072701268898
2249.175169366197 1914.4694826224545
2249.7765486793123 1871.5034922051152
2250.3777828593684 1825.3594090942781
2250.9788719395783 1989.151178348182
2251.579815953146 1904.0168130602815
2252.1806149332606 1875.3891871963356
2252.781268913097 1767.5375163954213
2253.381777925817 1949.386261592253
2253.9821420045737 1856.3853263182002
2254.5823611825035 1797.7088487501223
2255.1824354927303 1905.1480390568165
2255.782364968365 1767.1323558697254
2256.38214964251 1628.9807133107456
2256.9817895482483 1592.688461794657
2257.5812847186553 1720.0287527853445
2258.180635186791 1653.8149036385792
2258.779840985704 1844.681848114639
2259.37890214843 1891.4423581259532
2259.97781870799 2057.318059357758
2260.5765906973957 2136.0596077035793
2261.175218149645 2059.4991288931624
2261.773701097718 2041.6736164146994
2262.3720395745895 1533.978654409624
2262.970233613216 1768.2240339281932
2263.568283246548 1911.9295649861815
2264.1661885075137 1661.818223099976
2264.763949429038 1625.089657869737
2265.3615660440246 1928.1681913232126
2265.959038385374 1695.6799783876318
2266.5563664859637 1935.4704178179386
2267.153550378669 1661.7227191826303
2267.7505900963424 1932.5030449604753
2268.3474856718312 1766.6952119031932
2268.9442371379664 1727.2528925311872
2269.5408445275643 1700.0315084421006
2270.1373078734377 1908.1205691150765
2270.7336272083758 1819.9049744432348
2271.32980256516 1792.7371947257714
2271.925833976562 1952.4750814207812
2272.5217214753357 2061.8587325235667
2273.117465094223 1626.1656220786715
2273.7130648659586 1549.3526764317328
2274.308520823257 1760.1622117076508
2274.903832998827 1928.2458739161389
2275.4990014253563 1991.7887552049076
2276.094026135528 2055.4161897071685
2276.6889071620117 1800.8610241858423
2277.2836445374614 1635.4458466904894
2277.878238294519 1895.2017013368072
2278.472688465812 1689.9246757802043
2279.066995083962 1484.2806256084334
2279.6611581815705 1744.3639406685998
2280.255177791232 1647.892685914212
2280.8490539455233 2085.6720181379233
2281.442786677013 2140.3104250105926
2282.0363760182554 1991.349867921665
2282.6298220017943 1680.2515175224435
2283.223124660155 1639.1476418439222
2283.816284025859 1598.043056147723
2284.4093001314086 1999.956888665022
2285.002173009292 1723.809547292789
2285.5949026919952 1852.7206825652568
2286.1874892119777 1843.8836257719922
2286.7799326016993 1805.116974939919
2287.3722328936 1509.9715414569887
2287.964390120109 1454.8200773815502
2288.556404313642 2125.3660472896477
2289.1482755066027 2309.9819376055966
2289.7400037313873 1824.4751322058678
2290.3315890203703 1781.7107639851788
2290.9230314059205 1697.8205729232873
2291.5143309203904 1613.8471655639719
2292.1054875961236 1651.654535373046
2292.6965014654506 2223.403398356027
2293.287372560684 1577.1574956721015
2293.878100914131 1591.511550077035
2294.468686558086 1605.9475041802878
2295.059129524827 1615.671924530681
2295.649429846617 1610.275919621737
2296.239587555716 1604.8223361592732
2296.8296026843636 1730.916464672668
2297.419475264791 1789.2817817726452
2298.0092053292137 1847.6447694162312
2298.598792909839 1969.1908449121772
2299.1882380388597 1820.1956425634585
2299.777540748455 2097.084650934682
2300.3667010707904 1732.8584046299452
2300.9557190380256 1982.5434749480294
2301.544594682302 1803.0396798445818
2302.1333280357503 1623.3147584192648
2302.721919130485 1797.7531593947413
2303.3103679986198 2292.475165124261
2303.898674672242 2089.7409870133915
2304.486839183437 1560.0413408467386
2305.0748615642697 1698.523067467002
2305.6627418468015 1824.5369183853898
2306.2504800630704 1629.4911849213481
2306.8380762451143 1922.4496415152175
2307.425530424949 1918.9941292239503
2308.012842634582 1915.5157376593233
2308.6000129060103 2045.8903867030847
2309.187041271214 2256.1735219493053
2309.773927762164 1816.3838203699208
2310.3606724108213 2111.6552539646727
2310.9472752491274 1634.8797811719091
2311.5337363090184 1819.7294678291007
2312.120055622414 1694.5077277949226
2312.706233221221 1732.6257906537492
2313.2922691373424 1988.74067172572
2313.8781634026564 1671.2810161332266
2314.463916049037 1844.1313571446667
2315.049527108342 1806.876472457801
2315.6349966124235 2055.9746253249946
2316.2203245931123 1792.9822107391278
2316.8055110822315 1960.8701333609727
2317.3905561115935 1768.9492841727783
2317.9754597129977 1577.4125313139289
2318.560221918229 1560.9704483144537
2319.1448427590603 1544.525065392981
2319.729322267256 1566.272301528361
2320.313660474563 1624.7093809232927
2320.8978574127195 1811.501393898384
2321.481913113452 1998.8780797191625
2322.0658276084705 1672.982941511217
2322.6496009294806 1615.2047794779412
2323.233233108165 1640.9277787165242
2323.8167241762058 1666.6931097045958
2324.4000741652617 1762.9273431081322
2324.983283106987 1975.211906558047
2325.5663510330232 1920.406146228384
2326.1492779749933 1641.301770403829
2326.7320639645204 1902.4422739331087
2327.3147090332004 1591.964276692251
2327.897213212629 1688.4973232007692
2328.4795765343843 1785.0347246685826
2329.0617990300307 1757.4003087948608
2329.643880731124 2103.5250731692317
2330.22582166921 1690.3097534939964
2330.807621875816 1488.3360274529396
2331.3892813824623 1286.1672596990586
2331.9708002206517 1518.088199695248
2332.5521784218818 1718.2838405649752
2333.133416017634 1723.4518324288679
2333.7145130393765 1745.694776502261
2334.295469518571 2003.1334635697317
2334.876285486658 1933.6863481757132
2335.456960975076 1851.3092700838756
2336.037496015242 1768.7801229278662
2336.6178906385667 1647.59228818163
2337.198144876451 1781.4439123300053
2337.778258760278 1769.8147940717995
2338.3582323214214 1789.9237128468935
2338.938065591243 1810.0344290260946
2339.517758601087 2056.4802775921976
2340.0973113822965 1865.7127270449062
2340.676723966193 1762.444194144582
2341.255996384094 2023.2525078961328
2341.835128667295 2141.1172831429626
2342.4141208470883 2106.9587553957067
2342.992972954751 1752.3234023323184
2343.5716850215467 1833.8478939957993
2344.1502570787306 1250.8107400357228
2344.7286891575386 1604.600352761031
2345.3069812892045 2052.804862765803
2345.885133504944 1849.1251965539664
2346.4631458359618 1697.2373262732697
2347.04101831345 1560.7158277242145
2347.6187509685915 1675.0127256596475
2348.196343832553 1710.9156755648103
2348.7737969364935 1839.3806884701548
2349.351110311558 1510.4189078023276
2349.9282839888765 1483.4486029246978
2350.5053179995757 1622.667965264984
2351.0822123747585 1545.1280812329862
2351.658967145526 2035.1265159154384
2352.2355823429643 1498.6336709297464
2352.812057998144 1929.9766564344543
2353.3883941421263 1684.1793408506842
2353.9645908059647 1645.4602698560714
2354.540648020693 1780.9965137294134
2355.116565817336 1885.1482656906605
2355.6923442269126 1559.9738928866443
2356.2679832804224 1656.1744437554466
2356.8434830088518 1606.6788789005434
2357.41884344318 1742.846150254407
2357.994064614377 1593.9851194230935
