#exp_cfg={"servo_angle": 0.0, "laser_lim": 100.0, "servo_angle_to": 18.0, "laser_wup": 0.0, "bt_dev": "EnSpectr-25AE3", "laser_wdn_max": 0.0, "frames": 10.0, "servo_used": 0, "servo_calib_use": 0, "laser_wdn_min": 0.0, "servo_pix_from": 90.0, "cooler_tout": 300.0, "servo_angle_from": 0.0, "servo_calib": "[-1.9174921013161362e-09, 3.9322238269163779e-05, -0.27385609119055809, 653.59552119713567]", "laser_autoctl": 0, "servo_pix_to": 3682.0, "laser_pw": 100.0, "cooler_on": 0, "laser_volt": 4.0, "cooler_autoctl": 0, "cooler_curr": 70.0, "cooler_startup": 10.0, "laser_fixed_pw": 0, "gain": 1.3, "offset": 2.53059635486, "servo_calib_degree": 3.0, "laser_curr": 55.0, "shutter": 8200.0, "servo_calib_step": 1.0, "laser_fixed_curr": 0, "exp": 2000.0, "ccd_volt": 4.7, "bt_addr": "00:06:66:62:5A:E3", "servo_delay": 500.0, "laser_autooff": 1}
#proc_cfg={"flat_auto_wnd": 200.0, "flat_auto_fr": 200.0, "flat_auto_shift": 5.0, "yconv": 1, "flatten": 1, "flatten_strength": 100.0, "xfrom": 300.0, "auto_max_frame": 2000.0, "auto_signal": 48000.0, "flat_auto_tol": 0.1, "autoclip": 1, "xrel_range": 0.0, "flat_auto_to": 4000.0, "intensity_adj": 1.0, "xrel": 7852.0, "rmhot": 1, "flat_auto_slit": 4.999999999999997, "auto_ini_exp": 300.0, "auto_off": 0, "xto": 2860.0, "flat_auto_ref": "", "flat_auto_rank": 1, "autobackg": 0, "xrel_adj": 0.0, "auto_black_lvl": 1, "base_wnd": 100.0, "sub_baseline": 0, "xconv": 2, "auto_max_exp": 1000.0, "auto_total_exp": 10000.0, "auto_exp": 0, "rmripple": 0, "black_lvl": 8256.228125, "shutter_clip_adj": 0.0, "auto_bckg": 0, "flat_auto_thr": 0.9, "subbackg": 1}
316.8218498245369 13711.897468736828
317.89969571804795 13438.174369699676
318.977263876126 13576.481273473051
320.05455438786703 13364.207291047327
321.1315673423287 13375.076940836032
322.2083028285215 13432.469420058438
323.2847609354267 13293.29382724468
324.3609417519747 13324.831737417795
325.43684536705587 13226.691869018858
326.5124718695279 13246.420050678227
327.58782134820103 13198.320087725762
328.66289389184385 13204.10195325119
329.7376895891921 13027.826517139827
330.8122085289342 13100.547355154891
331.88645079971866 13056.571333430447
332.9604164901575 12949.674658830027
334.03410568881554 12920.730001971244
335.1075184842266 13033.854105600816
336.18065496487543 12938.891896338293
337.2535152192122 12927.327295146328
338.32609933564163 12941.174247847106
339.39840740253203 12883.465733925852
340.4704395082099 12848.043156798463
341.5421957409617 12773.128294228027
342.6136761890357 12847.873257001454
343.6848809406365 12785.507541832663
344.75581008392874 12633.250721906308
345.82646370703696 12616.344408298079
346.8968418980512 12660.904614794308
347.96694474501055 12700.933685666309
349.0367723359268 12594.963330110304
350.106324758759 12553.50977267855
351.1756021014353 12498.883266371955
352.2446044518383 12409.7609405398
353.31333189781435 12512.841813837238
354.38178452716966 12455.49395752444
355.449962427665 12421.917806648997
356.51786568702846 12320.713799491221
357.58549439294256 12391.26023246642
358.6528486330535 12257.384383261884
359.71992849496564 12250.556566321891
360.7867340662433 12344.288060309784
361.8532654344144 12294.849550768837
362.9195226869597 12273.69490683169
363.9855059113288 12114.811700759079
365.05121519492604 12153.173403400424
366.11665062511565 12104.278926736206
367.1818122892273 12041.224885278134
368.2467002745434 12100.590260342928
369.31131466831175 11989.603108153768
370.375655557742 12023.018991108996
371.4397230299983 11979.174152518814
372.5035171722102 11862.012609992586
373.5670380714637 11850.463508981382
374.6302858148101 11952.758807273069
375.6932604892554 11868.645570396908
376.7559621817709 11907.169535836532
377.81839097928605 11733.780575767309
378.8805469686886 11796.940974697785
379.94243023683157 11896.181142758387
381.0040408705263 11748.389810715747
382.0653789565458 11658.108549199063
383.1264445816196 11705.780069256223
384.1872378324406 11723.096327882447
385.2477587956637 11689.726008846796
386.3080075579037 11581.621822461819
387.3679842057336 11539.391535110322
388.4276888256918 11599.761839084696
389.48712150426945 11543.097555602935
390.54628232792857 11580.821253735518
391.6051713830857 11490.880110948052
392.66378875611736 11581.288479185867
393.7221345333637 11472.050829934899
394.7802088011249 11419.934571207885
395.838011645661 11476.127150910954
396.89554315319765 11396.24043003358
397.9528034099112 11411.789147584741
399.00979250194723 11283.61228739288
400.06651051541485 11366.356683733775
401.1229575363741 11409.110944874308
402.17913365085224 11358.995356519712
403.23503894483656 11386.509253317332
404.2906735042761 11288.479935092644
405.3460374150818 11279.641155903397
406.401130763119 11299.250363787536
407.455953634224 11255.93595121647
408.5105061141876 11274.538320894702
409.56478828876243 11099.815446333396
410.6188002436629 11150.935769230902
411.6725420645689 11144.790086759185
412.72601383711117 11138.110685562717
413.77921564689314 11141.74898433514
414.8321475794728 11112.436621771983
415.88480972036814 11034.710799094628
416.93720215506437 11015.233274641549
417.9893249690049 10980.785038820084
419.04117824759123 10934.95175980954
420.09276207619223 10969.820380987278
421.144076540133 10952.439622531416
422.1951217247042 10948.903231249937
423.24589771515275 10951.366700583862
424.2964045966928 10916.469702656981
425.34664245449494 10893.467709973782
426.3966113736933 10853.926734133402
427.4463114393875 10840.515801211597
428.49574273662984 10882.329785245596
429.5449053504417 10784.587574187619
430.5937993658026 10909.747810197294
431.6424248676558 10805.575431404002
432.6907819409007 10846.059774428257
433.73887067040596 10834.438398577902
434.7866911409965 10814.410528426897
435.8342434374608 10822.35980177343
436.88152764455117 10729.748733326043
437.9285438469724 10801.433782071523
438.9752921294057 10693.733748153447
440.02177257648145 10813.762833787774
441.06798527279716 10705.1131668062
442.1139303029122 10854.445399965965
443.1596077513459 10804.267248907554
444.2050177025794 10797.510667805596
445.25016024105753 10727.766961723388
446.2950354511886 10754.454379404231
447.33964341733736 10753.431311657452
448.383984223834 10715.585590958653
449.4280579549686 10652.975455476922
450.471864694995 10747.178789947639
451.5154045281306 10686.697514898873
452.5586775385509 10735.376525808213
453.60168381039693 10664.169521648559
454.64442342776783 10923.72352846315
455.6868964747264 10784.52174626044
456.7291030353008 10744.984288753662
457.77104319347563 10773.045619171971
458.8127170332027 10742.613145449652
459.854124638392 10810.544124596332
460.895266092919 10871.45298385377
461.93614148061897 10977.670054944956
462.97675088529104 10942.657184765583
464.01709439069236 10970.809017359239
465.0571720805492 10985.359521404973
466.0969840385442 10978.349084016623
467.1365303483253 11073.525522357486
468.17581109350067 11057.476623555516
469.2148263576437 11069.842110242002
470.2535762242878 11125.809106385737
471.29206077693016 11139.37084946474
472.33028009902773 11149.652366379467
473.3682342740012 11054.396879161035
474.40592338523857 11071.180941720188
475.4433475160804 11070.87099726963
476.4805067498364 10988.114411733963
477.51740116978 10898.167192468833
478.5540308591426 10952.71762903109
479.59039590112116 11007.083582936906
480.6264963788726 10896.835460341394
481.6623323755193 10894.031911003785
482.6979039741436 10830.676417011862
483.7332112577915 10828.36581910191
484.76825430947247 10809.122668207076
485.80303321215797 10750.697290379981
486.837548048783 10694.259243923796
487.8717989022425 10686.394686425403
488.90578585539697 10527.770078823256
489.9395089910686 10697.726500655543
490.97296839203955 10562.080660916507
492.00616414106116 10483.279100072965
493.0390963208429 10470.17994472859
494.0717650140559 10488.011310300473
495.10417030333883 10416.499650461825
496.1363122712901 10401.784730070514
497.16819100046814 10283.924483257088
498.1998065734024 10282.79218484418
499.2311590725767 10305.18296607397
500.26224858044407 10239.70145638992
501.2930751794156 10194.118828648729
502.3236389518679 10193.826879763177
503.35393998014115 10063.47862463591
504.38397834653733 10109.964930532564
505.4137541333221 10191.37492413563
506.4432674227228 10064.894832206968
507.4725182969323 10013.674136641568
508.5015068381035 10027.814649025811
509.53023312835467 10106.033591882622
510.55869724976765 10012.065865652641
511.58689928438434 10017.644185000572
512.6148393142121 9904.327772512648
513.6425174212218 9993.704504815261
514.6699336873462 9984.67891809021
515.6970881944835 9983.205751155376
516.7239810244901 9852.09976385118
517.7506122591931 9893.991446683893
518.7769819803761 9904.846091655201
519.8030902697901 9918.802508208795
520.8289372091476 9857.274957629976
521.8545228801249 9951.57972347484
522.8798473643619 9888.95624248491
523.9049107434621 9891.354577585214
524.9297130989908 9873.206429604254
525.9542545124805 9849.38568856309
526.9785350654201 9883.818682248628
528.0025548392696 9926.725170865193
529.0263139154504 9761.13442079547
530.0498123753423 9813.871917154556
531.073050300296 9892.134889261552
532.0960277716204 9746.025409824853
533.1187448705896 9824.601092016015
534.1412016784416 9843.60690792541
535.1633982763833 9845.625728688145
536.1853347455726 9769.445375938263
537.2070111671401 9875.535530861485
538.2284276221817 9762.611506529207
539.2495841917516 9753.094104657157
540.2704809568677 9624.392149435416
541.2911179985167 9742.14652353396
542.3114953976419 9715.746647111468
543.3316132351592 9651.802508608325
544.3514715919409 9605.933537510704
545.3710705488247 9716.440571361556
546.3904101866156 9742.355400020144
547.4094905860784 9767.018930445785
548.4283118279418 9748.630874332866
549.4468739929034 9773.356619870667
550.4651771616191 9721.942706058097
551.4832214147063 9654.419750295843
552.501006832761 9711.199680524747
553.5185334963226 9694.177345158627
554.5358014859103 9769.484474893716
555.5528108820035 9759.210442512307
556.5695617650363 9627.707414147797
557.5860542154242 9719.838304045914
558.6022883135283 9802.848171015268
559.6182641396881 9648.689717813833
560.6339817741991 9709.847686898891
561.6494412973225 9658.556395286592
562.6646427892883 9707.734022983404
563.6795863302796 9567.007207477978
564.694272000459 9609.842968304321
565.7086998799423 9626.309991148632
566.7228700488104 9510.13387860073
567.7367825871115 9387.355214288777
568.7504375748576 9441.936397183656
569.7638350920224 9314.501420601711
570.7769752185486 9294.288538052768
571.7898580343353 9303.192485990108
572.802483619258 9184.248443342709
573.8148520531431 9411.865641796807
574.8269634157932 9255.07973330132
575.8388177869692 9233.472838276555
576.8504152463938 9166.777927215739
577.8617558737587 9243.230266428265
578.8728397487175 9156.866545289073
579.883666950891 9089.571532982476
580.8942375598654 9208.037699959033
581.9045516551851 9164.719331867058
582.9146093163617 9344.285107172
583.924410622878 9139.886652060397
584.9339556541727 9136.678280991613
585.9432444896538 9177.982286632694
586.9522772086875 9081.491662550117
587.9610538906127 9179.036929054031
588.9695746147318 9110.713979077249
589.9778394603054 9142.233329169832
590.985848506567 9034.247321456962
591.9936018327098 9021.27438233788
593.0010995178891 8892.311403104955
594.0083416412344 9031.871876452537
595.0153282818283 8910.306916033334
596.0220595187293 8949.10693078365
597.0285354309508 8875.839979347562
598.0347560974806 8939.991544334842
599.0407215972609 8840.239870947353
600.0464320092051 8851.133588044586
601.0518874121954 8830.49030755796
602.0570878850685 8851.879009059388
603.062033506636 8818.498052395124
604.0667243556636 8875.701048427047
605.0711605108936 8816.525899250095
606.0753420510264 9001.462996645289
607.0792690547278 8904.982385422936
608.082941600629 8861.34797348567
609.0863597673306 8896.015901717512
610.0895236333909 8938.202444693543
611.0924332773357 9095.709819843843
612.0950887776617 8995.027014706091
613.0974902128219 9089.33506313129
614.0996376612384 9198.324314383672
615.1015312013005 9235.762699688716
616.1031709113595 9280.794429539292
617.1045568697336 9225.32108642309
618.1056891547069 9274.989571495184
619.1065678445229 9388.195972601523
620.1071930173985 9549.084452994279
621.1075647515099 9516.264101636998
622.1076831250048 9358.626713456832
623.1075482159849 9458.668763520735
624.1071601025305 9442.551282428803
625.1065188626781 9448.276497734047
626.105624574433 9513.05204648541
627.1044773157682 9424.441686499571
628.1030771646128 9352.111702534188
629.1014241988742 9428.986105186741
630.0995184964158 9426.530856106412
631.0973601350688 9474.415907176814
632.0949491926294 9485.076211740268
633.0922857468631 9451.908407954597
634.089369875499 9504.314543388395
635.0862016562278 9482.546560510169
636.0827811667077 9394.042937097458
637.0791084845641 9512.148593506578
638.0751836873878 9358.803527897504
639.0710068527369 9475.266107115596
640.0665780581294 9400.287676476657
641.0618973810506 9433.456542235437
642.0569648989604 9462.486619286938
643.0517806892676 9368.76419951016
644.0463448293649 9384.421354750597
645.040657396592 9355.09461848004
646.0347184682723 9310.387259944795
647.0285281216875 9197.030709453862
648.0220864340772 9151.146063737733
649.0153934826558 9140.072605243698
650.0084493446047 9101.482092708306
651.0012540970674 9113.79336297743
651.9938078171526 8984.12490934681
652.9861105819346 9053.935757299401
653.9781624684565 9151.77919351326
654.9699635537254 8940.543973177662
655.9615139147136 9053.093284637085
656.9528136283589 8875.990417336568
657.9438627715699 9018.81988830771
658.9346614212154 8919.87002524595
659.925209654135 8749.456201479139
660.9155075471263 8750.795445688858
661.9055551769616 8798.83206160256
662.895352620375 8953.750257388367
663.8848999540678 8699.985180444637
664.8741972547068 8704.471418493196
665.863244598926 8681.498012494983
666.8520420633213 8724.659351124636
667.8405897244611 8619.650039640681
668.8288876588758 8648.105168986358
669.8169359430613 8704.570111060335
670.8047346534822 8773.034562620485
671.7922838665672 8593.726295157849
672.7795836587156 8688.290616897339
673.766634106285 8799.236649854114
674.7534352856092 8656.749799044159
675.7399872729766 8569.201762654933
676.7262901446538 8657.144398977902
677.712343976862 8564.443383651454
678.6981488457986 8661.684282764745
679.6837048276229 8524.997260694941
680.6690119984596 8560.740895690997
681.6540704344043 8607.763874776922
682.6388802115107 8475.200473249659
683.6234414058108 8562.510681147749
684.6077540932874 8497.729300905597
685.591818349907 8557.263719805469
686.575634251587 8540.629775538324
687.5592018742263 8422.093238123216
688.5425212936734 8373.102770670917
689.5255925857564 8423.003087802688
690.5084158262707 8467.721862639799
691.4909910909646 8369.578681465924
692.4733184555644 8387.611366695384
693.4553979957618 8510.358822732347
694.4372297872123 8420.179635976845
695.4188139055404 8464.285769255966
696.4001504263324 8403.843731038396
697.3812394251509 8588.005679456355
698.3620809775111 8637.13939103388
699.3426751589104 8534.68187999677
700.3230220448004 8553.490505337519
701.3031217106054 8632.79560863927
702.2829742317172 8758.878274801555
703.2625796834873 8627.214173581016
704.2419381412474 8693.944310109891
705.22104968028 8785.095080005392
706.1999143758458 8851.472436107662
707.178532303169 8973.42792807821
708.1569035374378 9146.546739703143
709.1350281538107 9254.674096375586
710.1129062274158 9382.687670257055
711.0905378333373 9615.157401077862
712.0679230466376 9719.146055716703
713.0450619423427 10005.656212224505
714.0219545954424 10289.749424781618
714.9986010808989 10353.075392977815
715.9750014736292 10507.883434047075
716.9511558485392 10801.464070659147
717.9270642804786 11055.03818506929
718.9027268442787 11108.434313121972
719.8781436147328 11141.08316852351
720.8533146666014 11090.232196245472
721.828240074612 11086.8902778613
722.8029199134635 11051.186011055153
723.7773542578125 10793.582802352823
724.751543182294 10705.376237927601
725.7254867615029 10525.886784652728
726.6991850700015 10227.319524909359
727.6726381823228 10169.841423237722
728.6458461729599 10104.598948739409
729.6188091163858 10088.118399598916
730.5915270870246 9996.5720655571
731.5640001592856 9984.030726608271
732.536228407529 10080.888245662663
733.5082119060917 10191.25984677597
734.4799507292755 10212.780588306181
735.4514449513481 10229.25849318776
736.4226946465496 10311.483873334491
737.3936998890786 10309.648154136852
738.3644607531078 10098.673577400044
739.3349773127793 10039.998662031961
740.3052496421951 9929.666992699124
741.27527781543 9641.766232775311
742.2450619065221 9442.632271733328
743.2146019894826 9309.629792807176
744.183898138288 9116.754352270602
745.1529504268801 8873.223168732855
746.1217589291682 8600.2875503986
747.0903237190341 8478.508161021415
748.058644870318 8460.930425115355
749.0267224568397 8287.993049686569
749.994556552374 8070.794229858625
750.9621472306771 8076.432740045418
751.9294945654583 8019.9226306559285
752.8965986304011 8010.248314672977
753.8634594991636 7870.050920288258
754.8300772453586 7890.308575534518
755.7964519425768 7825.456688678145
756.762583664371 7827.618455036039
757.7284724842611 7837.0322800142985
758.6941184757416 7748.821355983494
759.6595217122667 7708.701881586943
760.6246822672638 7702.646105506348
761.5896002141235 7599.436007421578
762.5542756262093 7644.7486315907645
763.5187085768503 7596.138157072617
764.4828991393406 7625.580207582754
765.4468473869474 7577.78099943963
766.4105533929032 7679.718334721751
767.3740172304078 7561.6345982352195
768.3372389726283 7676.307640900201
769.3002186926988 7509.417970565628
770.2629564637282 7516.733703972696
771.2254523587872 7486.223966456372
772.1877064509154 7478.091375598922
773.1497188131179 7423.901236698189
774.1114895183728 7389.530271362902
775.0730186396268 7379.440174027239
776.0343062497905 7400.415812499031
776.9953524217381 7322.300873581922
777.9561572283274 7368.309636194919
778.9167207423689 7406.823930725174
779.8770430366476 7356.736704074373
780.8371241839159 7357.032120486083
781.7969642568951 7261.897685731919
782.7565633282757 7506.375875361038
783.7159214707099 7332.358453880112
784.6750387568281 7374.7682459416
785.6339152592227 7278.51067316815
786.5925510504512 7228.491462376509
787.5509462030477 7402.501114369377
788.5091007895098 7272.340122170979
789.4670148823006 7256.545663831135
790.4246885538596 7306.876544869313
791.3821218765861 7287.776423188016
792.3393149228505 7164.673014189156
793.2962677649975 7261.467698644769
794.2529804753303 7291.3342838144035
795.20945312613 7330.49277203646
796.1656857896378 7240.580289537449
797.1216785380675 7144.272978870535
798.0774314435985 7262.112385978068
799.0329445783846 7307.326194398389
799.9882180145414 7222.692563191567
800.9432518241574 7237.020221931019
801.89804607929 7228.479055589615
802.852600851962 7209.201828058685
803.8069162141637 7255.760818474865
804.760992237856 7286.45689005468
805.714828994971 7320.131590810406
806.6684265574077 7316.613946144021
807.6217849970271 7237.512868889826
808.574904385674 7223.899640364216
809.527784795142 7286.514451809902
810.4804262972102 7320.975820369507
811.4328289636178 7201.966694891537
812.3849928660748 7152.528328745449
813.3369180762638 7184.864516722856
814.2886046658241 7173.508487733557
815.2400527063783 7098.748722429607
816.1912622695108 7096.105163858125
817.1422334267718 7114.630620901834
818.0929662496856 7047.652841363057
819.0434608097457 6938.738593246528
819.9937171784059 7048.081541562266
820.9437354271013 6977.3341084581525
821.8935156272255 7126.361928579283
822.8430578501484 6991.991181930003
823.7923621672016 6866.587140672814
824.7414286496896 6929.741301563146
825.6902573688876 7010.811042876902
826.6388483960363 6932.934717298858
827.5872018023492 6849.221582917193
828.5353176590033 6933.177400425341
829.4831960371503 6829.536587544145
830.4308370079016 6886.9397903618865
831.3782406423525 6955.852283904418
832.3254070115545 6856.666110408737
833.2723361865319 6819.373691252144
834.2190282382799 6757.135545971903
835.1654832377644 6902.875248540806
836.1117012559116 6748.383278693279
837.0576823636256 6896.196805829231
838.003426631778 6721.426799701611
838.9489341312074 6688.8889544379
839.8942049327197 6819.839609939624
840.8392391070975 6888.938235861629
841.7840367250865 6793.083789582871
842.7285978573982 6780.766205241722
843.672922574724 6877.277986453507
844.6170109477152 6834.346423012398
845.560863046996 6659.635997288038
846.5044789431595 6687.653853292492
847.4478587067697 6743.994666593782
848.3910024083561 6829.342756210921
849.333910118421 6740.076131789907
850.2765819074339 6695.030139223706
851.2190178458332 6770.227035369775
852.161218004032 6758.928869440892
853.1031824524016 6767.817061432397
854.0449112612987 6707.733473235989
854.9864045010327 6736.928083040044
855.9276622418947 6660.86461242923
856.8686845541379 6658.971996364376
857.8094715079915 6717.108841148407
858.7500231736467 6741.036528234859
859.690339621271 6732.508691013216
860.6304209209939 6694.522810400241
861.5702671429244 6624.700050081579
862.5098783571284 6651.177014324513
863.4492546336569 6677.956024926995
864.3883960425155 6638.31456811868
865.3273026536863 6597.811746851878
866.2659745371238 6528.303672090886
867.2044117627465 6704.03492541974
868.1426144004472 6550.949831027412
869.0805825200823 6609.219714663466
870.0183161914847 6577.910237865728
870.9558154844526 6698.775695570899
871.8930804687552 6544.569562358659
872.8301112141307 6540.832147034074
873.7669077902865 6632.358268193066
874.7034702669062 6680.563466764244
875.6397987136315 6641.139673472449
876.5758932000863 6599.442678440704
877.5117537958522 6685.769328093018
878.4473805704911 6618.601108047183
879.3827735935283 6556.008739399101
880.3179329344603 6624.083432725643
881.2528586627541 6679.931963041308
882.1875508478479 6692.243100151182
883.1220095591489 6534.86402579383
884.0562348660296 6588.029739275461
884.9902268378391 6650.12224438587
885.9239855438955 6560.559615421087
886.8575110534839 6522.99275814402
887.7908034358588 6545.9136811959415
888.7238627602474 6533.932623140188
889.6566890958475 6581.868161889118
890.5892825118208 6457.904629753869
891.5216430773125 6558.179649534308
892.4537708614189 6567.296979938944
893.3856659332196 6501.439518331542
894.3173283617652 6461.507199580145
895.2487582160684 6550.4963742052905
896.179955565116 6500.10943786773
897.110920477864 6420.683438981456
898.0416530232451 6379.799165737162
898.9721532701478 6369.057141982097
899.9024212874428 6499.108538764399
900.8324571439662 6334.172290222522
901.7622609085302 6431.391761116281
902.6918326499072 6293.9940635132725
903.6211724368477 6440.141478050557
904.5502803380696 6473.043717715196
905.4791564222614 6488.805031532735
906.4078007580792 6408.308696436356
907.3362134141571 6443.930596158643
908.2643944590909 6486.293610427207
909.1923439614493 6396.034902371249
910.1200619897754 6460.776862257463
911.0475486125779 6577.651659618101
911.9748038983344 6550.166875049074
912.9018279155007 6428.062548945445
913.8286207324982 6404.837631560991
914.7551824177117 6487.302380599782
915.6815130395116 6489.18592072295
916.6076126662283 6330.812285066626
917.533481366163 6397.586255257047
918.4591192075914 6386.783410196118
919.3845262587565 6523.460119461366
920.3097025878706 6386.446939835309
921.2346482631237 6380.582613477078
922.1593633526682 6379.989736757591
923.0838479246304 6438.56229300405
924.0081020471061 6434.731614111209
924.9321257881656 6266.682793468412
925.8559192158464 6361.391624942096
926.7794823981512 6294.528748055746
927.7028154030686 6180.241673130078
928.6259182985414 6194.3052255937655
929.5487911524906 6271.829030410122
930.4714340328119 6306.0308266363245
931.3938470073608 6140.930234755864
932.3160301439748 6263.178596956832
933.2379835104548 6235.6765362487085
934.1597071745709 6323.3995415462605
935.0812012040769 6250.895292380543
936.002465666681 6280.313410350739
936.9235006300696 6290.382795962533
937.8443061619055 6251.014382694114
938.7648823298077 6137.0709696357735
939.6852292013809 6173.525108509244
940.6053468441951 6284.961912907543
941.5252353257874 6209.296525550193
942.4448947136698 6333.794120195026
943.364325075323 6235.939459512304
944.2835264782043 6329.907902981711
945.2024989897309 6217.617689717043
946.1212426773054 6254.035561064084
947.0397576082851 6355.236295662149
947.9580438500125 6433.130488910131
948.8761014697939 6367.786709570457
949.7939305349064 6396.879553301581
950.7115311125999 6295.265324830975
951.6289032700952 6311.172459606145
952.5460470745875 6463.168659913845
953.4629625932339 6310.514853929457
954.3796498931715 6390.001415403809
955.2961090415029 6440.799507807001
956.2123401053068 6370.751744580026
957.1283431516276 6320.449621511188
958.0441182474842 6271.65326468223
958.9596654598663 6422.985580398604
959.8749848557309 6318.515545106423
960.7900765020167 6220.973433655452
961.7049404656209 6226.334865782876
962.6195768134185 6285.054273283413
963.5339856122537 6323.097585015407
964.4481669289453 6242.984268343838
965.3621208302793 6158.5628537058765
966.2758473830145 6195.832638962696
967.1893466538822 6354.297271172578
968.1026187095813 6211.337339265002
969.0156636167867 6163.713697399917
969.9284814421426 6202.565864841512
970.8410722522622 6234.72502485269
971.753436113735 6102.632569081484
972.6655730931161 6156.993838309098
973.5774832569368 6187.355073439929
974.4891666716958 6093.471074007488
975.4006234038698 6052.302147547231
976.3118535198955 6087.386657270986
977.2228570861935 6186.283471120676
978.1336341691494 6164.856560272841
979.0441848351202 6011.28097236845
979.9545091504333 6087.262662272797
980.864607181391 6142.691967733542
981.7744789942699 6105.478006658015
982.6841246553086 6083.016997518884
983.5935442307236 6092.566255056002
984.5027377867027 6109.19685239601
985.4117053894024 6010.291216373324
986.3204471049557 5970.163066291154
987.2289629994648 6143.199842810494
988.1372531390007 6132.583056157349
989.0453175896091 6048.892258651251
989.9531564173067 6096.845222383766
990.860769688079 6030.672936828766
991.7681574678918 6041.831073007435
992.6753198226706 6069.122621653451
993.582256818323 5991.4589061450915
994.4889685207218 5989.78402206028
995.3954549957143 6124.770886371384
996.301716309119 6047.715624317039
997.2077525267232 5954.785164421044
998.1135637142943 6000.070762757738
999.0191499375615 6096.117319856906
999.924511262232 6040.0378304607275
1000.8296477539861 6034.7076683658
1001.7345594784656 5944.2110722958605
1002.6392465012996 5953.718561648381
1003.5437088880753 6045.250040241577
1004.4479467043584 5990.94148921828
1005.3519600156869 5889.219104595883
1006.2557488875718 6025.157346736642
1007.1593133854858 5928.715197193179
1008.0626535748888 5866.181369575421
1008.9657695212009 5764.6691988992225
1009.8686612898182 5968.129490325382
1010.7713289461135 5969.368751819553
1011.6737725554212 5851.386458506339
1012.5759921830577 5880.319978102712
1013.4779878943027 5853.022405116253
1014.379759754418 5928.067066679609
1015.2813078286254 5849.7802515844705
1016.18263218213 5778.242006822199
1017.0837328801026 5818.861048626706
1017.9846099876886 5902.500793994001
1018.8852635700023 5808.873948578781
1019.7856936921362 5715.736997766953
1020.6859004191447 5904.52500993619
1021.5858838160675 5860.61370456939
1022.4856439479063 5811.336637239523
1023.3851808796389 5723.008524642725
1024.2844946762143 5875.877785530001
1025.183585402554 5858.579852109265
1026.082453123554 5684.896974263664
1026.9810979040776 5780.652308130991
1027.8795198089647 5706.9672461174605
1028.777718903024 5796.493219409996
1029.6756952510368 5750.492115809671
1030.5734489177648 5735.68232775069
1031.4709799679313 5728.262332036574
1032.3682884662358 5875.341143656852
1033.2653744773506 5629.328581700551
1034.1622380659192 5713.63919672177
1035.058879296559 5808.0155100150005
1035.9552982338591 5879.83729887541
1036.8514949423825 5850.70842276487
1037.7474694866614 5806.159027611294
1038.6432219312028 5804.189703725938
1039.5387523404825 5996.836139170535
1040.4340607789582 5859.90392284218
1041.3291473110476 5881.027267604259
1042.2240120011465 6038.332026647071
1043.1186549136273 6083.759728636456
1044.0130761128294 5986.252321263004
1044.9072756630649 5947.627019455507
1045.8012536286205 6053.936229472403
1046.6950100737577 6056.678642853027
1047.588545062701 6162.129964453921
1048.481858659663 6049.692720835183
1049.3749509288118 6238.770631707833
1050.2678219343034 6002.217830082725
1051.1604717402515 6049.385763869704
1052.0529004107575 6037.874013598509
1052.9451080098825 6104.883323309792
1053.8370946016694 5962.5750146188275
1054.7288602501267 6003.250397649249
1055.6204050192446 5967.273968187621
1056.511728972977 5957.604097772526
1057.402832175254 6009.675688730775
1058.2937146899785 5890.3605467876205
1059.1843765810263 5811.091364792926
1060.0748179122456 5862.321844356933
1060.9650387474576 5801.0432007616255
1061.855039150456 5831.1710581437255
1062.7448191850071 5837.2802123580595
1063.6343789148505 5801.934668879539
1064.5237184037014 5861.991935822034
1065.412837715241 5798.765509726025
1066.3017369131267 5782.008552358519
1067.190416060992 5724.974758547322
1068.0788752224398 5695.077957238538
1068.9671144610438 5710.2648417886385
1069.8551338403558 5771.497392331708
1070.7429334239023 5811.878424934284
1071.6305132751695 5611.621649465232
1072.517873457633 5769.646854348358
1073.4050140347335 5702.988848497943
1074.2919350698776 5780.244535045756
1075.1786366264623 5736.623732373553
1076.0651187678395 5709.867604334677
1076.95138155735 5621.409138795063
1077.8374250582929 5732.562464405061
1078.7232493339507 5830.745982425307
1079.608854447577 5764.477201466793
1080.4942404623907 5680.78979180159
1081.3794074415982 5837.462901953346
1082.2643554483657 5931.336871082468
1083.149084545841 5895.094364510166
1084.033594797138 5854.230431827066
1084.9178862653516 5907.238010149217
1085.8019590135427 5983.011387236938
1086.6858131047484 5936.233198058401
1087.5694486019802 6117.458098289468
1088.4528655682225 6079.529787720873
1089.3360640664287 6196.491323635246
1090.2190441595321 6092.328842796071
1091.1018059104317 6193.924097513815
1091.98434938201 6280.260926506496
1092.866674637111 6278.54698283877
1093.748781738559 6169.357693723223
1094.6306707491512 6107.508144210577
1095.5123417316554 6242.677202205154
1096.3937947488157 6135.60556325923
1097.2750298633455 6233.4771275057265
1098.156047137938 6102.57809675425
1099.0368466352556 6216.943008672452
1099.9174284179317 6230.848952177208
1100.7977925485757 6008.949723181533
1101.6779390897755 6002.395148538074
1102.5578681040806 6036.0290707637105
1103.4375796540226 6045.79351390251
1104.3170738021054 5879.677500308312
1105.1963506108077 5857.170210525252
1106.0754101425773 5832.136974543757
1106.9542524598382 5876.590673334242
1107.8328776249855 5881.856148599977
1108.7112857003904 5792.107262676622
1109.5894767483987 5714.2118004262275
1110.4674508313292 5781.21384011063
1111.3452080114657 5632.462061519947
1112.2227483510815 5735.1846642065475
1113.1000719124077 5748.018071150412
1113.9771787576592 5784.063623645643
1114.854068949022 5649.8179831442385
1115.7307425486542 5701.493107306382
1116.6071996186893 5735.548965865177
1117.483440221229 5672.755315304685
1118.3594644183577 5648.800669730332
1119.235272272128 5636.986959909083
1120.1108638445658 5678.5053569706515
1120.9862391976712 5832.303996849774
1121.8613983934229 5750.486348788182
1122.7363414937627 5681.098890549344
1123.6110685606182 5733.037470619929
1124.485579655884 5843.552369783115
1125.359874841426 5751.777781914676
1126.2339541790916 5719.48152456887
1127.1078177306936 5955.0178655624095
1127.9814655580267 5768.6460841387725
1128.854897722851 5786.043070306629
1129.7281142869106 5663.757459407261
1130.6011153119125 5814.417547497723
1131.473900859548 5829.977176710743
1132.3464709914697 5688.18613006727
1133.2188257693178 5731.963928755612
1134.0909652546961 5672.60541951373
1134.96288950919 5619.860886295599
1135.8345985943506 5707.563915813579
1136.7060925717087 5599.1846365332585
1137.57737150277 5566.710144981439
1138.4484354490069 5761.954769981377
1139.3192844718778 5556.938452043007
1140.1899186327992 5471.109916668626
1141.060337993178 5670.740174127827
1141.930542614382 5534.8569602363705
1142.8005325577597 5532.682468730358
1143.670307884635 5461.554598869684
1144.5398686563003 5483.739987531516
1145.409214934025 5491.029647414745
1146.2783467790541 5391.985346684692
1147.1472642526023 5441.257334996759
1148.0159674158622 5489.518065667833
1148.8844563300026 5410.868664438547
1149.7527310561618 5365.140677473016
1150.6207916554504 5404.88002412091
1151.4886381889592 5318.1293185691175
1152.3562707177498 5493.204645193752
1153.2236893028585 5371.344422191238
1154.090894005296 5419.611551397282
1154.9578848860474 5400.642530817976
1155.8246620060709 5415.91170578351
1156.6912254262988 5275.155245171204
1157.5575752076438 5331.561282512526
1158.42371141098 5468.534741816274
1159.2896340971656 5445.738170438459
1160.1553433270346 5434.660721108945
1161.0208391613887 5452.825366165873
1161.8861216610057 5441.067994848448
1162.75119088664 5410.849152725359
1163.6160468990201 5399.718473209028
1164.4806897588442 5279.789985760881
1165.3451195267917 5486.0662700573575
1166.2093362635114 5417.752511671825
1167.0733400296285 5459.988518342621
1167.9371308857444 5433.5088840143635
1168.8007088924278 5341.0297245352995
1169.6640741102328 5503.2007355877895
1170.5272265996773 5333.872022990867
1171.390166421259 5321.730816505943
1172.252893635452 5340.068653923664
1173.1154083026995 5613.08760441476
1173.977710483421 5555.496990654443
1174.8398002380145 5365.867668875768
1175.7016776268483 5555.256534373764
1176.563342710264 5576.422452850633
1177.4247955485826 5511.540894256341
1178.2860362020947 5539.4197599422305
1179.147064731069 5448.1886754353045
1180.0078811957483 5546.142048074849
1180.8684856563486 5512.569341698593
1181.7288781730604 5510.955817209249
1182.589058806052 5622.142347657682
1183.4490276154593 5726.0667460094855
1184.3087846614017 5512.661310961021
1185.1683300039676 5538.941264717619
1186.027663703222 5647.548503225933
1186.8867858192025 5617.438025854117
1187.7456964119228 5541.07671505339
1188.6043955413716 5563.01411427013
1189.4628832675116 5722.453657090451
1190.3211596502842 5767.091641089672
1191.179224749596 5643.108154304099
1192.0370786253388 5598.3582829856705
1192.8947213373758 5794.625137209106
1193.7521529455407 5795.702306532672
1194.6093735096438 5613.718709907819
1195.466383089477 5600.150035068202
1196.3231817447977 5647.698691458643
1197.1797695353398 5794.41385631019
1198.0361465208189 5579.635345484488
1198.8923127609214 5651.024226530037
1199.7482683153048 5738.779528682039
1200.6040132436028 5865.860465175197
1201.459547605431 5695.11020643027
1202.3148714603722 5746.388215602671
1203.1699848679855 5716.733387482136
1204.0248878878065 5780.476459163601
1204.8795805793507 5599.1119799605
1205.7340630020935 5791.6849859741615
1206.5883352155033 5837.561604357971
1207.4423972790064 5820.2720582991915
1208.2962492520237 5682.813934930312
1209.1498911939307 5709.08372219129
1210.0033231640937 5686.790555956414
1210.8565452218427 5631.302123959953
1211.7095574264913 5595.991716615625
1212.5623598373222 5658.576713381662
1213.4149525135963 5610.235688428132
1214.2673355145507 5699.640809254743
1215.1195088993936 5474.8035681796655
1215.9714727273113 5652.346380166191
1216.8232270574663 5779.33175699205
1217.6747719489904 5550.007999263837
1218.5261074609934 5564.01339233732
1219.3772336525653 5620.708689562628
1220.2281505827668 5646.314812312938
1221.0788583106296 5711.06418803409
1221.9293568951707 5567.770609368351
1222.7796463953746 5447.131192654192
1223.629726870202 5600.423326055615
1224.4795983785934 5628.496299326636
1225.3292609794553 5479.996795734118
1226.1787147316809 5519.498976675851
1227.0279596941327 5484.7029796962715
1227.8769959256424 5509.277112131816
1228.7258234850306 5434.296071574591
1229.5744424310833 5354.184165547494
1230.422852822563 5535.269763213423
1231.2710547182105 5591.177758360847
1232.119048176739 5455.347895608347
1232.9668332568417 5355.994336515074
1233.8144100171812 5429.780646671336
1234.6617785163999 5415.378110363487
1235.508938813111 5192.335489882254
1236.3558909659114 5322.075275617029
1237.2026350333617 5470.213399048857
1238.049171074008 5508.015204188962
1238.8954991463652 5266.539552498239
1239.741619308932 5331.534476083064
1240.587531620169 5401.676945681278
1241.4332361385277 5470.571999268088
1242.2787329224248 5270.595522352437
1243.1240220302534 5180.635431103112
1243.9691035203869 5251.919869654001
1244.813977451171 5473.728670723858
1245.6586438809263 5279.615488667222
1246.5031028679496 5196.393487080238
1247.3473544705157 5343.859064912447
1248.1913987468706 5295.980002374244
1249.0352357552383 5255.8214127259
1249.8788655538228 5255.248091959094
1250.7222882007918 5357.028189769618
1251.565503754302 5373.9737893653755
1252.4085122724755 5156.292320798907
1253.2513138134182 5347.891259345216
1254.0939084352049 5327.808506415384
1254.9362961958905 5289.160483351892
1255.7784771535007 5333.846224098104
1256.6204513660432 5408.459592993647
1257.4622188915 5532.169113618018
1258.3037797878242 5395.625973675083
1259.1451341129468 5326.955818358046
1259.9862819247755 5420.683347724453
1260.8272232811978 5423.588249444537
1261.6679582400666 5581.5588550035945
1262.5084868592203 5368.814353195306
1263.34880919647 5422.797530595709
1264.1889253095997 5492.213147685874
1265.0288352563712 5494.888151799983
1265.8685390945266 5419.5370784660945
1266.7080368817751 5531.355707552559
1267.5473286758115 5660.433495752317
1268.386414534294 5564.529960039367
1269.2252945148703 5439.237714305072
1270.0639686751547 5484.924963785418
1270.9024370727402 5464.340223558543
1271.7406997651997 5463.552955087757
1272.5787568100714 5375.555973920623
1273.4166082648808 5496.430392583184
1274.2542541871244 5530.909677321741
1275.091694634275 5625.480844364473
1275.9289296637817 5327.771353781801
1276.7659593330663 5597.407662976581
1277.6027836995308 5478.586404808264
1278.4394028205552 5559.085681799122
1279.2758167534867 5455.458149211139
1280.112025555658 5503.255795479652
1280.9480292843746 5599.591724253634
1281.7838279969128 5382.265182242557
1282.6194217505326 5454.7817861667445
1283.4548106024686 5408.206886597842
1284.289994609926 5431.228958557699
1285.1249738300921 5520.662148456287
1285.959748320127 5405.3893832260455
1286.7943181371702 5497.1019208861235
1287.6286833383328 5546.53326795316
1288.4628439807038 5609.312796306558
1289.2968001213521 5415.975382214516
1290.1305518173194 5479.177799163454
1290.9640991256183 5577.765364951722
1291.7974421032523 5580.641378200963
1292.630580807183 5455.564512888794
1293.463515294361 5583.216939390812
1294.29624562171 5661.296923360336
1295.12877184613 5576.266151956648
1295.961094024493 5510.810320755446
1296.79321221365 5594.932225014943
1297.6251264704333 5677.725714782622
1298.4568368516466 5838.376161547943
1299.2883434140658 5758.058132395714
1300.1196462144526 5631.9833143500855
1300.9507453095375 5840.779654836269
1301.7816407560313 5796.118431373652
1302.6123326106172 5806.607864498654
1303.4428209299622 5809.667032437184
1304.2731057707024 5976.160786404362
1305.1031871894502 5869.117303856389
1305.933065242798 5908.080388107277
1306.7627399873181 5908.045323083842
1307.5922114795467 6120.4642921693285
1308.4214797760123 6053.812939059537
1309.2505449332057 5884.174656317854
1310.0794070076026 5924.200420743813
1310.9080660556538 6148.301031989861
1311.736522133786 6103.886658298266
1312.5647752983987 5892.377969063844
1313.3928256058734 5830.322783193487
1314.2206731125661 6075.147490840491
1315.048317874809 6003.455298388188
1315.8757599489109 6040.560569916538
1316.7029993911547 5994.502140737974
1317.5300362578055 6173.063311039008
1318.356870605101 6016.015162611626
1319.183502489257 6030.213928405421
1320.0099319664623 6082.499400837696
1320.836159092889 6118.333256750451
1321.66218392468 6152.376677778629
1322.4880065179532 6011.170425152715
1323.3136269288134 6097.836083544225
1324.1390452133292 6143.638562774259
1324.9642614275563 6261.835400324193
1325.7892756275214 6047.277149836253
1326.6140878692295 5958.109541298281
1327.4386982086617 6182.812465431545
1328.2631067017755 6014.585948132205
1329.0873134045069 6049.651325704513
1329.911318372764 5898.324337275335
1330.735121662441 5984.401902593456
1331.558723329399 5867.050781789088
1332.3821234294774 5814.900898395394
1333.2053220185007 5834.836507503014
1334.0283191522612 5710.075976629114
1334.851114886529 5692.970397083418
1335.6737092770582 5587.06875506247
1336.4961023795695 5579.307026402807
1337.3182942497697 5461.648965742215
1338.1402849433325 5582.245679003825
1338.962074515921 5377.710609534512
1339.7836630231632 5293.593020543872
1340.6050505206676 5605.03108643998
1341.426237064028 5481.362311266059
1342.2472227088037 5294.5011684693545
1343.0680075105338 5252.617855087995
1343.888591524741 5395.87281414548
1344.7089748069138 5386.594411382708
1345.5291574125276 5252.413429128463
1346.3491393970307 5165.200960555692
1347.168920815846 5311.887194289646
1347.9885017243778 5287.884881316246
1348.8078821780036 5121.374570522534
1349.6270622320844 5061.687092248119
1350.4460419419447 5152.276311635638
1351.2648213629054 5079.389342815245
1352.0834005502438 4956.867232753653
1352.90177955923 4949.496636474555
1353.7199584451064 5009.532738353136
1354.5379372630887 4964.247754931544
1355.355716068374 4927.929972808064
1356.1732949161305 4907.419329527586
1356.9906738615155 4939.408955734978
1357.8078529596478 4880.942556041472
1358.6248322656375 4972.587903282488
1359.441611834567 4877.583154717009
1360.2581917214866 4961.230587033376
1361.0745719814367 4844.071031620573
1361.890752669433 4740.366070069304
1362.7067338404577 4807.208313533407
1363.5225155494845 4914.6994368926125
1364.3380978514506 5018.542162220963
1365.1534808012839 4767.655545999105
1365.9686644538815 4530.482074861564
1366.783648864117 4929.908575393414
1367.5984340868417 4923.314044841188
1368.413020176893 4850.248401853771
1369.2274071890715 4833.16092801915
1370.0415951781652 4851.976831263188
1370.8555841989346 4779.704036977001
1371.6693743061223 4573.633286527496
1372.48296555444 4578.978873603913
1373.2963579985844 4887.768198931451
1374.1095516932255 4808.96841407917
1374.9225466930166 4585.0660172505395
1375.7353430525782 4795.150152892875
1376.5479408265164 4665.543768297963
1377.36034006941 4732.888945349596
1378.1725408358216 4785.924104374142
1378.9845431802805 4617.152260252145
1379.796347157304 4904.5250799464475
1380.6079528213813 4752.749469813755
1381.4193602269788 4554.718892215638
1382.230569428546 4705.337940325968
1383.0415804805016 4775.158437767645
1383.852393437246 4633.629370569991
1384.6630083531563 4690.58977299192
1385.4734252825892 4542.366542165347
1386.2836442798798 4727.182995718654
1387.0936653993322 4716.361557584789
1387.9034886952395 4627.415835692851
1388.713114221864 4722.931768319935
1389.5225420334482 4681.107313343048
1390.331772184214 4718.909824580366
1391.1408047283585 4589.541862415872
1391.9496397200564 4705.937164459267
1392.758277213461 4712.2857962901235
1393.5667172627054 4777.402676189444
1394.3749599218918 4627.537014671192
1395.1830052451114 4548.783832679816
1395.9908532864265 4631.50611111921
1396.7985040998774 4816.422574052747
1397.6059577394808 4593.6722849386715
1398.4132142592352 4573.1426487360895
1399.2202737131156 4527.261151254946
1400.027136155073 4736.035455321433
1400.8338016390353 4580.725170759083
1401.6402702189134 4563.882873575965
1402.446541948586 4589.268809278592
1403.2526168819204 4530.50434384193
1404.058495072757 4498.707496037139
1404.8641765749107 4569.407392153158
1405.6696614421799 4642.045210395636
1406.4749497283356 4876.686571568247
1407.280041487129 4543.288656401219
1408.084936772295 4471.736056704627
1408.8896356375335 4719.648352186752
1409.6941381365323 4637.529427726238
1410.498444322955 4424.951044131003
1411.3025542504402 4590.200344970725
1412.106467972606 4689.492031716449
1412.9101855430508 4658.9554704025195
1413.7137070153458 4565.23029246944
1414.5170324430437 4496.63616343987
1415.320161879672 4721.943696404784
1416.1230953787435 4780.513204190569
1416.925832993742 4577.462162047715
1417.7283747781275 4549.470680198434
1418.5307207853439 4665.012782379666
1419.3328710688093 4787.891090178299
1420.134825681922 4626.454563243134
1420.9365846780584 4671.077253317202
1421.7381481105713 4846.3942613742975
1422.539516032788 4803.574558215587
1423.3406884980232 4638.6081208966525
1424.1416655595604 4710.508351269924
1424.942447270665 4730.814547646805
1425.7430336845828 4953.036933375353
1426.5434248545298 4721.156742253783
1427.3436208337116 4911.793090046087
1428.143621675301 4923.134354110231
1428.9434274324558 5040.31282526733
1429.7430381583108 4815.699035938898
1430.5424539059713 4872.983359200583
1431.3416747285337 5150.155066324658
1432.1407006790632 5104.5195802748
1432.9395318106053 4991.774806541584
1433.7381681761835 4865.772093064279
1434.5366098288014 5097.14659678133
1435.3348568214424 5104.007373073907
1436.1329092070573 4964.834563161244
1436.9307670385879 4920.93633684621
1437.7284303689503 5114.855907624454
1438.5258992510335 5163.467092477143
1439.3231737377118 5057.3761194247
1440.1202538818306 5071.71980019781
1440.9171397362225 5055.022291894134
1441.7138313536925 5049.843545456752
1442.5103287870243 4976.914157126741
1443.3066320889775 4850.74425350715
1444.1027413122956 5176.196784321699
1444.8986565096966 5027.990974298546
1445.694377733882 4920.476682306905
1446.4899050375207 4825.677539909672
1447.2852384732687 4780.920560952059
1448.0803780937622 4963.819703584331
1448.8753239516063 4703.085040853328
1449.6700760993954 4696.553301484933
1450.464634589689 4796.941318936502
1451.2589994750397 5030.4574521247605
1452.0531708079689 4568.338640522597
1452.8471486409799 4633.4060283584895
1453.6409330265524 4802.440380332389
1454.4345240171442 4679.878852096431
1455.2279216651987 4602.802793055615
1456.0211260231263 4612.433610184968
1456.8141371433194 4950.442010360225
1457.6069550781594 4707.809946174887
1458.3995798799897 4482.859081641223
1459.1920116011424 4590.713442309144
1459.98425029393 4516.3661910521
1460.7762960106338 4444.1776090934345
1461.5681488035225 4499.765306893622
1462.3598087248392 4473.257546889167
1463.1512758268036 4581.1704463979
1463.942550161617 4382.596882266451
1464.7336317814625 4352.280243398936
1465.524520738496 4466.074680492309
1466.3152170848552 4257.662132627989
1467.1057208726506 4369.195261929513
1467.8960321539817 4196.021383173752
1468.6861509809169 4197.431493673287
1469.4760774055085 4293.487037700384
1470.265811479785 4244.145036270729
1471.055353255755 4026.3649968754944
1471.844702785409 4082.075772677007
1472.6338601207044 4078.00456383406
1473.4228253135934 4228.386654461903
1474.2115984159936 4019.8327279357377
1475.0001794798063 3992.853008846071
1475.7885685569145 4133.065815595208
1476.576765699172 4118.365601936913
1477.3647709584238 3980.0926739919987
1478.1525843864802 4169.716733448197
1478.9402060351367 3994.5106686922372
1479.7276359561693 4112.03418919963
1480.514874201328 3956.773281825123
1481.3019208223468 3870.241878629874
1482.0887758709323 3802.4288289316246
1482.8754393987747 4047.8019510185923
1483.6619114575406 3826.2380354499314
1484.4481920988783 3881.4636442720466
1485.2342813744108 4004.951246076099
1486.0201793357446 4128.699394985723
1486.8058860344572 3711.5400233023256
1487.591401522117 3850.3159942982556
1488.3767258502594 3852.842686998121
1489.1618590704056 3933.218137423485
1489.9468012340494 3661.8965240294337
1490.7315523926754 3894.49373499797
1491.5161125977356 4020.8244228345293
1492.3004819006637 3956.0872341494105
1493.084660352877 3682.041670317306
1493.8686480057622 3809.441356144456
1494.6524449106964 3970.3501383875364
1495.4360511190262 4059.1907602534857
1496.219466682087 3878.1857785960574
1497.0026916511779 3911.4928588996127
1497.7857260775945 3916.135540753688
1498.5685700125996 3887.8688043901034
1499.3512235074395 3788.9479630322908
1500.133686613337 3764.8100358053134
1500.9159593814966 3816.2301082703316
1501.698041863101 4033.942915591223
1502.4799341093094 3662.8208451536498
1503.2616361712662 3747.178083037147
1504.043148100087 3791.0373381753334
1504.8244699468742 3795.4907926080414
1505.6056017626997 3651.474839004306
1506.3865435986281 3700.250346563601
1507.1672955056893 3790.3104018227336
1507.9478575348967 3647.526121240674
1508.7282297372512 4005.6291883013573
1509.5084121637192 3760.366476281927
1510.2884048652577 3742.169399670275
1511.0682078927948 3736.312180007529
1511.8478212972423 3750.065239822772
1512.6272451294917 3751.8662543719015
1513.4064794404076 3837.707503637076
1514.1855242808433 3905.0784863793415
1514.9643797016215 3813.0039818085766
1515.743045753552 3857.0468493711355
1516.5215224874191 3812.367515193717
1517.2998099539836 3677.1248328094275
1518.077908203999 3783.810726372239
1518.8558172881785 3694.0617289500196
1519.633537257234 3863.639233495819
1520.4110681618404 3921.3839323293046
1521.1884100526604 3835.85262119053
1521.9655629803365 3789.9910452559934
1522.7425269954856 3939.80826764006
1523.5193021487103 4005.3298435539814
1524.2958884905856 3719.2108041636247
1525.0722860716687 3804.7446526051162
1525.848494942502 3719.7701450663217
1526.624515153595 3814.5072362165824
1527.4003467554485 3892.7498154989653
1528.175989798534 3936.643873917802
1528.9514443333064 3863.6610878541405
1529.726710410203 4006.0222987782336
1530.5017880796331 3714.8065796175515
1531.276677391992 3768.9899884268298
1532.0513783976457 3950.2488893252157
1532.825891146953 3830.4080940648064
1533.6002156902414 3918.4820511234743
1534.3743520778207 3787.2407910240886
1535.1483003599806 3791.8967318318732
1535.9220605869923 3770.052540474182
1536.6956328091019 3850.4964873753247
1537.4690170765407 3782.5892084456027
1538.242213439511 3893.370231252243
1539.015221948208 3806.559847369055
1539.78804265279 3724.6701420417658
1540.560675603405 3678.688919837818
1541.3331208501804 3941.661334115413
1542.1053784432224 3885.4737173314925
1542.8774484326168 3848.306797110381
1543.649330868422 3780.391757197182
1544.4210258006842 3790.3094476104366
1545.1925332794308 3691.7286979387513
1545.9638533546604 3768.74118267609
1546.7349860763552 3652.98123079216
1547.5059314944829 3867.0372647027784
1548.27668965898 3701.5592882462647
1549.0472606197673 3728.9488041620616
1549.817644426752 3592.0140710642454
1550.5878411298072 3775.0913854298824
1551.3578507787988 3737.763928943131
1552.1276734235635 3610.344256788149
1552.8973091139233 3672.8850170233045
1553.6667578996767 3803.6337710348926
1554.436019830604 3649.401232958205
1555.20509495646 3595.225531522433
1555.9739833269869 3635.609660803374
1556.7426849919011 3647.9982262801263
1557.511200000903 3849.4155342910626
1558.2795284036674 3716.380935461474
1559.0476702498509 3629.299390151579
1559.8156255890954 3838.3003991756573
1560.5833944710157 3981.055093466398
1561.3509769452048 3658.0830091480066
1562.1183730612447 3664.2015089545102
1562.8855828686865 3845.6152174387053
1563.6526064170703 3923.862936396947
1564.4194437559127 3813.175323518136
1565.1860949347047 3653.236302720531
1565.9525600029283 3974.017519705166
1566.7188390100328 4028.700902510459
1567.4849320054564 3691.5276557324273
1568.250839038612 3783.422252852544
1569.0165601588997 3775.8363478820793
1569.7820954156887 3942.5777083030866
1570.5474448583373 3787.553403031715
1571.31260853618 3708.6568818506653
1572.0775864985299 3742.822269535035
1572.8423787946813 3869.7870422141796
1573.6069854739108 3845.7375543558505
1574.371406585471 3829.0372883284026
1575.1356421785986 3928.2061043514404
1575.899692302506 3847.104745081752
1576.6635570063845 3826.394596988093
1577.4272363394157 3824.107573325433
1578.190730350747 3787.0241136374707
1578.9540390895163 3864.185977841497
1579.7171626048384 3663.1211559690223
1580.480100945806 3693.6648522796313
1581.2428541614918 3766.221884799049
1582.0054223009538 3829.9377885552194
1582.767805413223 3906.986231396089
1583.5300035473156 3778.5407705878033
1584.292016752228 3894.794867272951
1585.0538450769309 3848.0772327730765
1585.8154885703807 3606.145537505103
1586.5769472815136 3570.2644771424375
1587.3382212592405 3698.9165893204504
1588.099310552463 3859.287526813753
1588.8602152100484 3609.7708304399835
1589.6209352808564 3792.0524888099885
1590.3814708137234 3584.279877880708
1591.14182185746 3541.9266121799737
1591.9019884608679 3554.7639610928863
1592.6619706727215 3426.6877555209076
1593.4217685417734 3621.8971664228243
1594.1813821167616 3655.7976586008344
1594.9408114464022 3412.656199580563
1595.7000565793933 3469.5229119440787
1596.459117564409 3462.403954171636
1597.2179944501113 3420.286098129127
1597.9766872851324 3382.8518677247166
1598.735196118092 3429.5530788196165
1599.4935209975883 3528.826515763945
1600.2516619721973 3481.980381085381
1601.0096190904787 3425.9264130832644
1601.7673924009723 3308.104863013671
1602.524981952196 3239.8978494451167
1603.2823877926476 3407.570376586785
1604.0396099708087 3167.321673214387
1604.7966485351371 3216.279705813633
1605.5535035340745 3295.8077964954923
1606.3101750160404 3476.0226899253576
1607.0666630294363 3233.9132337163746
1607.822967622642 3172.3965572259585
1608.5790888440224 3245.680799221719
1609.3350267419137 3409.150279893808
1610.0907813646445 3270.2740328969853
1610.8463527605145 3175.9060071201957
1611.601740977805 3308.887767821121
1612.356946064785 3238.3111203432027
1613.1119680696902 3052.4774937042303
1613.8668070407512 3214.941982064872
1614.6214630261748 3090.0481546773726
1615.375936074137 3293.597763430685
1616.1302262328118 3200.808131388125
1616.8843335503425 3264.8507103428324
1617.638258074854 3013.4187274679725
1618.391999854457 3296.0759920216187
1619.1455589372363 3394.949068985644
1619.8989353712623 3210.632183168631
1620.65212920458 3014.4034568393167
1621.4051404852235 3141.7297804908467
1622.1579692611976 3086.0221677166546
1622.9106155804966 2969.388450149293
1623.663079491087 3054.354999746454
1624.4153610409248 3213.867918932915
1625.1674602779385 3111.24031407391
1625.9193772500403 3059.6282446405576
1626.6711120051277 3255.9248245242616
1627.4226645910676 3207.7210463751408
1628.174035055721 2982.891897040339
1628.9252234469168 3200.174264783874
1629.676229812474 3072.2801436576506
1630.4270542001905 3189.9000722216165
1631.1776966578382 3060.608964069558
1631.9281572331747 3093.0554829732637
1632.678435973945 3259.004837469953
1633.4285329278573 3212.383957195613
1634.1784481426203 2950.621519191286
1634.9281816659113 3012.803713414197
1635.677733545388 3214.8426636329846
1636.4271038286934 3104.6386556611133
1637.176292563452 3183.503209634521
1637.9252997972635 3033.6770202496773
1638.674125577716 3128.6845638426744
1639.4227699523672 3355.553098868216
1640.171232968767 2888.0308851487234
1640.9195146744423 3102.9899005819334
1641.6676151168977 3194.712482495715
1642.4155343436178 3221.130616451182
1643.1632724020765 3000.98800689562
1643.9108293397167 3072.803308000724
1644.658205203974 3008.634868001923
1645.4054000422566 3403.89054870717
1646.1524139019566 2996.4434690211065
1646.8992468304423 2856.1875059773506
1647.6458988750728 3033.9735769937333
1648.3923700831765 2981.3307887965307
1649.1386605020743 3033.818773675912
1649.8847701790564 3162.6317437337702
1650.6306991614038 3026.301711199744
1651.3764474963682 3058.9459335678866
1652.1220152311944 2754.5448568101656
1652.867402413096 3038.4169090027017
1653.6126090892776 3025.923125202994
1654.3576353069184 3111.424322193886
1655.1024811131829 2990.6769871086335
1655.8471465552066 2880.9338664176094
1656.5916316801213 3162.644378797002
1657.3359365350298 3079.6946416190744
1658.0800611670165 2881.5599796137135
1658.824005623148 2985.1856193323633
1659.5677699504722 2840.6960088457477
1660.3113541960192 2988.2456033189387
1661.054758406799 2875.76558771799
1661.7979826297997 2849.377396138283
1662.5410269119966 2877.7161833079135
1663.283891300338 2969.405430522077
1664.0265758417645 2881.946525372158
1664.7690805831826 2971.4110670676155
1665.5114055714948 3067.258363882397
1666.2535508535748 3156.718870190723
1666.9955164762814 2733.859897440034
1667.7373024864555 2939.0108898263265
1668.478908930916 2958.3221693837827
1669.220335856462 2909.9816886549843
1669.9615833098778 2834.4261358442773
1670.7026513379296 2829.8151565498674
1671.44353998736 2923.412335607668
1672.1842493048916 2945.336011155778
1672.9247793372379 2779.3759130603285
1673.6651301310812 2945.7357470885345
1674.4053017330934 2951.332039324035
1675.1452941899242 2958.573412745819
1675.885107548207 2526.0368994565483
1676.6247418545518 2691.187420284493
1677.3641971555535 2734.7406958571773
1678.1034734977893 2892.98524363199
1678.8425709278108 2802.1428391036234
1679.5814894921605 2965.3250776911127
1680.320229237359 2733.76803408357
1681.0587902098978 2985.317607043414
1681.7971724562685 2836.0256263345887
1682.5353760229264 2618.7513025989924
1683.2734009563173 2981.5653820167927
1684.0112473028657 2710.7175904746937
1684.7489151089794 2827.224460182318
1685.4864044210462 2853.666053627029
1686.2237152854377 2544.870312590379
1686.960847748498 2891.1638385435517
1687.6978018565642 2637.961764447275
1688.434577655944 2635.9080901327898
1689.1711751929379 2599.1313033947745
1689.9075945138156 2851.2639133200346
1690.6438356648396 2682.4029024144666
1691.3798986922448 2460.8014756114994
1692.1157836422499 2764.246033566187
1692.851490561059 2640.387063898077
1693.587019494853 2748.679893202193
1694.3223704897991 2549.08714770124
1695.0575435920364 2562.9338001762517
1695.792538847696 2876.788464100585
1696.527356302886 2665.5841571793007
1697.2619960036936 2496.5390956021324
1697.9964579961907 2513.11189690723
1698.730742326432 2317.5759685543703
1699.4648490404488 2489.37428800847
1700.1987781842563 2577.1787168565515
1700.9325298038548 2677.597543637864
1701.6661039452174 2715.854939078393
1702.3995006543082 2589.883349340723
1703.1327199770658 2636.40368700442
1703.865761959416 2464.150735482749
1704.598626647261 2716.80038044733
1705.3313140864866 2512.2349185279386
1706.0638243229587 2453.260841498969
1706.7961574025303 2561.5811321762085
1707.528313371029 2572.6644088251533
1708.260292274268 2416.0272046590026
1708.9920941580403 2562.7392362645646
1709.7237190681226 2501.6580574409527
1710.4551670502697 2410.721828066208
1711.18643815022 2295.8619045785335
1711.9175324136959 2660.9205667355673
1712.6484498863938 2547.5676050895718
1713.379190614005 2354.1002036267264
1714.109754642188 2478.98988448376
1714.8401420165883 2350.9364043558207
1715.570352782839 2619.1330220371756
1716.3003869865497 2536.645607660036
1717.0302446733076 2366.903117261166
1717.7599258886876 2464.4749861490827
1718.4894306782444 2686.786990919975
1719.2187590875183 2350.783215602759
1719.9479111620203 2600.952239456992
1720.6768869472544 2334.5815478371633
1721.4056864887025 2618.1199669602997
1722.1343098318284 2618.8867107502765
1722.8627570220742 2459.901026118767
1723.591028104871 2329.891801963079
1724.3191231256242 2183.811588807815
1725.0470421297232 2408.0679706053024
1725.7747851625427 2433.083482051807
1726.5023522694337 2457.180989543511
1727.2297434957363 2404.291330571947
1727.9569588867635 2174.8622606854146
1728.6839984878152 2413.4803337065778
1729.4108623441734 2079.0433059864163
1730.1375505011038 2566.5767847204716
1730.8640630038426 2249.714022982294
1731.5903998976264 2210.9377553675517
1732.316561227657 2365.415625183665
1733.0425470391274 2218.814725857528
1733.7683573772065 2377.0300892940836
1734.4939922870508 2330.517098149494
1735.2194518137949 2340.870988335072
1735.9447360025606 2458.489293163155
1736.669844898439 2392.4714601280625
1737.3947785465189 2152.1640681066447
1738.1195369918605 2125.0553741646168
1738.8441202795093 2395.811033761543
1739.5685284544943 2399.8527331661007
1740.292761561821 2358.5921715557424
1741.0168196464838 2428.215257893848
1741.7407027534518 2382.924534977955
1742.464410927687 2367.4969464502765
1743.187944214118 2220.1467487953664
1743.9113026576688 2250.8491761329283
1744.634486303241 2338.602088448727
1745.3574951957125 2215.9485677459334
1746.0803293799509 2462.684001632316
1746.8029889008048 2396.4433028358776
1747.5254738031017 2337.106018457816
1748.2477841316504 2163.441127226385
1748.969919931249 2252.16258470957
1749.6918812466665 2205.6895724827305
1750.4136681226646 2365.091406713761
1751.1352806039777 2293.8758445934045
1751.856718735331 2102.318690768989
1752.5779825614281 2167.5275900806796
1753.2990721269507 2272.6149210093927
1754.0199874765676 2225.3797978984776
1754.7407286549314 2146.8241916175457
1755.4612957066693 2243.5261218343703
1756.1816886763954 2159.0404581209805
1756.9019076087097 2312.554936120059
1757.6219525481865 2365.9194855413407
1758.3418235393856 2272.708547565509
1759.061520626854 2299.004700838742
1759.7810438551096 2391.773367105113
1760.5003932686614 2160.036503015387
1761.2195689119999 2371.975282042796
1761.938570829594 2271.1351332341173
1762.657399065898 2307.7087755090583
1763.376053665348 2094.6824692791574
1764.0945346723602 2041.9042448474618
1764.812842131334 2305.4541511644456
1765.5309760866512 2060.168131375237
1766.2489365826787 2080.1538728703554
1766.9667236637597 2171.270817330828
1767.684337374223 1995.774680458329
1768.401777758383 1974.1331383800002
1769.1190448605284 2098.9071474909747
1769.836138724937 2013.307032754457
1770.5530593958665 2168.6477867283943
1771.2698069175603 2405.3254894194215
1771.9863813342326 2368.273150182031
1772.702782690094 2204.510032271596
1773.4190110293293 2250.535270232355
1774.1350663961111 2251.0125467000644
1774.8509488345844 2146.767671135676
1775.5666583888924 2185.1231048881123
1776.2821951031437 2317.710558582741
1776.9975590214362 2175.367840719304
1777.7127501878585 2307.30961312813
1778.4277686464684 2354.644055946267
1779.1426144413108 2371.7369065504295
1779.8572876164162 2316.0197792143895
1780.571788215797 2045.1969429954254
1781.2861162834415 2073.695544698177
1782.0002718633277 2152.176175329869
1782.7142549994132 2246.1016041134376
1783.4280657356376 2212.7887091458006
1784.141704115922 2138.9442223748542
1784.855170184177 2118.912443130549
1785.5684639842839 2253.0280135277567
1786.2815855601148 1924.767119856107
1786.9945349555237 2295.903037949166
1787.707312214343 2026.3686471015612
1788.4199173803918 2038.1552288207774
1789.132350497468 2050.139370538409
1789.8446116093583 2184.5244793759657
1790.556700759822 2051.937543777036
1791.2686179926077 2091.6476239980684
1791.9803633514493 2144.5173682350755
1792.6919368800554 2071.07446947654
1793.4033386221236 2188.468340522914
1794.1145686213295 2177.747506735442
1794.8256269213307 2316.6890308265315
1795.536513565774 2161.8671156103383
1796.247228598284 1907.5073385653075
1796.9577720624693 2089.2293533936104
1797.6681440019165 2143.1316135286957
1798.3783444602013 2055.6258444986793
1799.0883734808776 2171.188413611291
1799.7982311074884 2205.276054118935
1800.5079173835475 2108.17514559535
1801.2174323525633 2131.272029642778
1801.9267760580187 2108.0343836162124
1802.635948543386 2147.470508127059
1803.3449498521113 2040.517823447704
1804.0537800276325 2170.037482990056
1804.7624391133668 2141.5693171302514
1805.47092715271 1885.256734037057
1806.1792441890484 2064.7246468269364
1806.8873902657433 2248.6343546415696
1807.5953654261448 2096.6374264723936
1808.3031697135812 2070.7303406931414
1809.0108031713662 1940.0285009254617
1809.71826584279 2007.09989448441
1810.425557771141 2207.3850639108077
1811.1326789996747 2462.781619657563
1811.839629571632 2022.4104552818358
1812.5464095302468 2075.1152681468952
1813.2530189187182 2057.703557324782
1813.959457780249 2071.932516280989
1814.6657261580076 2216.3982767439184
1815.371824095153 2026.0461789943922
1816.0777516348262 2202.4273373058554
1816.78350882015 1853.993127903987
1817.4890956942272 1967.019970880603
1818.1945123001533 2064.3261284000314
1818.8997586809928 2029.4701112385403
1819.6048348798067 1961.0668236127829
1820.3097409396287 2119.73492879688
1821.0144769034796 2352.302633312582
1821.7190428143622 2114.2230412393274
1822.423438715261 2106.6685510705533
1823.1276646491478 2041.045808341217
1823.8317206589727 2037.4404881743976
1824.5356067876692 2099.291358379578
1825.2393230781581 2181.289808901205
1825.942869573335 1882.5145783673615
1826.646246316086 1961.1094570491355
1827.3494533492758 2020.4124859809522
1828.052490715756 2083.1427663250397
1828.7553584583547 2073.597581600879
1829.458056619891 2128.0695519959036
1830.1605852431585 2117.828837185029
1830.8629443709433 1895.4363848022422
1831.5651340460063 1999.0309198732732
1832.2671543110919 1962.0547987572736
1832.9690052089318 2179.029684833632
1833.6706867822395 1825.916706941344
1834.3721990737104 2165.0322017860362
1835.0735421260233 2134.737194496183
1835.774715981841 1983.7614178704407
1836.4757206838058 2219.189275635411
1837.1765562745459 2045.2140415599042
1837.8772227966747 1940.1136124562295
1838.5777202927839 2033.6185228075217
1839.2780488054523 2012.7712566915502
1839.9782083772352 1945.0438325410676
1840.6781990506806 2193.6478359643265
1841.378020868313 1974.466579251583
1842.0776738726418 2032.212882732194
1842.777158106157 2021.2429887001606
1843.4764736113375 1918.5594232049298
1844.1756204306403 2102.1109520658083
1844.8745986065078 2106.5595601848236
1845.5734081813607 1784.4962791186256
1846.2720491976124 2007.3110721077514
1846.970521697649 1830.496955781609
1847.6688257238511 2110.9573857136083
1848.3669613185684 2077.1842143612707
1849.0649285241452 1809.541564862378
1849.7627273829057 2028.8410548167399
1850.460357937156 2033.466597911706
1851.1578202291857 1767.0973745816834
1851.8551143012664 2024.8282300446838
1852.5522401956569 1971.2029574855678
1853.2491979545957 2104.8369446444904
1853.9459876203055 1832.4045104022084
1854.6426092349902 1801.343445540395
1855.3390628408451 1911.8866243182183
1856.0353484800362 2223.7730988791677
1856.7314661947203 2107.1464976455586
1857.4274160270397 1948.933498593969
1858.123198019115 1976.4199480901698
1858.8188122130487 1850.7688379255924
1859.5142586509319 1978.67534266394
1860.209537374838 1845.86611864702
1860.9046484268183 1985.208665629055
1861.599591848917 2201.131723137819
1862.294367683151 1908.2651105267992
1862.988975971528 2014.8482395872647
1863.6834167560355 2050.220545851329
1864.3776900786452 2110.003995868276
1865.0717959813119 1941.6061103166217
1865.7657345059724 1875.8721097464233
1866.4595056945564 2002.913655539361
1867.1531095889586 1983.5208675227852
1867.846546231076 1819.9720722251718
1868.5398156627743 2181.8719395994353
1869.2329179259123 1911.5004525217416
1869.9258530623283 2166.3566099025343
1870.618621113843 1794.621296610685
1871.3112221222636 1785.5460254400452
1872.0036561293764 1955.5717608741502
1872.695923176956 2001.8809574945867
1873.3880233067594 2158.1919657396293
1874.0799565605212 1867.5652619098305
1874.7717229799673 1990.573873380892
1875.4633226068036 2115.5751867249137
1876.1547554827175 2045.8147180077365
1876.8460216493859 2035.118097852716
1877.5371211484617 2006.7275972592063
1878.2280540215852 2029.577056921494
1878.9188203103804 1832.012542202206
1879.6094200564548 1898.1188888689405
1880.299853301396 1889.8277049510718
1880.9901200867826 2152.115399164376
1881.6802204541673 2034.7408406555055
1882.3701544450942 2070.8837265615866
1883.059922101087 1817.1632747698204
1883.7495234636517 2136.107076179397
1884.4389585742792 1860.6397448489904
1885.1282274744517 1821.7914254426657
1885.8173302056166 1942.4833578246012
1886.506266809225 2063.3393820715487
1887.195037326701 1770.9987781051968
1887.8836417994517 1872.3025821462484
1888.5720802688702 2124.897630780133
1889.260352776333 2055.7954805029717
1889.9484593632042 1973.205433946252
1890.63640007082 1946.9882683696037
1891.3241749405151 1786.2295070048415
1892.0117840135954 2050.7142866391323
1892.6992273313572 1950.008582641168
1893.3865049350788 1878.793090190148
1894.0736168660223 2160.1672837260176
1894.7605631654333 2047.4661754128315
1895.4473438745408 1710.9994896023277
1896.133959034556 2200.9365666285607
1896.820408686679 1941.5272413553387
1897.506692872088 1984.2125472756954
1898.192811631945 1884.1674992057294
1898.8787650073991 1878.9428984286933
1899.5645530395832 1994.074951262012
1900.2501757696118 1990.8908256450122
1900.9356332385796 1773.1667844865412
1901.620925487574 2197.0768714781325
1902.3060525576602 1898.720123396297
1902.9910144898859 1979.5851460429603
1903.6758113252872 1799.792941222374
1904.3604431048789 1974.6607979645366
1905.0449098696663 2069.7749621443427
1905.7292116606295 1814.836786507191
1906.4133485187394 1928.253331402874
1907.0973204849488 1730.1482752389625
1907.7811276001976 1630.415693516535
1908.4647699053967 1879.4543579755198
1909.1482474414588 1871.239351826705
1909.8315602492694 1862.9173755720847
1910.5147083696957 2018.9236605762567
1911.1976918436012 1853.2706812109016
1911.880510711815 1701.9781094270857
1912.5631650151681 2083.5786085672107
1913.2456547944657 1788.3379849677046
1913.927980090495 1672.4814999522125
1914.6101409440362 1814.8636943239242
1915.2921373958416 1915.90798750201
1915.9739694866603 1968.1481299307416
1916.655637257214 2165.7065998953667
1917.3371407482136 1975.7513009549868
1918.0184800003572 2159.7163275942794
1918.6996550543154 1954.5713311825252
1919.3806659507554 1892.8312734703627
1920.0615127303208 1881.9611088193756
1920.7421954336423 2095.7353978013202
1921.4227141013343 2130.327991988869
1922.103068773993 1885.0748345281004
1922.783259492202 1978.1862619155756
1923.4632862965227 1804.3424998340865
1924.1431492275078 1968.4558392336166
1924.8228483256917 1699.5165586934727
1925.5023836315922 1849.0441275771143
1926.1817551857057 1638.5891350069833
1926.8609630285227 2094.8334728048617
1927.5400072005123 1978.8173769126067
1928.218887742125 1707.3646982722046
1928.8976046938005 1699.6521651113103
1929.5761580959588 1957.3922260087886
1930.2545479890086 1891.971056567388
1930.9327744133352 1682.7115277654661
1931.6108374093164 1823.9522703518073
1932.2887370173066 1726.7332958363622
1932.9664732776473 1629.2451754440822
1933.6440462306673 1911.4953646556346
1934.3214559166754 1832.2923585030228
1934.9987023759659 2111.463291806008
1935.675785648813 1959.2736725026875
1936.3527057754836 1589.6365919797477
1937.029462796223 1647.3094055003269
1937.70605675126 1705.143934626006
1938.3824876808085 1853.5141965984226
1939.058755625072 1726.0909526215114
1939.7348606242267 1916.8355933309813
1940.4108027184448 1943.8619185167918
1941.0865819478713 2107.596064518476
1941.7621983526478 1746.4780285541772
1942.4376519728921 1754.2144487755625
1943.1129428487038 1760.9792108802988
1943.7880710201734 1901.1453212367364
1944.4630365273733 1918.562618203479
1945.1378394103576 1653.14358677279
1945.8124797091714 1663.4780727633108
1946.4869574638324 1673.7749008312808
1947.161272714353 1794.0241460772609
1947.8354255007234 1955.9762220013151
1948.5094158629272 1695.8201748205622
1949.1832438409183 1923.7119848328944
1949.8569094746435 2160.7217282873853
1950.530412804037 2001.7794648488496
1951.2037538690092 1993.8648133101367
1951.8769327094578 1867.4669721242913
1952.5499493652678 1790.356335511379
1953.222803876306 1903.6438466794139
1953.895496282421 1942.0861893413173
1954.5680266234522 1844.137326601697
1955.2403949392155 1958.4252854257343
1955.9126012695142 1679.8065323994165
1956.5846456541403 1874.0798416130897
1957.2565281328643 1786.437940737277
1957.9282487454457 1952.779762274737
1958.5998075316202 1983.522216925105
1959.27120453112 1666.031187408292
1959.9424397836501 1843.6343707908225
1960.613513328908 1860.8084394959344
1961.2844252065697 2114.3925542084285
1961.9551754563017 1670.3557147588213
1962.6257641177453 1724.6271103767424
1963.29619123054 1669.772776246308
1963.966456834296 1843.956291585746
1964.6365609686181 1625.5639131488547
1965.306503673086 1922.9023960805348
1965.976284987275 1689.4198765615088
1966.645904950734 1811.5331541828618
1967.315363603002 1571.73094916353
1967.9846609836077 1814.1461022619883
1968.6537971320486 1698.352801660801
1969.3227720878222 1785.8119457555385
1969.9915858904042 1785.3868274302938
1970.660238579252 1915.4204837567675
1971.3287301938108 1761.9810005353295
1971.997060773514 1782.6275731113485
1972.665230357772 1586.8025220268905
1973.3332389859843 1652.3276078587846
1974.0010866975335 1646.7441041753584
1974.6687735317864 1776.1363813649568
1975.3362995280932 1909.7240654008413
1976.003664725793 1911.3022752073089
1976.6708691642052 1530.9086250392013
1977.3379128826364 1754.8382098528375
1978.004795920373 2025.737488312526
1978.6715183166925 1754.925365042686
1979.3380801108524 2006.6200074935768
1980.0044813420973 1803.8527813414407
1980.6707220496555 1532.5680839458842
1981.3368022727373 1787.381410314559
1982.0027220505417 1806.8332388831914
1982.66848142225 1380.2397565087986
1983.3340804270283 1591.8687205983915
1983.999519104027 1717.7636563652093
1984.6647974923835 1758.6393293656001
1985.329915631215 1950.249671100563
1985.99487355963 1721.8997885907634
1986.6596713167146 1963.022654250389
1987.3243089415428 1696.829869793322
1987.9887864731754 2032.9988056269608
1988.6531039506553 1987.3008596319403
1989.3172614130071 1941.5355084675175
1989.9812588992481 1786.560877292004
1990.645096448372 1466.4456814555665
1991.3087740993633 1776.6076327317794
1991.9722918911848 1675.880709302878
1992.635649862792 1826.5683084467314
1993.2988480531185 1821.2039371880735
1993.9618865010852 1769.1351088068666
1994.6247652455968 1717.0394570323583
1995.287484325545 1701.5904662590533
1995.9500437798033 1579.118501395792
1996.6124436472292 1687.1568143954853
1997.2746839666706 1847.6205327986304
1997.936764776954 1689.1877880280608
1998.598686116895 1667.6526691154327
1999.2604480252903 2060.465998210289
1999.9220505409212 1831.7419781209308
2000.5834937025593 1619.883489405414
2001.2447775489582 1720.3386563997415
2001.9059021188514 1883.6932196777439
2002.5668674509616 1606.9263668805888
2003.2276735839987 1734.0492781472744
2003.8883205566508 1861.2526931121313
2004.5488084075987 1674.4610216135884
2005.2091371755014 1793.481930978124
2005.8693068990033 1939.1343746415182
2006.5293176167397 1586.537106283045
2007.1891693673224 1732.5499890225838
2007.848862189354 1592.123175411026
2008.5083961214223 1687.3126608873972
2009.1677712020955 1585.269941206047
2009.8269874699254 1527.8575230301908
2010.4860449634598 1530.3335823464881
2011.1449437212177 1532.9063451085995
2011.8036837817108 1794.2731128788032
2012.4622651834325 1811.5285901109103
2013.1206879648653 1749.2345434636427
2013.7789521644736 1906.2344112065123
2014.4370578207036 1491.6843672618322
2015.0950049719922 1616.1132792069611
2015.7527936567585 1826.3082745680044
2016.4104239134067 1693.7796637065373
2017.067895780323 2030.4578748542997
2017.725209295886 1993.0542250281492
2018.3823644984514 1955.497898730248
2019.0393614263648 1837.0766654619335
2019.6962001179545 1754.4720580708254
2020.3528806115355 1814.3538904196637
2021.0094029454067 1764.5602539575182
2021.6657671578487 1533.1092617165993
2022.321973287133 1716.0145314446083
2022.9780213715148 1647.8328822605358
2023.6339114492293 1640.68173330403
2024.2896435585026 1829.136734464361
2024.9452177375442 1641.6573295839983
2025.600634024544 1792.0908276692367
2026.2558924576842 1783.2714281772357
2026.9109930751292 1863.1371776164463
2027.565935915025 1679.9909319404728
2028.2207210155066 2008.4689291410239
2028.8753484146964 1903.1496756878344
2029.529818150695 1460.9118066283281
2030.1841302615903 1916.9681715213878
2030.8382847854573 1513.5102751943393
2031.4922817603601 1740.975942579455
2032.1461212243357 1720.217524032143
2032.7998032154192 1500.7118890780066
2033.4533277716218 1607.650723413276
2034.1066949309443 1546.516109894748
2034.7599047313688 1613.7938913841047
2035.4129572108704 1762.5198158160179
2036.0658524074006 1658.1213650915429
2036.7185903589016 1780.6291376176682
2037.3711711032956 1882.4533829861762
2038.023594678496 1762.6815391290936
2038.675861122394 1618.5475352649332
2039.3279704728757 1767.4606986038193
2039.9799227678031 1617.8076789865402
2040.6317180450278 1622.0534412334566
2041.2833563423865 1790.709756944907
2041.9348376977014 2028.7196308072519
2042.5861621487784 1806.3502114518956
2043.2373297334088 1865.3046369091091
2043.8883404893695 1822.6932530611261
2044.5391944544208 1777.583320053766
2045.1898916663158 1907.714325597232
2045.8404321627804 2011.0309843038315
2046.4908159815368 1593.734845385453
2047.1410431602853 1409.8862092703841
2047.7911137367173 1409.5467935176969
2048.441027748504 1535.8540474344568
2049.090785233302 1662.2263268820193
2049.7403862287592 1551.8474840696044
2050.389830772503 1419.485083616036
2051.0391189021466 1810.0269362707863
2051.688250655294 1696.8978880280495
2052.337226069527 1596.6863076911861
2052.986045182417 1822.8806695854134
2053.634708031521 1452.5601967360435
2054.283214654375 1740.1099347475945
2054.931565088511 1460.6761161249083
2055.579759371436 1550.0364558593692
2056.2277975406523 1641.733302793579
2056.8756796336384 1490.2469627369674
2057.5234056878617 1338.3657704672864
2058.1709757407752 1607.3402922209066
2058.8183898298194 1981.6403752438314
2059.465647992416 1753.222389959743
2060.1127502659747 1729.671367780252
2060.759696687888 1466.9558830968967
2061.4064872955405 1715.313723401785
2062.053122126292 1856.1258950897895
2062.699601217497 1714.8069485373865
2063.345924606485 1573.5293089019187
2063.992092330587 1831.5683809786867
2064.638104427102 1649.555390288556
2065.283960933324 1833.0067078009165
2065.92966188653 1730.420159242684
2066.5752073239855 1848.1956124877797
2067.2205972829397 1534.1190223251808
2067.86583180062 1714.4833761343514
2068.5109109142522 1649.2710521318786
2069.15583466104 1584.0158737131994
2069.8006030781708 1518.7015797615663
2070.445216202821 1608.2721570371828
2071.089674072153 1729.8272952121074
2071.7339767233116 1813.8610328322568
2072.3781241934303 1751.9489286362448
2073.0221165196253 1780.1909097728235
2073.6659537390024 1636.072105069242
2074.3096358886505 1772.9641635906494
2074.953163005637 1676.83533910609
2075.596535127028 1437.6214431215262
2076.2397522898664 1433.9629280408876
2076.882814531182 1620.4678842606859
2077.5257218879924 1607.753481016469
2078.1684743973 1537.6591927751392
2078.8110720960885 1691.2620258386264
2079.453515021336 1536.0885114783566
2080.095803209997 1735.7561386034693
2080.7379366990135 1667.7078796890128
2081.37991552532 1750.2321844904322
2082.0217397258275 1654.4343628061415
2082.6634093374414 1520.5629390892557
2083.3049243970418 1633.1579395131962
2083.9462849415067 1862.4291192811293
2084.587491007689 1654.931805423179
2085.2285426324324 1683.9299959743598
2085.869439852564 1625.255003162085
2086.510182704902 1568.8429590019362
2087.1507712262483 1694.064982864537
2087.791205453381 1439.4882806895675
2088.4314854230743 1693.4470555927062
2089.0716111720867 1806.2326799908114
2089.7115827371617 1833.8610202806315
2090.351400155023 1861.5968011703153
2090.991063462385 1600.3651172954665
2091.6305726959527 1618.807937902395
2092.2699278924047 1637.3673046431936
2092.9091290884153 1541.0804465964886
2093.548176320641 1406.0694496333492
2094.187069625721 1751.4552262568445
2094.8258090402887 1378.714614963817
2095.464394600951 1723.6585772064996
2096.102826344313 1576.537891753434
2096.741104306955 1489.5988284613454
2097.379228525453 1402.469365246107
2098.017199036358 1392.2564219412538
2098.6550158762147 1789.8083772491373
2099.2926790815527 1758.7282593276989
2099.9301886888825 1625.9697690990124
2100.5675447347076 1517.7352882653072
2101.2047472555114 1772.6545336913343
2101.841796287761 1535.1788818306372
2102.47869186792 1507.1639335586556
2103.1154340324265 1626.355399075571
2103.752022817709 1497.3600397865591
2104.388458260184 1457.3502745776793
2105.024740396251 1525.6872287992167
2105.660869262292 1504.7402135130117
2106.296844894685 1545.2688145275765
2106.93266732978 1585.9285770019956
2107.5683366039284 1512.4157616755242
2108.2038527534532 1613.7288077540745
2108.8392158146726 1837.7126125724233
2109.4744258238843 1685.0504921275174
2110.1094828173755 1546.4591073115146
2110.744386831422 1624.347223005225
2111.3791379022787 1702.4651998157865
2112.01373606619 1709.5526875570863
2112.648181359389 1762.603810770773
2113.28247381809 1858.1391716344883
2113.916613478492 1594.9818322076799
2114.550600376786 1855.4817094762882
2115.1844345491445 1516.1460499029304
2115.818116031729 1483.7570709942538
2116.451644860679 1585.1792538169514
2117.085021072133 1563.5928112523193
2117.718244702204 1649.2684586841558
2118.3513157869984 1612.882487380111
2118.984234362604 1593.4712303360748
2119.617000465092 1472.4236710130392
2120.249614130529 1684.1717889424115
2120.8820753949585 1637.7147968526801
2121.5143842944162 1506.6206338712018
2122.14654086492 1519.0105091424405
2122.7785451424734 1390.2787596110697
2123.4103971630702 1650.11573644588
2124.042096962681 1522.8180957118047
2124.6736445772767 1692.5148627326537
2125.305040042802 1626.9057420658787
2125.936283395191 1460.9603670507063
2126.567374670365 1693.1591317906173
2127.198313904233 1566.3084679716367
2127.8291011326855 1505.369545700865
2128.4597363916037 1444.1242371578433
2129.0902197168507 1513.7678243427479
2129.720551144279 1565.9663351175425
2130.3507307097225 1792.4430941913245
2130.980758449008 1764.9373025527232
2131.6106343979427 1780.3127762835381
2132.2403585923203 1795.6134078920454
2132.8699310679276 1780.2896850671175
2133.499351860526 1627.5778136689182
2134.1286210058715 1653.3518941753834
2134.7577385397053 1738.5634306488664
2135.3867044977487 1823.9470190688771
2136.0155189157176 1932.6917634204303
2136.644181829308 1711.1384553725588
2137.2726932742025 1632.2226781947788
2137.901053286074 1839.2049722776592
2138.5292619005777 1464.2159320884757
2139.1573191533535 1432.838513631713
2139.7852250800315 1766.0803119859454
2140.4129797162295 1771.4833397533876
2141.0405830975433 1386.4094821155381
2141.6680352595613 1481.0370713615541
2142.2953362378576 1575.862819141208
2142.9224860679915 1355.0443343978009
2143.549484785508 1543.531933630279
2144.1763324259373 1674.1490903679103
2144.803029024799 1568.0335325768763
2145.429574617594 1388.0905896028953
2146.0559692398165 1608.8159517071595
2146.682212926942 1510.9448234268386
2147.308305714432 1518.3097956650013
2147.9342476377333 1680.7529167762677
2148.5600387322847 1918.4264133562524
2149.185679033506 1714.5848967445168
2149.8111685768017 1423.9467512699512
2150.4365073975678 1396.9723219107154
2151.061695531187 1459.4408691928109
2151.686733013021 1550.9062513295116
2152.311619878423 1642.6560523085695
2152.9363561627342 1557.3238639929361
2153.560941901278 1396.1548213770682
2154.1853771293663 1462.8498123272595
2154.809661882293 1751.5451402132378
2155.433796195348 1609.4967283568058
2156.0577801037944 1964.4253750367684
2156.681613642895 1800.7193541944246
2157.3052968478896 1533.8738037309245
2157.928829754006 1732.5843311713325
2158.552212396462 1715.2567695976347
2159.1754448104566 1607.890675361355
2159.7985270311783 1438.7210774427324
2160.4214590938027 1077.3693796470177
2161.0442410334927 1151.7533313323079
2161.6668728853874 1245.0784357120451
2162.289354684628 1338.623388003488
2162.911686466332 1563.6800984958218
2163.533868265602 1686.8119795726561
2164.1559001175337 1922.8594936898328
2164.7777820572046 1592.357888736606
2165.399514119681 1405.3707863442746
2166.021096340013 1540.2765423915191
2166.6425287532384 1871.7600477475357
2167.263811394385 1492.0661186640837
2167.8849442984574 1813.8932820763953
2168.505927500455 1577.1652347108857
2169.126761035366 1624.6709888557348
2169.7474449381552 1331.3109982401966
2170.367979243778 1145.9201096501022
2170.9883639871823 1843.405637247363
2171.608599203293 1423.3636526342798
2172.2286849270276 1911.5526261220555
2172.8486211932886 2097.0111547396755
2173.4684080369625 1610.8846684188893
2174.0880454929265 1397.8712819632703
2174.7075335960417 1160.5225230825254
2175.3268723811543 1245.9539578329761
2175.9460618831 1331.6182236824125
2176.565102136701 1652.8885755222095
2177.1839931767627 1945.8237308932512
2177.802735038078 1530.958022894226
2178.421327755432 1445.1304033869405
2179.0397713635866 1395.0385523650773
2179.658065897298 1550.3054293706489
2180.276211391305 1486.0615086294185
2180.8942078803357 1421.5863705274369
2181.5120553991 1629.4701956830145
2182.129753982299 1556.1946092875912
2182.7473036646206 1482.7626062887343
2183.3647044807367 1593.3208678681262
2183.9819564653044 1353.0144472181335
2184.599059652968 1593.1172321824415
2185.216014078367 1608.573589723413
2185.832819776113 1691.5550274572165
2186.4494767808137 1774.6366531463761
2187.065985127063 1519.3777537726844
2187.682344849436 1629.9254687671914
2188.298555982501 1417.8035967769783
2188.9146185608097 1579.1197894543552
2189.530532618901 1693.1231205698161
2190.1462981912937 1682.2575188389885
2190.761915312507 1758.4980609010586
2191.377384017036 1426.4418040913092
2191.9927043393654 1536.8058483949176
2192.6078763139667 1691.0987857053483
2193.2228999753006 1845.742083792767
2193.837775357808 1555.0792390105048
2194.452502495922 1324.0352685268176
2195.0670814240602 1566.4707561480257
2195.6815121766285 1359.6304615869021
2196.2957947880186 1311.586173173017
2196.9099292926057 1263.4494623550243
2197.523915724758 1477.9331932105306
2198.137754118825 1582.7654811287339
2198.7514445091456 1788.5074051150095
2199.3649869300443 1863.692764259757
2199.9783814158327 1939.1319979219356
2200.5916280008096 1768.5941586200563
2201.2047267192593 1702.93416661275
2201.8176776054515 1556.7007490808905
2202.430480693649 1342.077862968004
2203.0431360180955 1621.869002168557
2203.6556436130195 1432.5860683674514
2204.268003512645 1242.845544233821
2204.8802157511727 1445.6014103342554
2205.492280362796 1547.644334787784
2206.1041973816937 1650.0227089482428
2206.715966842032 1593.5585729274742
2207.3275887779655 1585.9930550663496
2207.93906322363 1543.1014020514929
2208.550390213153 1749.0261984695935
2209.1615697806465 1771.9315391233984
2209.7726019602105 1385.6410524614753
2210.3834867859277 1277.9387251182256
2210.9942242918787 1432.5583038338416
2211.6048145121167 1523.6271567347007
2212.2152574806914 2023.1314881811093
2212.825553231638 2054.3948897878763
2213.435701798975 2085.820468444382
2214.045703216707 1573.2914912078302
2214.655557518832 1115.5301628683744
2215.2652647393297 1173.234366606301
2215.874824912169 1349.7208866218978
2216.4842380713 1526.7543405770498
2217.09350425067 1355.087823446428
2217.7026234842033 1705.7816683842907
2218.311595805819 1646.6020425535353
2218.9204212494133 1632.8833044920302
2219.52909984888 1697.6433793885874
2220.137631638092 1268.708833421331
2220.7460166509154 1287.8879117111976
2221.354254921198 1307.0437992900922
2221.9623464827764 1657.013284356644
2222.5702913694713 1470.3653411353112
2223.178089615096 1824.0076028644867
2223.7857412534486 1509.0842868446248
2224.39324631831 1207.970975370154
2225.000604843457 1334.4992728123918
2225.607816862641 1412.1285187085443
2226.214882409611 1489.8045742412492
2226.8218015180973 1736.5973539531333
2227.4285742218217 1468.739866037477
2228.0352005544864 1578.1471957187182
2228.6416805497847 1395.1324049435348
2229.248014241399 1323.4328996482143
2229.8542016629945 1466.1740221789544
2230.460242848223 1622.1469558701579
2231.0661378307304 1512.078575051069
2231.671886644139 1401.9226137570054
2232.277489322065 1341.7815284527571
2232.8829458981127 1041.711403517228
2233.48825640587 1480.2488883956228
2234.0934208789095 1898.9872285589129
2234.6984393507955 1675.9394179127025
2235.3033118550793 1576.5292825402948
2235.9080384252975 1657.910549007461
2236.5126190949723 1314.6656678213585
2237.1170538976166 1491.035288915778
2237.721342866729 1275.8494138625329
2238.32548603579 1377.86775915353
2238.9294834382763 1493.2171514101794
2239.533335107646 1500.2663871008324
2240.1370410773434 1388.4935751055916
2240.740601380803 1332.3257946093138
2241.3440160514474 1613.9964262035062
2241.9472851226783 1704.9982638653807
2242.550408627896 1624.001787789861
2243.1533866004793 1511.2305201548938
2243.756219073799 1398.2918936373026
2244.3589060812064 1415.7480040791565
2244.961447656049 1428.8285461071134
2245.5638438316564 1628.2042370316726
2246.166094641343 1465.5217446879528
2246.7682001184166 1351.434676955404
2247.3701602961664 1401.6894817555196
2247.971975207871 1713.202976825185
2248.5736448867974 1554.4548612167791
2249.175169366197 1453.320577446021
2249.7765486793123 1557.2612789194322
2250.3777828593684 1604.681907617502
2250.9788719395783 1438.9584451349062
2251.579815953146 1487.6645953228488
2252.1806149332606 1237.9172807667078
2252.781268913097 1552.2413680150498
2253.381777925817 1373.889637229681
2253.9821420045737 1622.888903403504
2254.5823611825035 1592.4888090680693
2255.1824354927303 1533.6423003466114
2255.782364968365 1444.056822912191
2256.38214964251 1354.3923494555697
2256.9817895482483 1388.3990717398797
2257.5812847186553 1455.531640953472
2258.180635186791 1368.06889229562
2258.779840985704 1339.151806286198
2259.37890214843 1435.137062757493
2259.97781870799 1782.8771778353407
2260.5765906973957 1621.6450409815993
2261.175218149645 1526.5155431917858
2261.773701097718 1734.7806569656434
2262.3720395745895 1365.898583813743
2262.970233613216 1314.064673770059
2263.568283246548 1498.2964166712636
2264.1661885075137 1211.5135928948023
2264.763949429038 1362.4862381148362
2265.3615660440246 1800.4265744772376
2265.959038385374 1381.0852208123576
2266.5563664859637 1769.5593864181378
2267.153550378669 1398.3600072828897
2267.7505900963424 1547.1629270664564
2268.3474856718312 1449.5545700164969
2268.9442371379664 1368.6315818605374
2269.5408445275643 1405.1494998789956
2270.1373078734377 1564.0285565764568
2270.7336272083758 1365.3111441491824
2271.32980256516 1274.880000584134
2271.925833976562 1584.302277794674
2272.5217214753357 1725.5360081068152
2273.117465094223 1343.2665613782085
2273.7130648659586 1375.3339653787766
2274.308520823257 1413.6122418288169
2274.903832998827 1610.6263842991355
2275.4990014253563 1647.6491362366128
2276.094026135528 1684.7120214584052
2276.6889071620117 1355.6663972010194
2277.2836445374614 1547.0250862484074
2277.878238294519 1439.970306756671
2278.472688465812 1305.5781186482918
2279.066995083962 1170.9389508601118
2279.6611581815705 1405.979048644034
2280.255177791232 1628.977035234128
2280.8490539455233 1852.3881855375962
2281.442786677013 1881.9535419479828
2282.0363760182554 1686.0730933853247
2282.6298220017943 1396.4778689953332
2283.223124660155 1572.5877227369424
2283.816284025859 1474.4337428303138
2284.4093001314086 1713.6766756997372
2285.002173009292 1516.9876053524526
2285.5949026919952 1689.5160018510164
2286.1874892119777 1523.6642017130353
2286.7799326016993 1639.971733103439
2287.3722328936 1256.6397300194674
2287.964390120109 1078.5294288184798
2288.556404313642 1764.4789711917067
2289.1482755066027 1918.8452211536169
2289.7400037313873 1412.5191360156623
2290.3315890203703 1459.4046141546373
2290.9230314059205 1523.7534834801752
2291.5143309203904 1289.4374028560046
2292.1054875961236 1643.4457134307727
2292.6965014654506 1762.1907343782564
2293.287372560684 1442.0943097836198
2293.878100914131 1449.1643128319251
2294.468686558086 1456.2960764781053
2295.059129524827 1397.4587892645695
2295.649429846617 1445.1679004219557
2296.239587555716 1492.9390804163588
2296.8296026843636 1513.6044701738351
2297.419475264791 1478.3236948377094
2298.0092053292137 1442.8854702108908
2298.598792909839 1594.4925869451893
2299.1882380388597 1470.827763292014
2299.777540748455 1459.0461451512601
2300.3667010707904 1447.1552290805598
2300.9557190380256 1762.4502659903658
2301.544594682302 1552.3276745067446
2302.1333280357503 1341.9549224157277
2302.721919130485 1509.8113544793937
2303.3103679986198 1968.984127226006
2303.898674672242 1899.5725458948968
2304.486839183437 1747.346949576789
2305.0748615642697 1595.0602447927072
2305.6627418468015 1385.3451054532445
2306.2504800630704 1592.035098824333
2306.8380762451143 1493.5877157029638
2307.425530424949 1490.4484565144253
2308.012842634582 1487.2903820909946
2308.6000129060103 1808.6636558633804
2309.187041271214 1916.3259621849343
2309.773927762164 1453.3713610828722
2310.3606724108213 1611.4246016976415
2310.9472752491274 1257.9525616160072
2311.5337363090184 1315.0085843714555
2312.120055622414 1372.2161989069925
2312.706233221221 1522.8491969919523
2313.2922691373424 1185.5638906575005
2313.8781634026564 1269.0457139068062
2314.463916049037 1352.7120292304203
2315.049527108342 1517.138999428305
2315.6349966124235 1813.6412798474987
2316.2203245931123 1705.3111086166846
2316.8055110822315 1357.4064709217212
2317.3905561115935 1294.4966831469835
2317.9754597129977 1512.6001029303227
2318.560221918229 1391.7721797521274
2319.1448427590603 1270.70029024986
2319.729322267256 1338.5923212730793
2320.313660474563 1371.822181834299
2320.8978574127195 1506.7074452464801
2321.481913113452 1642.0248197067863
2322.0658276084705 1419.074099415741
2322.6496009294806 1444.4742510032556
2323.233233108165 1613.8438955475476
2323.8167241762058 1614.4387831311735
2324.4000741652617 1405.2456177130666
2324.983283106987 1617.0656268818034
2325.5663510330232 1632.471373154181
2326.1492779749933 1470.9204183722954
2326.7320639645204 1747.0656208848618
2327.3147090332004 1497.1844167752752
2327.897213212629 1507.5567515131086
2328.4795765343843 1517.828497549102
2329.0617990300307 1226.3561063236077
2329.643880731124 1807.2345817072542
2330.22582166921 1348.122516162765
2330.807621875816 1190.7746780098234
2331.3892813824623 1033.2775357368137
2331.9708002206517 1305.6873430321032
2332.5521784218818 1651.730593219149
2333.133416017634 1396.7185164782654
2333.7145130393765 1647.5180595444508
2334.295469518571 1898.887893676325
2334.876285486658 1720.1707056511295
2335.456960975076 1743.4193881346714
2336.037496015242 1766.750235132769
2336.6178906385667 1559.9930877128716
2337.198144876451 1536.1152273607793
2337.778258760278 1543.066654414551
2338.3582323214214 1600.691552511737
2338.938065591243 1658.410196103047
2339.517758601087 1837.5570004997032
2340.0973113822965 1582.7972725339982
2340.676723966193 1668.9747106405844
2341.255996384094 1649.9630676991662
2341.835128667295 1641.2711848027768
2342.4141208470883 1687.9244104378765
2342.992972954751 1393.4803038191212
2343.5716850215467 1483.3103179454324
2344.1502570787306 1120.3281420247122
2344.7286891575386 1043.2073606008623
2345.3069812892045 1333.5842727463846
2345.885133504944 1624.34621623892
2346.4631458359618 1642.9335672446493
2347.04101831345 1306.0050880474814
2347.6187509685915 1529.9800729239598
2348.196343832553 1372.1561163002254
2348.7737969364935 1407.0280390984335
2349.351110311558 1441.9719104626297
2349.9282839888765 1406.217515865216
2350.5053179995757 1164.092640939559
2351.0822123747585 1226.234824592222
2351.658967145526 1206.2077052851507
2352.2355823429643 1186.2174237945676
2352.812057998144 1619.0262233251294
2353.3883941421263 1467.7831556605474
2353.9645908059647 1754.1538449888296
2354.540648020693 1537.7432834442805
2355.116565817336 1705.0701274338112
2355.6923442269126 1872.7846035255625
2356.2679832804224 1631.117685642111
2356.8434830088518 1473.746644284494
2357.41884344318 1501.8165893630414
2357.994064614377 1595.4245336042895
