#exp_cfg={"servo_angle": 0.0, "laser_lim": 100.0, "servo_angle_to": 18.0, "laser_wup": 0.0, "bt_dev": "EnSpectr-25AE3", "laser_wdn_max": 0.0, "frames": 10.0, "servo_used": 0, "servo_calib_use": 0, "laser_wdn_min": 0.0, "servo_pix_from": 90.0, "cooler_tout": 300.0, "servo_angle_from": 0.0, "servo_calib": "[-1.9174921013161362e-09, 3.9322238269163779e-05, -0.27385609119055809, 653.59552119713567]", "laser_autoctl": 0, "servo_pix_to": 3682.0, "laser_pw": 100.0, "cooler_on": 0, "laser_volt": 4.0, "cooler_autoctl": 0, "cooler_curr": 70.0, "cooler_startup": 10.0, "laser_fixed_pw": 0, "gain": 1.3, "offset": 2.53059635486, "servo_calib_degree": 3.0, "laser_curr": 55.0, "shutter": 8200.0, "servo_calib_step": 1.0, "laser_fixed_curr": 0, "exp": 2000.0, "ccd_volt": 4.7, "bt_addr": "00:06:66:62:5A:E3", "servo_delay": 500.0, "laser_autooff": 1}
#proc_cfg={"flat_auto_wnd": 200.0, "flat_auto_fr": 200.0, "flat_auto_shift": 5.0, "yconv": 1, "flatten": 1, "flatten_strength": 100.0, "xfrom": 300.0, "auto_max_frame": 2000.0, "auto_signal": 48000.0, "flat_auto_tol": 0.1, "autoclip": 1, "xrel_range": 0.0, "flat_auto_to": 4000.0, "intensity_adj": 1.0, "xrel": 7852.0, "rmhot": 1, "flat_auto_slit": 4.999999999999997, "auto_ini_exp": 300.0, "auto_off": 0, "xto": 2860.0, "flat_auto_ref": "", "flat_auto_rank": 1, "autobackg": 0, "xrel_adj": 0.0, "auto_black_lvl": 1, "base_wnd": 100.0, "sub_baseline": 0, "xconv": 2, "auto_max_exp": 1000.0, "auto_total_exp": 10000.0, "auto_exp": 0, "rmripple": 0, "black_lvl": 8212.7125, "shutter_clip_adj": 0.0, "auto_bckg": 0, "flat_auto_thr": 0.9, "subbackg": 1}
316.8218498245369 21987.58556113389
317.89969571804795 21724.610297317922
318.977263876126 21717.47624959753
320.05455438786703 21575.889161627492
321.1315673423287 21486.166540520306
322.2083028285215 21496.69192585995
323.2847609354267 21317.529919269593
324.3609417519747 21292.479345983906
325.43684536705587 21250.413905380472
326.5124718695279 21116.168192521378
327.58782134820103 20961.429926239736
328.66289389184385 21036.214669579196
329.7376895891921 20872.007264443095
330.8122085289342 20863.520863700116
331.88645079971866 20794.906256458584
332.9604164901575 20744.279283634827
334.03410568881554 20600.78300753826
335.1075184842266 20691.54070117525
336.18065496487543 20499.201093436728
337.2535152192122 20437.67852209618
338.32609933564163 20422.212464846692
339.39840740253203 20240.41994302643
340.4704395082099 20292.42044250709
341.5421957409617 20139.68457429754
342.6136761890357 20188.545933695343
343.6848809406365 20114.199808139325
344.75581008392874 19984.008825695786
345.82646370703696 19920.50698961906
346.8968418980512 19928.930608279425
347.96694474501055 20034.304316096786
349.0367723359268 20036.080876710363
350.106324758759 19827.44232681775
351.1756021014353 19845.136643495476
352.2446044518383 19801.77097468574
353.31333189781435 19868.607601115647
354.38178452716966 19765.203833733533
355.449962427665 19837.25693976095
356.51786568702846 19762.206461372953
357.58549439294256 19902.52682499455
358.6528486330535 19774.446719509342
359.71992849496564 19718.14727191094
360.7867340662433 19788.38774377807
361.8532654344144 19775.828504764624
362.9195226869597 19860.873817680895
363.9855059113288 19794.31121701144
365.05121519492604 19676.99209341843
366.11665062511565 19847.63484971803
367.1818122892273 19736.23109631862
368.2467002745434 19727.785750371695
369.31131466831175 19804.029881318354
370.375655557742 19821.460870956093
371.4397230299983 19820.787285974944
372.5035171722102 19787.54143592548
373.5670380714637 19823.1154955827
374.6302858148101 19759.4377442695
375.6932604892554 19823.435191388457
376.7559621817709 19889.646978374483
377.81839097928605 19732.98469479598
378.8805469686886 19728.811290353322
379.94243023683157 19784.929342978394
381.0040408705263 19664.742998074296
382.0653789565458 19617.54444501253
383.1264445816196 19700.749146050446
384.1872378324406 19681.515786547337
385.2477587956637 19615.499507618213
386.3080075579037 19455.128767223832
387.3679842057336 19442.010126011388
388.4276888256918 19366.931639568636
389.48712150426945 19437.17611994475
390.54628232792857 19309.985342055814
391.6051713830857 19323.02668618979
392.66378875611736 19322.248026316287
393.7221345333637 19311.27087376835
394.7802088011249 19301.275878705703
395.838011645661 19251.5130983449
396.89554315319765 19001.59994878187
397.9528034099112 19162.23255503706
399.00979250194723 19003.585295539153
400.06651051541485 18943.07299794588
401.1229575363741 18896.826930030216
402.17913365085224 18987.25974114013
403.23503894483656 18912.597210553893
404.2906735042761 18913.90061761365
405.3460374150818 18763.621566410082
406.401130763119 18777.694952411584
407.455953634224 18781.20225745785
408.5105061141876 18615.496658495646
409.56478828876243 18605.655951376662
410.6188002436629 18583.258237769944
411.6725420645689 18556.785634220698
412.72601383711117 18583.6351395608
413.77921564689314 18572.219831064125
414.8321475794728 18453.359978874618
415.88480972036814 18370.474249641535
416.93720215506437 18345.785989510976
417.9893249690049 18385.502022790257
419.04117824759123 18261.82135986998
420.09276207619223 18334.102109595282
421.144076540133 18201.537721722543
422.1951217247042 18249.10586379698
423.24589771515275 18180.169719659923
424.2964045966928 18082.85758363291
425.34664245449494 18119.08167222804
426.3966113736933 17987.409126078695
427.4463114393875 18034.54902791994
428.49574273662984 17912.394036929236
429.5449053504417 17910.879450171513
430.5937993658026 17880.767614723027
431.6424248676558 17800.535679385062
432.6907819409007 17860.96550562184
433.73887067040596 17797.047051632344
434.7866911409965 17809.39013885943
435.8342434374608 17812.419406675494
436.88152764455117 17661.407910710062
437.9285438469724 17730.299309664508
438.9752921294057 17583.979763604522
440.02177257648145 17578.758288702025
441.06798527279716 17607.099292950457
442.1139303029122 17591.1291312151
443.1596077513459 17566.041284560466
444.2050177025794 17606.173301519237
445.25016024105753 17511.727781135785
446.2950354511886 17485.112768055857
447.33964341733736 17533.593331249278
448.383984223834 17407.305333669567
449.4280579549686 17393.251927969945
450.471864694995 17580.6851767604
451.5154045281306 17433.817953383135
452.5586775385509 17462.104784767114
453.60168381039693 17397.624554867074
454.64442342776783 17529.110692180835
455.6868964747264 17364.21025276928
456.7291030353008 17316.831546748326
457.77104319347563 17323.88957857699
458.8127170332027 17278.4387086072
459.854124638392 17349.3388550194
460.895266092919 17446.204700401668
461.93614148061897 17374.13178621031
462.97675088529104 17443.454858119636
464.01709439069236 17362.897002515318
465.0571720805492 17442.424551421453
466.0969840385442 17441.88503224078
467.1365303483253 17487.34903895327
468.17581109350067 17468.999380316407
469.2148263576437 17476.46711054317
470.2535762242878 17457.27338906654
471.29206077693016 17463.15533662927
472.33028009902773 17561.239566927983
473.3682342740012 17582.930222796458
474.40592338523857 17646.200060913638
475.4433475160804 17722.861475037287
476.4805067498364 17764.80110528171
477.51740116978 17847.803102070797
478.5540308591426 17997.72555080359
479.59039590112116 18117.284459732884
480.6264963788726 18159.762632721926
481.6623323755193 18475.942639230787
482.6979039741436 18435.19779346311
483.7332112577915 18761.816590827228
484.76825430947247 18942.51614069141
485.80303321215797 19175.421959918545
486.837548048783 19286.03307924961
487.8717989022425 19505.731622928644
488.90578585539697 19539.081012523533
489.9395089910686 19723.22075390625
490.97296839203955 19560.864768638883
492.00616414106116 19540.92076520829
493.0390963208429 19524.573087977922
494.0717650140559 19429.56624530153
495.10417030333883 19352.581652926187
496.1363122712901 19037.22720979983
497.16819100046814 18872.212957185733
498.1998065734024 18670.568797801992
499.2311590725767 18547.124752065014
500.26224858044407 18374.213406017963
501.2930751794156 18203.879303329344
502.3236389518679 18041.47715399767
503.35393998014115 17891.64972518583
504.38397834653733 17740.210691784476
505.4137541333221 17644.021921967993
506.4432674227228 17505.24231659144
507.4725182969323 17367.738782071552
508.5015068381035 17294.06475572405
509.53023312835467 17232.71061059832
510.55869724976765 17266.78131040805
511.58689928438434 17095.938664839367
512.6148393142121 17051.814866099394
513.6425174212218 17137.84842475992
514.6699336873462 17076.36068584334
515.6970881944835 16966.69698738378
516.7239810244901 16994.40647775899
517.7506122591931 16872.752419404
518.7769819803761 16998.864431256
519.8030902697901 16860.814797643565
520.8289372091476 16980.06797531798
521.8545228801249 16960.652228096827
522.8798473643619 16940.166177213658
523.9049107434621 16975.45970143083
524.9297130989908 16839.564287990364
525.9542545124805 16865.451533748477
526.9785350654201 16854.294119615697
528.0025548392696 16901.948021864875
529.0263139154504 16692.870203648923
530.0498123753423 16718.352754253472
531.073050300296 16624.810511452346
532.0960277716204 16664.600936059673
533.1187448705896 16630.729856886308
534.1412016784416 16471.748883227458
535.1633982763833 16509.01937676726
536.1853347455726 16358.51893624333
537.2070111671401 16336.064998630416
538.2284276221817 16356.194168374353
539.2495841917516 16329.33712556937
540.2704809568677 16246.074547063326
541.2911179985167 16235.127843774093
542.3114953976419 16127.574137529897
543.3316132351592 16143.413013800015
544.3514715919409 15971.004738490621
545.3710705488247 16026.869513022863
546.3904101866156 16008.223205428589
547.4094905860784 16047.99629380052
548.4283118279418 15978.41099307948
549.4468739929034 16006.970021689518
550.4651771616191 15920.474481356689
551.4832214147063 15932.086530011362
552.501006832761 15913.273996694721
553.5185334963226 15915.01116669695
554.5358014859103 15878.37729943596
555.5528108820035 15874.545870121627
556.5695617650363 15858.658115077333
557.5860542154242 15939.153627238271
558.6022883135283 15846.376764638819
559.6182641396881 15782.510939057018
560.6339817741991 15800.259802172473
561.6494412973225 15821.743987382622
562.6646427892883 15845.53284101908
563.6795863302796 15743.272746169348
564.694272000459 15671.755011093826
565.7086998799423 15800.006456540368
566.7228700488104 15721.860827319546
567.7367825871115 15772.533588083239
568.7504375748576 15651.52194238031
569.7638350920224 15788.196189309394
570.7769752185486 15779.165265473512
571.7898580343353 15799.705349038593
572.802483619258 15731.019205388895
573.8148520531431 15968.623897386124
574.8269634157932 15836.394855745355
575.8388177869692 15943.962532055742
576.8504152463938 16010.868257212505
577.8617558737587 16124.48886561275
578.8728397487175 16122.439860381352
579.883666950891 16223.128012213612
580.8942375598654 16288.065001435349
581.9045516551851 16420.152466784722
582.9146093163617 16636.982707122617
583.924410622878 16740.02558385966
584.9339556541727 16662.583776671483
585.9432444896538 16738.924904988005
586.9522772086875 16565.885309705463
587.9610538906127 16750.354432225417
588.9695746147318 16556.927409447217
589.9778394603054 16669.037141596935
590.985848506567 16487.34520015315
591.9936018327098 16408.396002137244
593.0010995178891 16258.68084762037
594.0083416412344 16279.574438277506
595.0153282818283 16180.690013993593
596.0220595187293 16045.185351986529
597.0285354309508 15978.395770221765
598.0347560974806 15883.92159827395
599.0407215972609 15875.704435520849
600.0464320092051 15845.505859964333
601.0518874121954 15810.860887483428
602.0570878850685 15816.962354201334
603.062033506636 15727.317120049149
604.0667243556636 15760.573253791834
605.0711605108936 15633.935203650582
606.0753420510264 15872.698654102307
607.0792690547278 15874.243315509022
608.082941600629 15845.411036335598
609.0863597673306 15717.871124870138
610.0895236333909 15987.824799922415
611.0924332773357 16100.473310718506
612.0950887776617 16081.939119854502
613.0974902128219 16221.325923459142
614.0996376612384 16176.675788665849
615.1015312013005 16415.499970225654
616.1031709113595 16559.16275566024
617.1045568697336 16552.176960691646
618.1056891547069 16875.963595790832
619.1065678445229 16973.060469564793
620.1071930173985 17238.107948340297
621.1075647515099 17345.54866294414
622.1076831250048 17540.509370767973
623.1075482159849 17731.273952206007
624.1071601025305 17968.926248591502
625.1065188626781 18131.517961066747
626.105624574433 18527.80191574706
627.1044773157682 18504.781162797735
628.1030771646128 18817.728673257072
629.1014241988742 18953.867534099852
630.0995184964158 19054.482676393094
631.0973601350688 19201.466153294597
632.0949491926294 19475.815343560862
633.0922857468631 19281.411595513455
634.089369875499 19227.968729303328
635.0862016562278 19305.641178487094
636.0827811667077 19136.08041007792
637.0791084845641 19160.96422220946
638.0751836873878 18974.08551464097
639.0710068527369 18835.826921969543
640.0665780581294 18618.919720868733
641.0618973810506 18399.866567224017
642.0569648989604 18253.489371874046
643.0517806892676 18026.038365306278
644.0463448293649 17826.521409788613
645.040657396592 17549.544344732953
646.0347184682723 17389.200315997514
647.0285281216875 17071.380678604157
648.0220864340772 16948.915060244235
649.0153934826558 16696.2116500511
650.0084493446047 16509.882847934074
651.0012540970674 16290.524779290223
651.9938078171526 16235.901878825855
652.9861105819346 16055.02156445999
653.9781624684565 16017.63790515123
654.9699635537254 15806.775924368054
655.9615139147136 15792.723792581135
656.9528136283589 15646.02534989754
657.9438627715699 15719.004645855908
658.9346614212154 15436.146920808675
659.925209654135 15228.291637340779
660.9155075471263 15300.009149968731
661.9055551769616 15316.137072128011
662.895352620375 15259.119087368095
663.8848999540678 15298.499740498193
664.8741972547068 14955.104100581753
665.863244598926 15017.146857382253
666.8520420633213 15150.035025168827
667.8405897244611 14952.551088028287
668.8288876588758 14833.618749733403
669.8169359430613 15034.027102429536
670.8047346534822 14948.480728160077
671.7922838665672 15018.941099493346
672.7795836587156 14981.943430405363
673.766634106285 15029.338382697752
674.7534352856092 14925.696138585667
675.7399872729766 14920.189663746944
676.7262901446538 14882.651899847338
677.712343976862 14919.135450462074
678.6981488457986 15070.023376672607
679.6837048276229 14984.430684708572
680.6690119984596 14861.33686238488
681.6540704344043 14877.215010696591
682.6388802115107 14812.244413282222
683.6234414058108 14797.560961509565
684.6077540932874 14769.865696115501
685.591818349907 14787.35603266829
686.575634251587 14696.433599169217
687.5592018742263 14615.038138774598
688.5425212936734 14485.298883853106
689.5255925857564 14665.769407297534
690.5084158262707 14516.882566164622
691.4909910909646 14470.518512466191
692.4733184555644 14360.97517945636
693.4553979957618 14381.978648807106
694.4372297872123 14250.765166394569
695.4188139055404 14200.69455307678
696.4001504263324 14143.907301886129
697.3812394251509 14326.439941587127
698.3620809775111 14211.87344595834
699.3426751589104 14165.808442976026
700.3230220448004 14165.333996124882
701.3031217106054 14190.664142219559
702.2829742317172 14183.381964775885
703.2625796834873 14074.056358588688
704.2419381412474 14089.896383168574
705.22104968028 14128.252566378967
706.1999143758458 14171.910979590199
707.178532303169 14035.157785727575
708.1569035374378 14208.570668832219
709.1350281538107 14185.462069737612
710.1129062274158 14218.585791473117
711.0905378333373 14317.522771222599
712.0679230466376 14359.259786074661
713.0450619423427 14449.632932750723
714.0219545954424 14468.053238881792
714.9986010808989 14406.950968528017
715.9750014736292 14637.060563875182
716.9511558485392 14746.817641285035
717.9270642804786 14753.081381004115
718.9027268442787 14850.27086439344
719.8781436147328 14740.798753957442
720.8533146666014 14868.368811395232
721.828240074612 14716.61824880328
722.8029199134635 14708.900020828258
723.7773542578125 14633.533539990012
724.751543182294 14551.494500274479
725.7254867615029 14369.965462440978
726.6991850700015 14365.76231248728
727.6726381823228 14293.11626808063
728.6458461729599 14222.264195414438
729.6188091163858 14244.239959352499
730.5915270870246 14192.013050056583
731.5640001592856 14209.738454490944
732.536228407529 14207.682231239363
733.5082119060917 14282.404176082386
734.4799507292755 14312.371998557976
735.4514449513481 14412.395473903085
736.4226946465496 14429.73610875299
737.3936998890786 14396.99671563059
738.3644607531078 14328.467108810899
739.3349773127793 14239.8355217327
740.3052496421951 14196.910016093578
741.27527781543 14141.169351528708
742.2450619065221 14000.526075527314
743.2146019894826 13909.678177960664
744.183898138288 13890.366409592829
745.1529504268801 13819.014083924607
746.1217589291682 13717.702307193587
747.0903237190341 13609.688912225969
748.058644870318 13601.855080571102
749.0267224568397 13584.339036682379
749.994556552374 13469.656187394245
750.9621472306771 13460.524107814339
751.9294945654583 13462.264675507458
752.8965986304011 13452.51607651095
753.8634594991636 13367.33566433758
754.8300772453586 13394.925605099274
755.7964519425768 13418.232319982446
756.762583664371 13432.423712455702
757.7284724842611 13339.0213240271
758.6941184757416 13343.256395080336
759.6595217122667 13347.009537142003
760.6246822672638 13440.037997796308
761.5896002141235 13327.88685337049
762.5542756262093 13352.820146874084
763.5187085768503 13272.142344719967
764.4828991393406 13301.80693298495
765.4468473869474 13278.493826249436
766.4105533929032 13209.568322605128
767.3740172304078 13126.422670508497
768.3372389726283 13202.76218050016
769.3002186926988 12992.288766255533
770.2629564637282 12937.925769188769
771.2254523587872 12950.99482036296
772.1877064509154 12883.67840723278
773.1497188131179 12780.133176967098
774.1114895183728 12710.96177876187
775.0730186396268 12678.638823376386
776.0343062497905 12597.284564155862
776.9953524217381 12571.540400760832
777.9561572283274 12561.661567153362
778.9167207423689 12555.939438887332
779.8770430366476 12549.864373611908
780.8371241839159 12649.453683913085
781.7969642568951 12579.292456432291
782.7565633282757 12717.065639682121
783.7159214707099 12528.468546584718
784.6750387568281 12545.44888720087
785.6339152592227 12553.034607562779
786.5925510504512 12489.873447290358
787.5509462030477 12490.978322705067
788.5091007895098 12539.242802096853
789.4670148823006 12477.210531090841
790.4246885538596 12550.022179465248
791.3821218765861 12529.237866855914
792.3393149228505 12454.384413976175
793.2962677649975 12403.658286750373
794.2529804753303 12598.662091654543
795.20945312613 12562.99095656076
796.1656857896378 12435.634574004562
797.1216785380675 12519.234739807625
798.0774314435985 12692.08446274439
799.0329445783846 12744.646566677484
799.9882180145414 12857.201426706464
800.9432518241574 12859.215849147526
801.89804607929 13061.864213632929
802.852600851962 13057.00402219281
803.8069162141637 13136.314104970694
804.760992237856 13101.551826951392
805.714828994971 13251.375382366658
806.6684265574077 13276.879468963514
807.6217849970271 13282.143917879803
808.574904385674 13180.478755073724
809.527784795142 13110.450351875057
810.4804262972102 13218.941461985925
811.4328289636178 13019.900408604963
812.3849928660748 12910.964875176698
813.3369180762638 12829.759093509467
814.2886046658241 12758.83591166926
815.2400527063783 12667.993684112196
816.1912622695108 12529.925079104403
817.1422334267718 12421.033872822918
818.0929662496856 12383.147504435427
819.0434608097457 12268.497061274522
819.9937171784059 12226.815751246333
820.9437354271013 12102.720353382483
821.8935156272255 12131.611876409612
822.8430578501484 12013.785188061865
823.7923621672016 11845.56869556957
824.7414286496896 11992.374360485719
825.6902573688876 11945.646545349353
826.6388483960363 11881.47539128915
827.5872018023492 11830.55820366358
828.5353176590033 11866.428641746816
829.4831960371503 11792.989815003672
830.4308370079016 11874.675753537227
831.3782406423525 11794.054505799979
832.3254070115545 11732.069942961783
833.2723361865319 11701.297220133747
834.2190282382799 11653.036520196623
835.1654832377644 11804.065894758747
836.1117012559116 11723.311022487762
837.0576823636256 11672.934243422047
838.003426631778 11573.560307643613
838.9489341312074 11685.764099995455
839.8942049327197 11613.41998502698
840.8392391070975 11691.016135334346
841.7840367250865 11646.430128500237
842.7285978573982 11595.417855820764
843.672922574724 11642.003843922928
844.6170109477152 11615.42192082083
845.560863046996 11547.0818174564
846.5044789431595 11646.450114815429
847.4478587067697 11613.849549338254
848.3910024083561 11688.879255685008
849.333910118421 11675.287251924163
850.2765819074339 11463.917865201929
851.2190178458332 11620.372045243266
852.161218004032 11611.653417256888
853.1031824524016 11618.40847466447
854.0449112612987 11599.877096409673
854.9864045010327 11592.316328693221
855.9276622418947 11596.151069376749
856.8686845541379 11603.967870043243
857.8094715079915 11499.549590166844
858.7500231736467 11586.951503463632
859.690339621271 11634.621429416142
860.6304209209939 11681.998432441898
861.5702671429244 11474.50192975514
862.5098783571284 11573.587567035305
863.4492546336569 11668.986959689315
864.3883960425155 11591.535076892502
865.3273026536863 11489.302075206444
866.2659745371238 11637.558084256523
867.2044117627465 11717.240847686306
868.1426144004472 11686.32002823306
869.0805825200823 11799.985858395648
870.0183161914847 11860.805770644276
870.9558154844526 11835.710923519622
871.8930804687552 11785.786237715436
872.8301112141307 11827.656108881089
873.7669077902865 11984.469907681945
874.7034702669062 12149.023777838838
875.6397987136315 12023.23007560012
876.5758932000863 12090.60830754324
877.5117537958522 12069.491269788612
878.4473805704911 12127.965020147834
879.3827735935283 12087.649272102992
880.3179329344603 12176.329259868322
881.2528586627541 12324.17907049621
882.1875508478479 12331.885996543608
883.1220095591489 12159.129107084995
884.0562348660296 12115.437517960996
884.9902268378391 12238.876835618572
885.9239855438955 12149.49105060763
886.8575110534839 12038.190215944043
887.7908034358588 11944.69102542848
888.7238627602474 11997.769831765196
889.6566890958475 11993.389904778373
890.5892825118208 11888.418561798298
891.5216430773125 11685.746656484054
892.4537708614189 11731.934066310745
893.3856659332196 11634.046116105403
894.3173283617652 11569.213417919276
895.2487582160684 11461.994336901143
896.179955565116 11502.074719148692
897.110920477864 11440.293361314256
898.0416530232451 11381.202395093575
898.9721532701478 11295.206871208266
899.9024212874428 11243.04024082956
900.8324571439662 11347.081218930323
901.7622609085302 11235.717748558774
902.6918326499072 11141.153366080627
903.6211724368477 11183.31439289168
904.5502803380696 11159.318543710438
905.4791564222614 11220.853482383483
906.4078007580792 11148.454388536627
907.3362134141571 11168.828535794462
908.2643944590909 11183.706151555729
909.1923439614493 11028.21202489103
910.1200619897754 11006.629530252681
911.0475486125779 11150.102715263052
911.9748038983344 11040.47926052697
912.9018279155007 11008.388809694636
913.8286207324982 10869.787019269967
914.7551824177117 11056.90083058555
915.6815130395116 11030.8586374035
916.6076126662283 10938.835785059428
917.533481366163 10993.744905437843
918.4591192075914 11003.228847246597
919.3845262587565 10861.22451963642
920.3097025878706 10901.509214596583
921.2346482631237 10882.502875523182
922.1593633526682 10945.714477062455
923.0838479246304 10861.205547095831
924.0081020471061 10957.30978798312
924.9321257881656 10849.687701587409
925.8559192158464 10836.610998844308
926.7794823981512 10792.991246975193
927.7028154030686 10763.603759754767
928.6259182985414 10779.099141533876
929.5487911524906 10839.213986969216
930.4714340328119 10824.097940917996
931.3938470073608 10631.358657624265
932.3160301439748 10723.325675843293
933.2379835104548 10751.167883248925
934.1597071745709 10879.38186490472
935.0812012040769 10762.415033117215
936.002465666681 10751.67605606867
936.9235006300696 10856.960484544043
937.8443061619055 10671.469629270741
938.7648823298077 10635.032366034005
939.6852292013809 10677.957930798935
940.6053468441951 10724.244801461857
941.5252353257874 10705.265441242924
942.4448947136698 10682.117539367731
943.364325075323 10657.213652786702
944.2835264782043 10555.946582042794
945.2024989897309 10706.233342893463
946.1212426773054 10694.335551840408
947.0397576082851 10689.8949136209
947.9580438500125 10665.624202876286
948.8761014697939 10703.310596969573
949.7939305349064 10745.412903066139
950.7115311125999 10591.437008994038
951.6289032700952 10611.670666223616
952.5460470745875 10641.739175404084
953.4629625932339 10694.330209631078
954.3796498931715 10693.072813809047
955.2961090415029 10707.133250754287
956.2123401053068 10716.069345288011
957.1283431516276 10690.122705435011
958.0441182474842 10665.39661911069
958.9596654598663 10720.737144882907
959.8749848557309 10652.599659071308
960.7900765020167 10633.50349949854
961.7049404656209 10575.49347172205
962.6195768134185 10664.26386057609
963.5339856122537 10575.797127373397
964.4481669289453 10604.124582122102
965.3621208302793 10532.502104240748
966.2758473830145 10565.867355873223
967.1893466538822 10556.3189022141
968.1026187095813 10629.925953068163
969.0156636167867 10527.995015571672
969.9284814421426 10660.323504535634
970.8410722522622 10579.419012619435
971.753436113735 10523.452531939398
972.6655730931161 10497.791671769011
973.5774832569368 10544.016579483006
974.4891666716958 10500.638444054504
975.4006234038698 10510.443345532789
976.3118535198955 10530.509747671755
977.2228570861935 10597.606732797498
978.1336341691494 10567.825125255893
979.0441848351202 10534.908094065151
979.9545091504333 10636.6660830894
980.864607181391 10636.148561801969
981.7744789942699 10494.790083149275
982.6841246553086 10684.13568282363
983.5935442307236 10587.403196182559
984.5027377867027 10574.723021028207
985.4117053894024 10642.058097823632
986.3204471049557 10613.985693343138
987.2289629994648 10686.898733690432
988.1372531390007 10680.984479239698
989.0453175896091 10707.088797392551
989.9531564173067 10764.661838246491
990.860769688079 10689.13776225747
991.7681574678918 10728.282598153291
992.6753198226706 10751.441688372024
993.582256818323 10814.256502600565
994.4889685207218 10769.965319934447
995.3954549957143 10899.996007556401
996.301716309119 10936.902904154897
997.2077525267232 10999.47572018472
998.1135637142943 10979.986983767569
999.0191499375615 11028.24392160461
999.924511262232 10905.330277241637
1000.8296477539861 10988.380559668654
1001.7345594784656 10941.738142666758
1002.6392465012996 10835.03139125353
1003.5437088880753 10931.569738162321
1004.4479467043584 11042.337927604163
1005.3519600156869 10756.933719307288
1006.2557488875718 10882.89192746133
1007.1593133854858 10818.796049829372
1008.0626535748888 10897.504907163502
1008.9657695212009 10689.470171546742
1009.8686612898182 10777.603094894042
1010.7713289461135 10848.506160431596
1011.6737725554212 10734.091479820627
1012.5759921830577 10642.064672054443
1013.4779878943027 10762.756342498624
1014.379759754418 10703.539808366399
1015.2813078286254 10627.82241124833
1016.18263218213 10608.561998008123
1017.0837328801026 10490.20579686413
1017.9846099876886 10540.845596197494
1018.8852635700023 10502.576531075556
1019.7856936921362 10496.197878014054
1020.6859004191447 10455.616900064348
1021.5858838160675 10455.024826191711
1022.4856439479063 10420.722144421521
1023.3851808796389 10360.98474908266
1024.2844946762143 10452.140085470463
1025.183585402554 10320.96204524957
1026.082453123554 10283.350783684506
1026.9810979040776 10262.116259335107
1027.8795198089647 10325.06683256287
1028.777718903024 10351.184960485907
1029.6756952510368 10289.679769842036
1030.5734489177648 10186.865605853909
1031.4709799679313 10273.21002159681
1032.3682884662358 10212.619192702838
1033.2653744773506 10184.06445569649
1034.1622380659192 10295.06931712853
1035.058879296559 10352.041938120476
1035.9552982338591 10341.344655081675
1036.8514949423825 10396.080821116422
1037.7474694866614 10430.433559436522
1038.6432219312028 10453.59789755002
1039.5387523404825 10587.398286164425
1040.4340607789582 10589.263474115001
1041.3291473110476 10571.002992637033
1042.2240120011465 10693.75083991161
1043.1186549136273 10849.64893166852
1044.0130761128294 10870.871644330386
1044.9072756630649 10901.084496442361
1045.8012536286205 10942.130961741239
1046.6950100737577 11050.673376299646
1047.588545062701 11159.86022122944
1048.481858659663 11183.760144813688
1049.3749509288118 11181.394933871034
1050.2678219343034 11196.587853770961
1051.1604717402515 11160.339975022089
1052.0529004107575 11041.787532045573
1052.9451080098825 11137.689341230946
1053.8370946016694 10969.300352969278
1054.7288602501267 10957.612978069152
1055.6204050192446 10908.671407986696
1056.511728972977 10891.240103944976
1057.402832175254 10785.455233159835
1058.2937146899785 10828.569861791146
1059.1843765810263 10613.891487065657
1060.0748179122456 10663.661784737986
1060.9650387474576 10555.197771471307
1061.855039150456 10651.217803428537
1062.7448191850071 10561.240926117092
1063.6343789148505 10571.59882194303
1064.5237184037014 10632.78564672826
1065.412837715241 10600.312821286136
1066.3017369131267 10482.76337560636
1067.190416060992 10403.216256737936
1068.0788752224398 10452.040498050286
1068.9671144610438 10468.257671619447
1069.8551338403558 10391.656154309985
1070.7429334239023 10448.910019644005
1071.6305132751695 10338.99540574311
1072.517873457633 10370.403434638774
1073.4050140347335 10349.612611474944
1074.2919350698776 10346.836943627819
1075.1786366264623 10278.47055109593
1076.0651187678395 10278.786680944793
1076.95138155735 10165.054065497143
1077.8374250582929 10126.135430976283
1078.7232493339507 10096.768695656208
1079.608854447577 10031.074929961454
1080.4942404623907 10051.3869245786
1081.3794074415982 10072.540445842846
1082.2643554483657 10055.835214113158
1083.149084545841 10050.362980039714
1084.033594797138 9814.105305551557
1084.9178862653516 9882.286210431012
1085.8019590135427 9934.881993574909
1086.6858131047484 9775.53940089328
1087.5694486019802 9979.616071554794
1088.4528655682225 9955.869071314333
1089.3360640664287 9864.742931883327
1090.2190441595321 9898.644007096571
1091.1018059104317 9902.160500407543
1091.98434938201 9942.183161037474
1092.866674637111 9896.068449421704
1093.748781738559 9916.568217329008
1094.6306707491512 9791.939663923436
1095.5123417316554 9897.135944088403
1096.3937947488157 9784.732475136876
1097.2750298633455 9877.519750447278
1098.156047137938 9729.53518310505
1099.0368466352556 9787.840249028413
1099.9174284179317 9753.313874321275
1100.7977925485757 9670.728252986559
1101.6779390897755 9680.726619968935
1102.5578681040806 9711.879268271288
1103.4375796540226 9727.485423227403
1104.3170738021054 9742.578551089953
1105.1963506108077 9603.89430172927
1106.0754101425773 9785.214329799926
1106.9542524598382 9698.043351253962
1107.8328776249855 9611.809433284054
1108.7112857003904 9675.284777396779
1109.5894767483987 9660.26035289797
1110.4674508313292 9775.831646099865
1111.3452080114657 9689.090666426448
1112.2227483510815 9713.127330948499
1113.1000719124077 9798.397741953255
1113.9771787576592 9805.861387961393
1114.854068949022 9926.794329685537
1115.7307425486542 9943.830086925449
1116.6071996186893 9911.206081797847
1117.483440221229 10025.40662953038
1118.3594644183577 10133.408476398605
1119.235272272128 10211.997374346542
1120.1108638445658 10316.872441759742
1120.9862391976712 10418.802881679343
1121.8613983934229 10522.63892622595
1122.7363414937627 10537.962744839997
1123.6110685606182 10672.302426149628
1124.485579655884 10723.448540288658
1125.359874841426 10846.53346580648
1126.2339541790916 10879.375138147561
1127.1078177306936 11003.45898001651
1127.9814655580267 10986.362879150473
1128.854897722851 11075.834113005685
1129.7281142869106 10951.676097125728
1130.6011153119125 10981.718921399206
1131.473900859548 11094.930441667524
1132.3464709914697 11037.579501454582
1133.2188257693178 10983.229747909467
1134.0909652546961 10911.349163615681
1134.96288950919 10768.567767565128
1135.8345985943506 10864.25025818131
1136.7060925717087 10746.698543678347
1137.57737150277 10582.274255758555
1138.4484354490069 10583.179043386146
1139.3192844718778 10511.018100433981
1140.1899186327992 10333.190996942025
1141.060337993178 10372.622770582126
1141.930542614382 10172.44102652054
1142.8005325577597 10076.851809162605
1143.670307884635 9818.813880915117
1144.5398686563003 9851.759424494154
1145.409214934025 9941.573986823945
1146.2783467790541 9688.409926405398
1147.1472642526023 9694.71525291249
1148.0159674158622 9670.590183835298
1148.8844563300026 9470.188295208955
1149.7527310561618 9518.686318157634
1150.6207916554504 9430.408495483445
1151.4886381889592 9331.611575474399
1152.3562707177498 9343.911940485405
1153.2236893028585 9342.505656242625
1154.090894005296 9189.108501911607
1154.9578848860474 9281.837746512803
1155.8246620060709 9250.376025300331
1156.6912254262988 9202.201979163625
1157.5575752076438 9207.980366244585
1158.42371141098 9234.7689552232
1159.2896340971656 9248.215900987643
1160.1553433270346 9164.11580171964
1161.0208391613887 9253.431191826967
1161.8861216610057 9047.392280350234
1162.75119088664 9120.82322251222
1163.6160468990201 9088.971930046191
1164.4806897588442 9003.654761985186
1165.3451195267917 9055.957339713377
1166.2093362635114 9048.148345682834
1167.0733400296285 9090.105947889095
1167.9371308857444 8980.412929042897
1168.8007088924278 8966.889478941315
1169.6640741102328 8962.794087017677
1170.5272265996773 8921.20521030686
1171.390166421259 8864.946599453626
1172.252893635452 9061.513297653371
1173.1154083026995 9047.45973629271
1173.977710483421 9079.923046649532
1174.8398002380145 9019.613527194871
1175.7016776268483 9033.764974104328
1176.563342710264 8921.994408736417
1177.4247955485826 8920.848438341367
1178.2860362020947 9025.627302933535
1179.147064731069 8885.384275001355
1180.0078811957483 8944.515399545462
1180.8684856563486 9029.456530103667
1181.7288781730604 9044.92400112933
1182.589058806052 9074.1552453283
1183.4490276154593 9076.321356911776
1184.3087846614017 9047.546961497424
1185.1683300039676 9187.112536213639
1186.027663703222 9189.993505387421
1186.8867858192025 9152.89982501794
1187.7456964119228 9238.18698168395
1188.6043955413716 9431.502956385413
1189.4628832675116 9386.548122439848
1190.3211596502842 9425.702708561685
1191.179224749596 9502.163724076165
1192.0370786253388 9293.792054960564
1192.8947213373758 9676.914245472863
1193.7521529455407 9583.325587550238
1194.6093735096438 9583.805474370809
1195.466383089477 9622.172902517888
1196.3231817447977 9433.849547035286
1197.1797695353398 9634.538451481803
1198.0361465208189 9571.526699262766
1198.8923127609214 9647.236899161744
1199.7482683153048 9714.022753222642
1200.6040132436028 9648.173668784746
1201.459547605431 9501.144994584512
1202.3148714603722 9556.025745109047
1203.1699848679855 9603.431240351481
1204.0248878878065 9641.662436528419
1204.8795805793507 9360.11216212935
1205.7340630020935 9535.522161077413
1206.5883352155033 9674.144978504677
1207.4423972790064 9358.133539398743
1208.2962492520237 9318.393989857486
1209.1498911939307 9349.734294913553
1210.0033231640937 9310.059482578692
1210.8565452218427 9143.653537607246
1211.7095574264913 9125.960921902597
1212.5623598373222 9059.60146282965
1213.4149525135963 9156.328849051682
1214.2673355145507 8969.091316437174
1215.1195088993936 8982.554463611383
1215.9714727273113 8856.71956655865
1216.8232270574663 9067.729510628098
1217.6747719489904 8817.78704521737
1218.5261074609934 8862.815226696199
1219.3772336525653 8859.589000316559
1220.2281505827668 8948.570284876909
1221.0788583106296 8792.218049112516
1221.9293568951707 8806.887496724768
1222.7796463953746 8692.1783877185
1223.629726870202 8760.487314610562
1224.4795983785934 8772.990521589103
1225.3292609794553 8698.842081580904
1226.1787147316809 8729.410133594525
1227.0279596941327 8673.404777071526
1227.8769959256424 8661.809949908049
1228.7258234850306 8787.912731764907
1229.5744424310833 8661.161079786587
1230.422852822563 8730.50164360672
1231.2710547182105 8752.723218169802
1232.119048176739 8775.419258609702
1232.9668332568417 8700.396027963663
1233.8144100171812 8737.305137085028
1234.6617785163999 8800.543401869261
1235.508938813111 8663.3569692188
1236.3558909659114 8652.661355125843
1237.2026350333617 8835.557856510572
1238.049171074008 8819.259806402575
1238.8954991463652 8685.895144231803
1239.741619308932 8757.513376440036
1240.587531620169 7594.539562386244
1241.4332361385277 8760.40718691789
1242.2787329224248 8765.900360065574
1243.1240220302534 8695.395692111731
1243.9691035203869 8666.421682386284
1244.813977451171 8949.553498093654
1245.6586438809263 8832.54123085766
1246.5031028679496 8597.335425245736
1247.3473544705157 8750.408038250363
1248.1913987468706 8818.85887673304
1249.0352357552383 8651.260131769082
1249.8788655538228 8678.395621567106
1250.7222882007918 8839.759637919593
1251.565503754302 8768.733220852142
1252.4085122724755 8584.784799572686
1253.2513138134182 8709.752454462057
1254.0939084352049 8733.775009041
1254.9362961958905 8707.442044896226
1255.7784771535007 8694.016172302869
1256.6204513660432 8690.385953627137
1257.4622188915 8736.187336576388
1258.3037797878242 8644.733671243339
1259.1451341129468 8543.066151125766
1259.9862819247755 8635.271552699414
1260.8272232811978 8608.829044879083
1261.6679582400666 8664.231292359942
1262.5084868592203 8610.794885537744
1263.34880919647 8532.400849723006
1264.1889253095997 8592.456743393954
1265.0288352563712 8540.186005714499
1265.8685390945266 8467.698037007176
1266.7080368817751 8470.460083303258
1267.5473286758115 8446.292466922036
1268.386414534294 8562.613418654717
1269.2252945148703 8267.944605103909
1270.0639686751547 8408.809656841808
1270.9024370727402 8369.776033846252
1271.7406997651997 8503.034592316157
1272.5787568100714 8283.599371575057
1273.4166082648808 8391.424325456232
1274.2542541871244 8329.523446901807
1275.091694634275 8401.076211321728
1275.9289296637817 8261.50824423381
1276.7659593330663 8407.89795700925
1277.6027836995308 8238.380381395544
1278.4394028205552 8337.131388617536
1279.2758167534867 8380.045824020066
1280.112025555658 8304.049937888882
1280.9480292843746 8286.026010418336
1281.7838279969128 8146.941746221613
1282.6194217505326 8269.154195145358
1283.4548106024686 8169.687196515629
1284.289994609926 8250.789602430235
1285.1249738300921 8372.117041684405
1285.959748320127 8196.122762691695
1286.7943181371702 8269.542439930592
1287.6286833383328 8214.627947342828
1288.4628439807038 8261.461251754221
1289.2968001213521 8180.014267891571
1290.1305518173194 8117.450291837999
1290.9640991256183 8302.540915288231
1291.7974421032523 8237.266334612334
1292.630580807183 8193.383008781122
1293.463515294361 8210.357957238679
1294.29624562171 8356.397369133836
1295.12877184613 8237.85015142046
1295.961094024493 8146.707686368693
1296.79321221365 8274.262960367505
1297.6251264704333 8307.099783885362
1298.4568368516466 8323.645302695124
1299.2883434140658 8312.016800116475
1300.1196462144526 8280.058460666916
1300.9507453095375 8380.641594137154
1301.7816407560313 8462.098765861698
1302.6123326106172 8436.830984830176
1303.4428209299622 8367.234732512876
1304.2731057707024 8519.22979559676
1305.1031871894502 8466.471583413146
1305.933065242798 8429.996668966556
1306.7627399873181 8483.760330834995
1307.5922114795467 8585.986026199571
1308.4214797760123 8511.010799598962
1309.2505449332057 8421.647280748932
1310.0794070076026 8461.791382470323
1310.9080660556538 8609.660162128386
1311.736522133786 8524.479486813932
1312.5647752983987 8521.37301967731
1313.3928256058734 8427.55373256217
1314.2206731125661 8524.767711484757
1315.048317874809 8638.185668438087
1315.8757599489109 8574.869617861359
1316.7029993911547 8634.564910021476
1317.5300362578055 8794.368038552228
1318.356870605101 8528.13729313152
1319.183502489257 8570.03799844959
1320.0099319664623 8692.618811509888
1320.836159092889 8785.769706379298
1321.66218392468 8679.64896410445
1322.4880065179532 8812.03364130262
1323.3136269288134 8779.888856308868
1324.1390452133292 8688.938748276041
1324.9642614275563 8860.906082276704
1325.7892756275214 8752.149780308262
1326.6140878692295 8634.919207346615
1327.4386982086617 8817.660659921645
1328.2631067017755 8813.033149812964
1329.0873134045069 8780.90209788506
1329.911318372764 8709.38309405329
1330.735121662441 8543.160730078265
1331.558723329399 8612.35961425248
1332.3821234294774 8559.377344617296
1333.2053220185007 8704.529608304709
1334.0283191522612 8521.977010750614
1334.851114886529 8552.752506168565
1335.6737092770582 8509.721663116687
1336.4961023795695 8488.396670847864
1337.3182942497697 8406.611331106938
1338.1402849433325 8457.71603490163
1338.962074515921 8344.349333215872
1339.7836630231632 8229.46039127929
1340.6050505206676 8388.930993377575
1341.426237064028 8350.518188695638
1342.2472227088037 8343.58603095587
1343.0680075105338 8293.739781005283
1343.888591524741 8331.230470538741
1344.7089748069138 8293.162014042755
1345.5291574125276 8285.072125949233
1346.3491393970307 8135.89886820131
1347.168920815846 8443.672013422918
1347.9885017243778 8337.917275061793
1348.8078821780036 8288.559657460484
1349.6270622320844 8196.353938169634
1350.4460419419447 8087.2556114042645
1351.2648213629054 8126.371849085348
1352.0834005502438 8145.716846915884
1352.90177955923 8033.717970715135
1353.7199584451064 8255.769984329225
1354.5379372630887 8129.898080037191
1355.355716068374 8256.07746838508
1356.1732949161305 8081.869518850673
1356.9906738615155 8067.892230511779
1357.8078529596478 8059.935481003611
1358.6248322656375 8118.342218736701
1359.441611834567 8040.014795200719
1360.2581917214866 8310.761879251915
1361.0745719814367 8022.749067842966
1361.890752669433 8011.739794825764
1362.7067338404577 8068.594059440789
1363.5225155494845 8168.637424885264
1364.3380978514506 8153.459640881381
1365.1534808012839 7952.954763197375
1365.9686644538815 7901.099884545225
1366.783648864117 8014.1922063688135
1367.5984340868417 8012.754314176757
1368.413020176893 8109.198125045796
1369.2274071890715 8127.452812609631
1370.0415951781652 8017.3806586019255
1370.8555841989346 7987.602575817679
1371.6693743061223 7943.096218238425
1372.48296555444 7823.219184822835
1373.2963579985844 8084.319409496648
1374.1095516932255 7851.716809004885
1374.9225466930166 7877.401244092846
1375.7353430525782 7979.99291676493
1376.5479408265164 7863.958905292304
1377.36034006941 7869.624019115012
1378.1725408358216 7968.335700828672
1378.9845431802805 7834.61255216898
1379.796347157304 7979.997106510176
1380.6079528213813 7922.66544731887
1381.4193602269788 7842.752105314028
1382.230569428546 7904.209381550898
1383.0415804805016 7776.972923051057
1383.852393437246 7808.914200695984
1384.6630083531563 7908.015242132273
1385.4734252825892 7875.01561643443
1386.2836442798798 7792.446035227136
1387.0936653993322 7734.92303767421
1387.9034886952395 7859.608270779905
1388.713114221864 7797.425385515315
1389.5225420334482 7721.57655083902
1390.331772184214 7727.419030254625
1391.1408047283585 7726.143834348945
1391.9496397200564 7793.233945701987
1392.758277213461 7883.477646962332
1393.5667172627054 7781.4780702733815
1394.3749599218918 7755.395192009392
1395.1830052451114 7749.67731303348
1395.9908532864265 7738.982460498274
1396.7985040998774 7753.610107145117
1397.6059577394808 7679.545678496559
1398.4132142592352 7720.181393568807
1399.2202737131156 7654.935482577423
1400.027136155073 7764.329861327562
1400.8338016390353 7704.776419052946
1401.6402702189134 7751.550756093883
1402.446541948586 7699.939343857093
1403.2526168819204 7638.230346239923
1404.058495072757 7584.770646281906
1404.8641765749107 7631.258765396199
1405.6696614421799 7771.755134580941
1406.4749497283356 7832.97152640922
1407.280041487129 7582.682863476266
1408.084936772295 7459.434396484072
1408.8896356375335 7546.163288231721
1409.6941381365323 7612.138674196448
1410.498444322955 7489.88968042121
1411.3025542504402 7406.989705153009
1412.106467972606 7504.5861063645425
1412.9101855430508 7457.046845601505
1413.7137070153458 7296.865617482855
1414.5170324430437 7410.9334305381535
1415.320161879672 7398.998036513522
1416.1230953787435 7516.925890511596
1416.925832993742 7287.714020562763
1417.7283747781275 7096.982342558241
1418.5307207853439 7195.906500391943
1419.3328710688093 7163.251846456845
1420.134825681922 7117.920549829086
1420.9365846780584 7137.6313238213015
1421.7381481105713 7179.951213481605
1422.539516032788 7203.366262345616
1423.3406884980232 7094.885453735196
1424.1416655595604 7095.482974551768
1424.942447270665 7045.471722451363
1425.7430336845828 7115.774868454122
1426.5434248545298 6994.021940309287
1427.3436208337116 7225.105418050596
1428.143621675301 7158.875294694425
1428.9434274324558 7152.926354278266
1429.7430381583108 6921.553266264144
1430.5424539059713 7075.359244210146
1431.3416747285337 7198.115111689593
1432.1407006790632 7199.688385840335
1432.9395318106053 7081.3214003468365
1433.7381681761835 7093.975449073578
1434.5366098288014 7041.575358187295
1435.3348568214424 6954.3773032122945
1436.1329092070573 7143.843128457879
1436.9307670385879 7174.486265404012
1437.7284303689503 7286.714291211101
1438.5258992510335 7155.397444106248
1439.3231737377118 7219.318999207108
1440.1202538818306 7251.818136960501
1440.9171397362225 7013.3568061143715
1441.7138313536925 6998.404554916235
1442.5103287870243 7012.641052881883
1443.3066320889775 6892.21848367441
1444.1027413122956 7031.402110464502
1444.8986565096966 7011.078694616091
1445.694377733882 7149.026966180342
1446.4899050375207 6916.027045994512
1447.2852384732687 6972.517984333109
1448.0803780937622 6829.47394317456
1448.8753239516063 6872.659219497982
1449.6700760993954 6886.8736400392545
1450.464634589689 7011.426263968305
1451.2589994750397 7034.610713123378
1452.0531708079689 6812.671883521476
1452.8471486409799 6800.330836319404
1453.6409330265524 6888.353931510642
1454.4345240171442 6797.313408690337
1455.2279216651987 6755.841504260544
1456.0211260231263 6797.666475155347
1456.8141371433194 6901.008734654638
1457.6069550781594 6702.109410807694
1458.3995798799897 6772.075003620581
1459.1920116011424 6763.856912637205
1459.98425029393 6606.943733938543
1460.7762960106338 6727.528463889334
1461.5681488035225 6800.485475238772
1462.3598087248392 6759.304632082637
1463.1512758268036 6761.621054418528
1463.942550161617 6598.319377405142
1464.7336317814625 6726.950480806583
1465.524520738496 6712.188423029826
1466.3152170848552 6713.184425768505
1467.1057208726506 6614.806399143408
1467.8960321539817 6627.878352705743
1468.6861509809169 6527.801925653065
1469.4760774055085 6607.616431883679
1470.265811479785 6467.4987458495025
1471.055353255755 6367.377093549686
1471.844702785409 6411.806166040005
1472.6338601207044 6473.27914961047
1473.4228253135934 6505.074817042225
1474.2115984159936 6489.124471927009
1475.0001794798063 6387.8304625956935
1475.7885685569145 6469.670466207954
1476.576765699172 6518.407693790531
1477.3647709584238 6495.518308620359
1478.1525843864802 6600.937640711328
1478.9402060351367 6484.571793502471
1479.7276359561693 6457.348921773022
1480.514874201328 6455.114247589994
1481.3019208223468 6443.107310920066
1482.0887758709323 6286.162385682804
1482.8754393987747 6514.404132961567
1483.6619114575406 6350.2399653971615
1484.4481920988783 6438.126752445904
1485.2342813744108 6415.589025941017
1486.0201793357446 6480.30272439591
1486.8058860344572 6465.86318657485
1487.591401522117 6504.370522886169
1488.3767258502594 6487.272329205984
1489.1618590704056 6299.177224835226
1489.9468012340494 6334.930551099781
1490.7315523926754 6502.109986453753
1491.5161125977356 6483.753727267068
1492.3004819006637 6512.878459666879
1493.084660352877 6434.0487642133
1493.8686480057622 6453.987270740802
1494.6524449106964 6476.85061029899
1495.4360511190262 6632.795820290865
1496.219466682087 6535.6969339436255
1497.0026916511779 6541.850329836249
1497.7857260775945 6362.052608476433
1498.5685700125996 6377.0665517482075
1499.3512235074395 6431.031402857096
1500.133686613337 6392.267025365391
1500.9159593814966 6314.622664208366
1501.698041863101 6483.544209421321
1502.4799341093094 6445.952573272845
1503.2616361712662 6350.981342464089
1504.043148100087 6465.435167085004
1504.8244699468742 6411.425473686117
1505.6056017626997 6383.617797958782
1506.3865435986281 6289.81913276791
1507.1672955056893 6267.2981019663575
1507.9478575348967 6342.716249198492
1508.7282297372512 6509.577243854811
1509.5084121637192 6294.699990774599
1510.2884048652577 6216.542191481879
1511.0682078927948 6310.438433291893
1511.8478212972423 6384.997164087409
1512.6272451294917 6316.240447571245
1513.4064794404076 6325.09293809838
1514.1855242808433 6220.989937643674
1514.9643797016215 6362.69508924167
1515.743045753552 6372.442769833733
1516.5215224874191 6396.931285756123
1517.2998099539836 6243.377428261307
1518.077908203999 6305.7294639391375
1518.8558172881785 6291.236416911199
1519.633537257234 6403.405832002206
1520.4110681618404 6302.500709493964
1521.1884100526604 6342.17915697802
1521.9655629803365 6394.265652863633
1522.7425269954856 6430.532963774394
1523.5193021487103 6438.617177461906
1524.2958884905856 6257.896027992184
1525.0722860716687 6387.620941212543
1525.848494942502 6364.039279952026
1526.624515153595 6301.011359622317
1527.4003467554485 6471.928419000598
1528.175989798534 6481.949044591123
1528.9514443333064 6323.955622105333
1529.726710410203 6499.988114119629
1530.5017880796331 6368.767935509672
1531.276677391992 6362.398180776264
1532.0513783976457 6495.93228250944
1532.825891146953 6494.283340096783
1533.6002156902414 6466.55883613339
1534.3743520778207 6396.716397701434
1535.1483003599806 6524.067287001323
1535.9220605869923 6333.728483127779
1536.6956328091019 6521.695476511975
1537.4690170765407 6256.805014017014
1538.242213439511 6497.824229965276
1539.015221948208 6489.452919217535
1539.78804265279 6538.986978975753
1540.560675603405 6290.8738785657015
1541.3331208501804 6570.251998028982
1542.1053784432224 6568.323966954415
1542.8774484326168 6520.563623929929
1543.649330868422 6531.697864413364
1544.4210258006842 6362.495891877744
1545.1925332794308 6522.796542539611
1545.9638533546604 6578.75414752731
1546.7349860763552 6492.747584767867
1547.5059314944829 6679.886595642878
1548.27668965898 6545.218244673629
1549.0472606197673 6557.170195107845
1549.817644426752 6532.788575086327
1550.5878411298072 6481.275551014953
1551.3578507787988 6366.642306659684
1552.1276734235635 6519.156712696275
1552.8973091139233 6528.961030207227
1553.6667578996767 6650.380029889447
1554.436019830604 6517.078061195083
1555.20509495646 6413.704562574971
1555.9739833269869 6458.40722531369
1556.7426849919011 6462.925161954689
1557.511200000903 6506.841302153725
1558.2795284036674 6535.192427499825
1559.0476702498509 6541.129842145934
1559.8156255890954 6470.306131200112
1560.5833944710157 6585.573744953632
1561.3509769452048 6513.438439042045
1562.1183730612447 6546.006429731793
1562.8855828686865 6439.247343294324
1563.6526064170703 6700.239252554263
1564.4194437559127 6571.38741401696
1565.1860949347047 6505.650725100612
1565.9525600029283 6659.550825152319
1566.7188390100328 6579.549303662474
1567.4849320054564 6398.567916494366
1568.250839038612 6423.163531278925
1569.0165601588997 6457.012440982792
1569.7820954156887 6487.295577740783
1570.5474448583373 6395.864730058834
1571.31260853618 6534.833971399795
1572.0775864985299 6315.643210477219
1572.8423787946813 6525.591091115777
1573.6069854739108 6531.951796802957
1574.371406585471 6471.768971409202
1575.1356421785986 6537.961269371041
1575.899692302506 6441.5473151304295
1576.6635570063845 6548.07536966429
1577.4272363394157 6456.614596826534
1578.190730350747 6334.8235930412975
1578.9540390895163 6235.524760176624
1579.7171626048384 6189.068274790977
1580.480100945806 6393.286804472331
1581.2428541614918 6249.214573161487
1582.0054223009538 6252.7366414990665
1582.767805413223 6322.056039179801
1583.5300035473156 6446.320180204076
1584.292016752228 6366.858623804173
1585.0538450769309 6331.447706430605
1585.8154885703807 6284.088190139598
1586.5769472815136 6301.521510161481
1587.3382212592405 6329.576793419922
1588.099310552463 6393.875317118134
1588.8602152100484 6186.022300525609
1589.6209352808564 6375.891788681546
1590.3814708137234 6150.112212859421
1591.14182185746 6212.025978890481
1591.9019884608679 6266.083158219424
1592.6619706727215 6137.117815599152
1593.4217685417734 6324.165732501322
1594.1813821167616 6301.738330057596
1594.9408114464022 6227.766716704398
1595.7000565793933 6329.254638056669
1596.459117564409 6415.02990338363
1597.2179944501113 6236.635144405869
1597.9766872851324 6341.901819095547
1598.735196118092 6309.937602260416
1599.4935209975883 6426.6140662894095
1600.2516619721973 6280.049891074725
1601.0096190904787 6213.127107386371
1601.7673924009723 6253.783415851086
1602.524981952196 6175.52963157704
1603.2823877926476 6173.423302257499
1604.0396099708087 6264.838051136685
1604.7966485351371 6246.802262794921
1605.5535035340745 6325.744682303308
1606.3101750160404 6348.509294166966
1607.0666630294363 6285.710547217014
1607.822967622642 6142.535043482467
1608.5790888440224 6186.091122737891
1609.3350267419137 6337.051029511528
1610.0907813646445 6364.730027595708
1610.8463527605145 6247.516674431875
1611.601740977805 6196.179635366616
1612.356946064785 6350.1613476751345
1613.1119680696902 6139.196517144065
1613.8668070407512 6264.482596152925
1614.6214630261748 6024.691211632761
1615.375936074137 6308.374652853816
1616.1302262328118 6184.403448160761
1616.8843335503425 6207.094840510004
1617.638258074854 5930.289278752125
1618.391999854457 6273.405590588054
1619.1455589372363 6377.745740028305
1619.8989353712623 6247.4035693248225
1620.65212920458 6096.750144063338
1621.4051404852235 6101.36805064232
1622.1579692611976 6111.586032723856
1622.9106155804966 5935.494831697478
1623.663079491087 6083.861066772035
1624.4153610409248 6070.316187363905
1625.1674602779385 5994.331727049306
1625.9193772500403 6055.12786414664
1626.6711120051277 6174.337253763363
1627.4226645910676 5980.162628323496
1628.174035055721 5982.806870735044
1628.9252234469168 6047.913709373224
1629.676229812474 6048.330299235563
1630.4270542001905 6109.793843870658
1631.1776966578382 6149.8205604068735
1631.9281572331747 6127.087241377495
1632.678435973945 6208.073415575057
1633.4285329278573 6095.556496076204
1634.1784481426203 5983.7142226592605
1634.9281816659113 6110.86621591957
1635.677733545388 6094.9594873792685
1636.4271038286934 6002.594265901187
1637.176292563452 6135.579799940244
1637.9252997972635 6176.796575749782
1638.674125577716 6416.16129558116
1639.4227699523672 6267.487946988838
1640.171232968767 6118.8539909978645
1640.9195146744423 6182.051602762453
1641.6676151168977 6427.285044394335
1642.4155343436178 6206.548837620966
1643.1632724020765 6233.247970531006
1643.9108293397167 6194.581422579855
1644.658205203974 6314.322098695857
1645.4054000422566 6555.55169181021
1646.1524139019566 6203.331560138238
1646.8992468304423 6289.278918692506
1647.6458988750728 6185.373479920963
1648.3923700831765 6323.885918616309
1649.1386605020743 6267.373484831718
1649.8847701790564 6309.452272750681
1650.6306991614038 6339.719307011306
1651.3764474963682 6228.720420326854
1652.1220152311944 6081.342348863031
1652.867402413096 6533.803124238094
1653.6126090892776 6219.170010486155
1654.3576353069184 6437.561363229887
1655.1024811131829 6404.850347865807
1655.8471465552066 6271.391071823576
1656.5916316801213 6585.935973755788
1657.3359365350298 6324.775367546529
1658.0800611670165 6188.469199080744
1658.824005623148 6129.172119033819
1659.5677699504722 6191.851801724311
1660.3113541960192 6252.089289435435
1661.054758406799 6216.339484785043
1661.7979826297997 5990.559295493651
1662.5410269119966 6071.546962107071
1663.283891300338 6042.493617373403
1664.0265758417645 5982.002510363471
1664.7690805831826 6048.86669818094
1665.5114055714948 6064.598387515202
1666.2535508535748 5965.2620854208835
1666.9955164762814 5831.277948952709
1667.7373024864555 6070.283164902402
1668.478908930916 6004.732676000067
1669.220335856462 5685.119119746268
1669.9615833098778 5898.477342160606
1670.7026513379296 5849.5794277809055
1671.44353998736 5844.0674482692375
1672.1842493048916 5660.776942858043
1672.9247793372379 5848.139329254276
1673.6651301310812 5728.247897121005
1674.4053017330934 5815.66730636742
1675.1452941899242 5609.271912550013
1675.885107548207 5354.72435743572
1676.6247418545518 5564.332172176428
1677.3641971555535 5600.016443684539
1678.1034734977893 5565.099060749649
1678.8425709278108 5666.125700504852
1679.5814894921605 5602.3422974810965
1680.320229237359 5487.042115463355
1681.0587902098978 5456.928693640741
1681.7971724562685 5469.802666339336
1682.5353760229264 5414.838987321604
1683.2734009563173 5399.432008890994
1684.0112473028657 5181.298092629695
1684.7489151089794 5377.343476585177
1685.4864044210462 5380.200461055234
1686.2237152854377 5144.76826708342
1686.960847748498 5243.4756850977055
1687.6978018565642 5238.365708346473
1688.434577655944 5195.8199984947705
1689.1711751929379 4961.182593591185
1689.9075945138156 5190.814861944675
1690.6438356648396 5186.14546421946
1691.3798986922448 4981.330921722906
1692.1157836422499 5180.646818162689
1692.851490561059 5074.708018934693
1693.587019494853 5004.657696777697
1694.3223704897991 4765.6390772004015
1695.0575435920364 4784.386378885573
1695.792538847696 4912.442738278847
1696.527356302886 4893.639366415198
1697.2619960036936 4872.5660110326535
1697.9964579961907 4669.447373567887
1698.730742326432 4586.953893051672
1699.4648490404488 4692.609393212533
1700.1987781842563 4847.55153356971
1700.9325298038548 4772.652610583692
1701.6661039452174 4886.953110080681
1702.3995006543082 4782.155652008097
1703.1327199770658 4908.706574122104
1703.865761959416 4763.066471873732
1704.598626647261 4688.046724191793
1705.3313140864866 4591.81916705068
1706.0638243229587 4554.523477099889
1706.7961574025303 4770.117193305089
1707.528313371029 4606.768721454911
1708.260292274268 4430.406329559812
1708.9920941580403 4577.926861947486
1709.7237190681226 4541.913873064947
1710.4551670502697 4508.499854426847
1711.18643815022 4439.280318788753
1711.9175324136959 4761.8276759909295
1712.6484498863938 4485.127479186886
1713.379190614005 4465.729523487816
1714.109754642188 4560.194518849357
1714.8401420165883 4509.555968175986
1715.570352782839 4794.471215017822
1716.3003869865497 4472.072205755672
1717.0302446733076 4565.5564387712275
1717.7599258886876 4524.207403338818
1718.4894306782444 4599.098035872877
1719.2187590875183 4482.830303084263
1719.9479111620203 4574.850413963439
1720.6768869472544 4369.257108215584
1721.4056864887025 4429.9085900878
1722.1343098318284 4549.1523061704775
1722.8627570220742 4463.8533285123585
1723.591028104871 4427.155705460022
1724.3191231256242 4321.885461509861
1725.0470421297232 4317.707555811416
1725.7747851625427 4387.704908971018
1726.5023522694337 4388.922315198961
1727.2297434957363 4341.6138681034045
1727.9569588867635 4053.6127543698435
1728.6839984878152 4417.589459645472
1729.4108623441734 4194.39642497856
1730.1375505011038 4366.950678806284
1730.8640630038426 4300.055811858854
1731.5903998976264 4182.995731877382
1732.316561227657 4351.6493484966295
1733.0425470391274 4173.215288914588
1733.7683573772065 4291.2789170145425
1734.4939922870508 4259.992094243801
1735.2194518137949 4383.672053296109
1735.9447360025606 4253.823741659848
1736.669844898439 4220.949110490587
1737.3947785465189 4133.505567754914
1738.1195369918605 4076.081595924656
1738.8441202795093 4298.730750027591
1739.5685284544943 4399.0049701389335
1740.292761561821 4341.474315418577
1741.0168196464838 4321.954149810785
1741.7407027534518 4254.042111967961
1742.464410927687 4043.4495732050514
1743.187944214118 4222.484427175186
1743.9113026576688 4124.805282670973
1744.634486303241 4205.517015208984
1745.3574951957125 4261.273181137718
1746.0803293799509 4288.157597825965
1746.8029889008048 4203.610688130606
1747.5254738031017 4179.211545885465
1748.2477841316504 4046.760509070723
1748.969919931249 4268.739873851338
1749.6918812466665 4116.771533903329
1750.4136681226646 4253.322159860984
1751.1352806039777 4267.743583483179
1751.856718735331 4023.176432102932
1752.5779825614281 4154.949749822508
1753.2990721269507 4284.827567756723
1754.0199874765676 4058.4948663512646
1754.7407286549314 3888.473250480916
1755.4612957066693 4162.584795676263
1756.1816886763954 4070.6110380362466
1756.9019076087097 4301.605239775302
1757.6219525481865 4117.099822627392
1758.3418235393856 4088.3999986470217
1759.061520626854 4083.573509795281
1759.7810438551096 4220.286824125605
1760.5003932686614 4041.108914121917
1761.2195689119999 4153.517769105171
1761.938570829594 4311.689708169984
1762.657399065898 4139.774303303006
1763.376053665348 3951.4455375006146
1764.0945346723602 4047.7468522050162
1764.812842131334 4076.8418263974736
1765.5309760866512 3966.112760451895
1766.2489365826787 3851.483727013717
1766.9667236637597 3963.218783942022
1767.684337374223 3994.0168749252857
1768.401777758383 3843.238698566365
1769.1190448605284 4040.44942272832
1769.836138724937 3953.042831015539
1770.5530593958665 4115.340398063793
1771.2698069175603 4042.9991866799405
1771.9863813342326 4235.102103901967
1772.702782690094 3795.642213970478
1773.4190110293293 4081.4193133183726
1774.1350663961111 4022.19573720734
1774.8509488345844 3874.743851128761
1775.5666583888924 4028.5914701150614
1776.2821951031437 4046.617060071158
1776.9975590214362 3969.4253682063195
1777.7127501878585 4129.022496007779
1778.4277686464684 4030.355482868176
1779.1426144413108 3940.5903081063843
1779.8572876164162 3844.5096190019694
1780.571788215797 3876.1451936969797
1781.2861162834415 4100.080154205245
1782.0002718633277 3967.416549144617
1782.7142549994132 3997.1177875455855
1783.4280657356376 4040.4336073665
1784.141704115922 3923.8597746373634
1784.855170184177 3915.7974242541177
1785.5684639842839 3893.728490644782
1786.2815855601148 3852.060910299334
1786.9945349555237 3948.663968089308
1787.707312214343 3918.4254041552326
1788.4199173803918 4077.2221346406054
1789.132350497468 3682.6568194009096
1789.8446116093583 3898.2362077089288
1790.556700759822 3838.1945648408814
1791.2686179926077 3978.3464302589637
1791.9803633514493 3775.1163035040568
1792.6919368800554 3848.662196767026
1793.4033386221236 3972.9101866006217
1794.1145686213295 3982.9082775121597
1794.8256269213307 3915.9484820813545
1795.536513565774 3932.342760902285
1796.247228598284 3771.663402223261
1796.9577720624693 3725.5162041363924
1797.6681440019165 3983.2044834235326
1798.3783444602013 3872.8601538090793
1799.0883734808776 3827.169112383989
1799.7982311074884 3831.4386346915408
1800.5079173835475 3997.1062606476708
1801.2174323525633 3862.3986512371375
1801.9267760580187 3921.3434585855116
1802.635948543386 3869.44465899047
1803.3449498521113 3806.5960520901267
1804.0537800276325 3765.9285887213337
1804.7624391133668 3912.3162172844154
1805.47092715271 3628.9470446387736
1806.1792441890484 3812.8675076087384
1806.8873902657433 3720.883484205253
1807.5953654261448 3806.5210263980966
1808.3031697135812 3782.674626518311
1809.0108031713662 3815.3149092309186
1809.71826584279 3778.8656234695727
1810.425557771141 3733.0692649492667
1811.1326789996747 3881.933171718561
1811.839629571632 3620.7007321501565
1812.5464095302468 3824.295109541633
1813.2530189187182 3697.557467914463
1813.959457780249 3803.4548817286727
1814.6657261580076 3955.3157013651507
1815.371824095153 3756.5043895931485
1816.0777516348262 3823.3415731968466
1816.78350882015 3415.4732620928435
1817.4890956942272 3725.0260987424517
1818.1945123001533 3819.9318004509687
1818.8997586809928 3649.5605590140003
1819.6048348798067 3631.500496245541
1820.3097409396287 3713.950384181676
1821.0144769034796 3890.292225244431
1821.7190428143622 3611.795510234168
1822.423438715261 3712.286504110479
1823.1276646491478 3583.3897402942976
1823.8317206589727 3775.95067307726
1824.5356067876692 3712.212139644523
1825.2393230781581 3583.641336938318
1825.942869573335 3653.338090019433
1826.646246316086 3653.282974515262
1827.3494533492758 3636.4376337777408
1828.052490715756 3681.892410910801
1828.7553584583547 3691.280294120542
1829.458056619891 3786.62458682258
1830.1605852431585 3737.3635779169226
1830.8629443709433 3647.803089971823
1831.5651340460063 3683.891547394819
1832.2671543110919 3565.954646735784
1832.9690052089318 3807.411183108681
1833.6706867822395 3617.3373707148908
1834.3721990737104 3717.0336116676663
1835.0735421260233 3632.2599060798225
1835.774715981841 3622.4150860801637
1836.4757206838058 3670.1100811190836
1837.1765562745459 3774.0665759003737
1837.8772227966747 3584.543306976713
1838.5777202927839 3502.6298873496426
1839.2780488054523 3662.8050726209476
1839.9782083772352 3668.5213837811507
1840.6781990506806 3840.8277230598965
1841.378020868313 3563.7054771909366
1842.0776738726418 3722.320524210195
1842.777158106157 3589.218904338185
1843.4764736113375 3474.0210577209364
1844.1756204306403 3762.0196002433613
1844.8745986065078 3421.7182342407586
1845.5734081813607 3557.842501107874
1846.2720491976124 3532.5038690859756
1846.970521697649 3537.3708786548086
1847.6688257238511 3683.381524120886
1848.3669613185684 3742.419385092554
1849.0649285241452 3410.320993608572
1849.7627273829057 3630.0413740282615
1850.460357937156 3574.092378646178
1851.1578202291857 3377.538134996338
1851.8551143012664 3557.2397609555774
1852.5522401956569 3635.1537410502824
1853.2491979545957 3675.94411103152
1853.9459876203055 3589.1249709343924
1854.6426092349902 3564.0201269354343
1855.3390628408451 3508.3316235762964
1856.0353484800362 3597.85253145204
1856.7314661947203 3604.8506908938484
1857.4274160270397 3500.509002157474
1858.123198019115 3414.214251435703
1858.8188122130487 3409.9970955425974
1859.5142586509319 3412.6777091594513
1860.209537374838 3599.0949273158635
1860.9046484268183 3467.4059977325246
1861.599591848917 3509.0930347226104
1862.294367683151 3302.3384271515133
1862.988975971528 3389.939644868539
1863.6834167560355 3404.5460500422596
1864.3776900786452 3533.1969842875646
1865.0717959813119 3587.971781725407
1865.7657345059724 3465.8814718463764
1866.4595056945564 3526.052900083723
1867.1531095889586 3444.979261012747
1867.846546231076 3320.202344660237
1868.5398156627743 3639.642064954536
1869.2329179259123 3462.4436739670236
1869.9258530623283 3578.450285480923
1870.618621113843 3507.8009304709203
1871.3112221222636 3314.9405459863783
1872.0036561293764 3292.0575338426534
1872.695923176956 3368.3854117542896
1873.3880233067594 3668.2171516420262
1874.0799565605212 3350.558976294261
1874.7717229799673 3428.0178507093283
1875.4633226068036 3455.408246533115
1876.1547554827175 3540.262599057192
1876.8460216493859 3385.074802091036
1877.5371211484617 3531.8935992940524
1878.2280540215852 3678.038317519702
1878.9188203103804 3239.231429373804
1879.6094200564548 3558.9244683918214
1880.299853301396 3287.7072977615303
1880.9901200867826 3665.5112959562284
1881.6802204541673 3522.629472288255
1882.3701544450942 3371.482455203969
1883.059922101087 3287.64445307776
1883.7495234636517 3364.6926009230533
1884.4389585742792 3252.126465767224
1885.1282274744517 3319.3548779410216
1885.8173302056166 3740.6332418343104
1886.506266809225 3428.1736129356104
1887.195037326701 3353.720470243638
1887.8836417994517 3296.1996128404885
1888.5720802688702 3426.435848229182
1889.260352776333 3276.8801712562804
1889.9484593632042 3533.7150381304805
1890.63640007082 3289.1728969746728
1891.3241749405151 3234.440375150772
1892.0117840135954 3498.3268146983755
1892.6992273313572 3364.6898645566916
1893.3865049350788 3240.6975121911123
1894.0736168660223 3609.558600055607
1894.7605631654333 3438.540934885249
1895.4473438745408 3272.5111217663116
1896.133959034556 3435.239874590323
1896.820408686679 3496.948585998443
1897.506692872088 3272.3903527039342
1898.192811631945 3428.7568468269565
1898.8787650073991 3302.401608652434
1899.5645530395832 3496.2030812759863
1900.2501757696118 3369.121530193913
1900.9356332385796 3194.9950719735143
1901.620925487574 3565.681761762432
1902.3060525576602 3530.7880553942073
1902.9910144898859 3368.0138182840856
1903.6758113252872 3288.757499011339
1904.3604431048789 3459.7663622332593
1905.0449098696663 3425.308142056897
1905.7292116606295 3298.6666813465918
1906.4133485187394 3403.679611411627
1907.0973204849488 3127.6482476331958
1907.7811276001976 3281.079313905718
1908.4647699053967 3249.666764394778
1909.1482474414588 2987.8847710321843
1909.8315602492694 3098.11196841668
1910.5147083696957 3318.6118678838866
1911.1976918436012 3319.5549514548206
1911.880510711815 3273.4020233214615
1912.5631650151681 3227.9611801575493
1913.2456547944657 3338.1080310730877
1913.927980090495 3237.1799622054673
1914.6101409440362 3281.001315363804
1915.2921373958416 3304.5992860080464
1915.9739694866603 3290.3938623947042
1916.655637257214 3334.488709685422
1917.3371407482136 3287.963017628836
1918.0184800003572 3489.5874912765785
1918.6996550543154 3390.156090211834
1919.3806659507554 3310.8459176497126
1920.0615127303208 3221.0477052522124
1920.7421954336423 3265.6439130398076
1921.4227141013343 3244.189679466161
1922.103068773993 3406.7435467067435
1922.783259492202 3302.5390866084454
1923.4632862965227 3136.904438245262
1924.1431492275078 3176.1192421546284
1924.8228483256917 3244.4415916381545
1925.5023836315922 3043.4819831990253
1926.1817551857057 3026.218447350289
1926.8609630285227 3313.574554290926
1927.5400072005123 3443.5454202336855
1928.218887742125 3021.824383596351
1928.8976046938005 3274.8438713300975
1929.5761580959588 3358.878261905923
1930.2545479890086 3070.6615740251505
1930.9327744133352 3021.585808732125
1931.6108374093164 3312.1284352224648
1932.2887370173066 3239.7517748059377
1932.9664732776473 2971.9091836724656
1933.6440462306673 3468.107479132558
1934.3214559166754 3072.0744047326043
1934.9987023759659 3291.0560178010905
1935.675785648813 3129.675817079254
1936.3527057754836 2920.5461248510674
1937.029462796223 3326.059409686785
1937.70605675126 3126.3050637150927
1938.3824876808085 3202.0487740575118
1939.058755625072 2991.3910306112602
1939.7348606242267 3156.8886112305445
1940.4108027184448 3313.2450806942643
1941.0865819478713 3276.929946102178
1941.7621983526478 3185.0248767511353
1942.4376519728921 3031.579475986677
1943.1129428487038 3140.457871940486
1943.7880710201734 3162.156192740254
1944.4630365273733 3304.8885194709983
1945.1378394103576 3055.3426584643125
1945.8124797091714 3312.6329379249546
1946.4869574638324 3013.216503134089
1947.161272714353 2990.9849004139564
1947.8354255007234 3268.952947899634
1948.5094158629272 3066.0438425958196
1949.1832438409183 3083.3081804864787
1949.8569094746435 3192.579064487587
1950.530412804037 3375.689828283945
1951.2037538690092 3310.801337361829
1951.8769327094578 3123.427554897164
1952.5499493652678 3060.0208620381727
1953.222803876306 3027.499354771398
1953.895496282421 3070.696833057943
1954.5680266234522 3038.8062149144507
1955.2403949392155 3164.6174269766257
1955.9126012695142 3121.791320688586
1956.5846456541403 2992.0386940524645
1957.2565281328643 2951.9890707936856
1957.9282487454457 3270.5717530845864
1958.5998075316202 3113.5499247589196
1959.27120453112 3090.484488899666
1959.9424397836501 3114.487942741616
1960.613513328908 3024.8780571586803
1961.2844252065697 3167.573269472617
1961.9551754563017 2957.986766573087
1962.6257641177453 3007.306627728037
1963.29619123054 3074.24478905914
1963.966456834296 2956.18292016834
1964.6365609686181 2979.5955987617
1965.306503673086 3087.624461348355
1965.976284987275 3042.963399579239
1966.645904950734 3024.787782903474
1967.315363603002 2922.6539499447504
1967.9846609836077 3084.732910736807
1968.6537971320486 2899.334820256857
1969.3227720878222 3035.5779102126494
1969.9915858904042 3033.571062547099
1970.660238579252 3144.261190668329
1971.3287301938108 3205.803375750476
1971.997060773514 3038.273325608039
1972.665230357772 2953.0594699980497
1973.3332389859843 2904.7098659785174
1974.0010866975335 2867.446984031811
1974.6687735317864 3134.788648376477
1975.3362995280932 3156.3779367322995
1976.003664725793 2968.2101421778775
1976.6708691642052 2869.032020716506
1977.3379128826364 3083.9181043407348
1978.004795920373 3061.9109567452933
1978.6715183166925 3212.1018176981406
1979.3380801108524 2820.195426719837
1980.0044813420973 3078.213026320639
1980.6707220496555 2924.535880488373
1981.3368022727373 2939.6628147428914
1982.0027220505417 2987.0443904942135
1982.66848142225 2742.595737800748
1983.3340804270283 2923.485400924377
1983.999519104027 2821.149721662204
1984.6647974923835 2989.5802415106245
1985.329915631215 2867.0208266480126
1985.99487355963 2963.319091667677
1986.6596713167146 2988.217509632718
1987.3243089415428 2917.341155575355
1987.9887864731754 3031.7610578505146
1988.6531039506553 2920.316320497442
1989.3172614130071 3283.3352995832474
1989.9812588992481 2850.5630291334955
1990.645096448372 2827.806521684075
1991.3087740993633 2938.7152079768075
1991.9722918911848 2698.182510997671
1992.635649862792 2924.8932349357706
1993.2988480531185 3071.8735538785068
1993.9618865010852 3287.3425835950206
1994.6247652455968 2818.63845389068
1995.287484325545 2906.2444523049235
1995.9500437798033 2943.2010491366054
1996.6124436472292 2910.93732735986
1997.2746839666706 2889.9056886580283
1997.936764776954 2938.440947480371
1998.598686116895 2821.0681379314556
1999.2604480252903 2907.490185357693
1999.9220505409212 2900.541630421159
2000.5834937025593 2909.865680282231
2001.2447775489582 2876.8153325414855
2001.9059021188514 2867.164318238004
2002.5668674509616 2814.972587352594
2003.2276735839987 2680.943753621871
2003.8883205566508 2904.847481792006
2004.5488084075987 2927.4814698517944
2005.2091371755014 2857.1117764711857
2005.8693068990033 2781.5923869294975
2006.5293176167397 2945.381252100062
2007.1891693673224 2798.7694793692917
2007.848862189354 2632.4209843597937
2008.5083961214223 2729.7684767297665
2009.1677712020955 2780.737516677913
2009.8269874699254 2823.6831936211474
2010.4860449634598 2948.2164105897773
2011.1449437212177 2841.523120719673
2011.8036837817108 3219.6961986207516
2012.4622651834325 2829.7242435435405
2013.1206879648653 2945.0722650336675
2013.7789521644736 2925.399499176781
2014.4370578207036 2657.520776957283
2015.0950049719922 2914.3091088733518
2015.7527936567585 2834.288055344736
2016.4104239134067 2868.0112137064666
2017.067895780323 3062.5119849819484
2017.725209295886 2668.527809414869
2018.3823644984514 2822.832848355221
2019.0393614263648 2912.7154906879555
2019.6962001179545 2731.586625629764
2020.3528806115355 2803.438692773033
2021.0094029454067 2785.9162306655244
2021.6657671578487 2871.9850804624425
2022.321973287133 2781.931398696085
2022.9780213715148 2704.5960017408574
2023.6339114492293 2802.0240152484466
2024.2896435585026 2923.556896537509
2024.9452177375442 2709.8880381661866
2025.600634024544 2859.9616486678865
2026.2558924576842 2985.7733611456433
2026.9109930751292 3036.343727361863
2027.565935915025 2824.8821684400323
2028.2207210155066 2954.536548943444
2028.8753484146964 2961.708310324586
2029.529818150695 2603.98256331702
2030.1841302615903 2790.275637307118
2030.8382847854573 2675.422466701961
2031.4922817603601 2752.4716845964604
2032.1461212243357 2760.398401809548
2032.7998032154192 2691.2341626850784
2033.4533277716218 2877.346961121188
2034.1066949309443 2756.9614484283265
2034.7599047313688 2699.896905120445
2035.4129572108704 2857.1735863023373
2036.0658524074006 2778.9312861254425
2036.7185903589016 2793.181564939503
2037.3711711032956 2848.3956774018257
2038.023594678496 2834.3670738409337
2038.675861122394 2691.2937380643903
2039.3279704728757 2861.293521702048
2039.9799227678031 2584.4493248288554
2040.6317180450278 2731.8648872224685
2041.2833563423865 2626.5501353367335
2041.9348376977014 2757.7744606225797
2042.5861621487784 2884.7609786524245
2043.2373297334088 2718.717906012201
2043.8883404893695 2890.144208588029
2044.5391944544208 2700.893533065789
2045.1898916663158 2748.0029245336136
2045.8404321627804 2886.6660810124604
2046.4908159815368 2618.883425959816
2047.1410431602853 2880.405157142752
2047.7911137367173 2627.5672745520487
2048.441027748504 2807.1932783208536
2049.090785233302 2688.452114433943
2049.7403862287592 2678.429408334953
2050.389830772503 2919.963283993155
2051.0391189021466 2659.602755875094
2051.688250655294 2564.351132903731
2052.337226069527 2650.24760269263
2052.986045182417 2743.219796671662
2053.634708031521 2435.5533643328727
2054.283214654375 2774.649926321427
2054.931565088511 2298.662611944552
2055.579759371436 2711.7344671971664
2056.2277975406523 2709.4497896798985
2056.8756796336384 2797.403007894657
2057.5234056878617 2751.5685466506757
2058.1709757407752 2787.953073232723
2058.8183898298194 2784.334627910205
2059.465647992416 2628.5944834564634
2060.1127502659747 2669.7486413639917
2060.759696687888 2684.7566077553793
2061.4064872955405 2753.0583392319686
2062.053122126292 2957.5032963706935
2062.699601217497 2372.0043555736356
2063.345924606485 2636.8895278765367
2063.992092330587 2750.0822344056555
2064.638104427102 2656.9353278672793
2065.283960933324 2809.0066793799665
2065.92966188653 2467.1814847864266
2066.5752073239855 2647.7665789046832
2067.2205972829397 2595.490951863266
2067.86583180062 2705.814566671468
2068.5109109142522 2774.1716158223967
2069.15583466104 2907.503288879903
2069.8006030781708 2512.544676645418
2070.445216202821 2578.647392102301
2071.089674072153 2634.5296065624866
2071.7339767233116 2715.55288423549
2072.3781241934303 2743.0490205860665
2073.0221165196253 2802.5896565349094
2073.6659537390024 2637.301694432981
2074.3096358886505 2703.90425915577
2074.953163005637 2593.4672118831545
2075.596535127028 2446.351893164569
2076.2397522898664 2602.4699176040695
2076.882814531182 2399.09149762767
2077.5257218879924 2673.4516687139862
2078.1684743973 2685.4731391373357
2078.8110720960885 2436.9323298888676
2079.453515021336 2881.6822372241045
2080.095803209997 2670.7476222593327
2080.7379366990135 2638.842870166716
2081.37991552532 2578.078707571448
2082.0217397258275 2596.6297333725365
2082.6634093374414 2548.4488049140386
2083.3049243970418 2451.933078625429
2083.9462849415067 2711.6864224250294
2084.587491007689 2720.5109084750316
2085.2285426324324 2591.0167671700437
2085.869439852564 2683.3137035099053
2086.510182704902 2378.0204262227
2087.1507712262483 2390.5147240797605
2087.791205453381 2405.3015786181495
2088.4314854230743 2624.121904108994
2089.0716111720867 2690.093658551262
2089.7115827371617 2393.8545992026607
2090.351400155023 2762.0647953364055
2090.991063462385 2514.454348497307
2091.6305726959527 2472.6470602230193
2092.2699278924047 2552.115959019347
2092.9091290884153 2658.690162304662
2093.548176320641 2513.2113234865183
2094.187069625721 2735.840165616676
2094.8258090402887 2367.6922712047804
2095.464394600951 2658.6347521772395
2096.102826344313 2628.7121082946496
2096.741104306955 2692.7165770934157
2097.379228525453 2699.2445348408382
2098.017199036358 2376.1293999961404
2098.6550158762147 2618.010031173986
2099.2926790815527 2564.2374537021574
2099.9301886888825 2578.813892130157
2100.5675447347076 2606.392761676041
2101.2047472555114 2639.9317382513905
2101.841796287761 2395.0834598100637
2102.47869186792 2530.4992562459556
2103.1154340324265 2587.859264133939
2103.752022817709 2478.9321871403145
2104.388458260184 2688.730553025772
2105.024740396251 2479.641989312017
2105.660869262292 2569.501396054817
2106.296844894685 2497.2081397774796
2106.93266732978 2709.341352277614
2107.5683366039284 2574.9295403309857
2108.2038527534532 2473.8099355999802
2108.8392158146726 2736.058231262693
2109.4744258238843 2606.155362094464
2110.1094828173755 2289.502296458274
2110.744386831422 2611.663060689497
2111.3791379022787 2568.05775635706
2112.01373606619 2424.124425519157
2112.648181359389 2736.907044965106
2113.28247381809 2635.1324056658204
2113.916613478492 2489.35071270306
2114.550600376786 2642.9063593783367
2115.1844345491445 2433.3076927353477
2115.818116031729 2513.8630024634876
2116.451644860679 2539.636044386495
2117.085021072133 2443.41378447636
2117.718244702204 2244.377905302073
2118.3513157869984 2363.6373391659686
2118.984234362604 2397.42662933049
2119.617000465092 2531.495191353778
2120.249614130529 2543.2838192234985
2120.8820753949585 2528.1384556324842
2121.5143842944162 2477.4892083864643
2122.14654086492 2485.8348840084664
2122.7785451424734 2813.884278773159
2123.4103971630702 2243.819152824707
2124.042096962681 2563.0448616225976
2124.6736445772767 2445.557197952396
2125.305040042802 2258.729531748216
2125.936283395191 2360.720301119544
2126.567374670365 2368.7668453166843
2127.198313904233 2360.5028640332307
2127.8291011326855 2689.483969638992
2128.4597363916037 2526.926276598758
2129.0902197168507 2291.6708934611324
2129.720551144279 2473.879974810511
2130.3507307097225 2463.1793000192683
2130.980758449008 2437.349992053838
2131.6106343979427 2341.544905810884
2132.2403585923203 2649.646529216118
2132.8699310679276 2451.300951688472
2133.499351860526 2326.382019518521
2134.1286210058715 2441.1865243932516
2134.7577385397053 2362.4528191824734
2135.3867044977487 2605.124996340738
2136.0155189157176 2581.7189533458195
2136.644181829308 2468.296678822341
2137.2726932742025 2441.3245681439303
2137.901053286074 2572.4571570489143
2138.5292619005777 2287.204913794353
2139.1573191533535 2363.3316488747087
2139.7852250800315 2546.5254496325624
2140.4129797162295 2380.2267155515965
2141.0405830975433 2266.5657431507816
2141.6680352595613 2565.0398871215807
2142.2953362378576 2328.967005672775
2142.9224860679915 2307.231248243327
2143.549484785508 2346.16221608281
2144.1763324259373 2524.39625610601
2144.803029024799 2444.4249827575886
2145.429574617594 2218.345196243124
2146.0559692398165 2454.989205336678
2146.682212926942 2436.500736647745
2147.308305714432 2247.476625278827
2147.9342476377333 2603.6766394856195
2148.5600387322847 2374.8688985870276
2149.185679033506 2518.915811174632
2149.8111685768017 2352.406858258171
2150.4365073975678 2332.511034153849
2151.061695531187 2458.3247302028985
2151.686733013021 2560.3326469824856
2152.311619878423 2660.154918748525
2152.9363561627342 2235.3777939872916
2153.560941901278 2279.9136955751956
2154.1853771293663 2244.8159430331843
2154.809661882293 2192.700580419925
2155.433796195348 2199.300332688067
2156.0577801037944 2205.6311403078735
2156.681613642895 2112.7454710375214
2157.3052968478896 1900.0388462336425
2157.928829754006 2446.2852334291915
2158.552212396462 2299.2373000844427
2159.1754448104566 2313.199079435618
2159.7985270311783 2324.8250805271086
2160.4214590938027 1956.3332381113773
2161.0442410334927 2272.6986119280473
2161.6668728853874 2290.1371395800415
2162.289354684628 2500.3148416882095
2162.911686466332 2353.8087762846553
2163.533868265602 2441.3894031874474
2164.1559001175337 2382.5733423939573
2164.7777820572046 2393.603905455911
2165.399514119681 2205.9477477702294
2166.021096340013 2147.8936738542075
2166.6425287532384 2526.668840557738
2167.263811394385 2207.39571875406
2167.8849442984574 2373.5861286396203
2168.505927500455 2220.8911784395727
2169.126761035366 2314.827765570979
2169.7474449381552 2207.9323593566937
2170.367979243778 2184.6837239299684
2170.9883639871823 2306.939629746045
2171.608599203293 2243.194212657309
2172.2286849270276 2453.8970591682437
2172.8486211932886 2359.7852316661088
2173.4684080369625 2407.6388817491256
2174.0880454929265 2389.5658438798782
2174.7075335960417 2150.8097582233727
2175.3268723811543 2359.815138871877
2175.9460618831 2376.03927935078
2176.565102136701 2287.607733202059
2177.1839931767627 2400.809082784065
2177.802735038078 2207.2384759925217
2178.421327755432 2299.362302262738
2179.0397713635866 2237.0603289404035
2179.658065897298 2237.244638994932
2180.276211391305 2244.0004841148325
2180.8942078803357 2392.4727506341405
2181.5120553991 2488.9498000538088
2182.129753982299 2155.156474362631
2182.7473036646206 2391.1466236195856
2183.3647044807367 2465.1157588799497
2183.9819564653044 2112.8183834861325
2184.599059652968 2344.4192279947097
2185.216014078367 2341.9199372420953
2185.832819776113 1980.1347709269146
2186.4494767808137 2497.555398333141
2187.065985127063 2195.7000710942484
2187.682344849436 2115.202774679435
2188.298555982501 2536.096289673878
2188.9146185608097 2327.8381856252527
2189.530532618901 2394.9054639015117
2190.1462981912937 2316.6404739003856
2190.761915312507 2235.5993915773233
2191.377384017036 2120.471570356128
2191.9927043393654 2268.2814772495904
2192.6078763139667 1898.0415958151086
2193.2228999753006 2454.3888722101647
2193.837775357808 2257.304186289629
2194.452502495922 1985.9246130865383
2195.0670814240602 2264.64909228986
2195.6815121766285 2202.4899377739293
2196.2957947880186 2403.7310858988776
2196.9099292926057 2116.254234369416
2197.523915724758 2184.449386719363
2198.137754118825 2210.1749914266516
2198.7514445091456 2353.204001643543
2199.3649869300443 2064.7325085093516
2199.9783814158327 2651.5948431307297
2200.5916280008096 2368.5000522830846
2201.2047267192593 2350.677590023679
2201.8176776054515 2241.3162614126063
2202.430480693649 2408.7108415480066
2203.0431360180955 2065.6346059229004
2203.6556436130195 2244.457347076027
2204.268003512645 1880.8657279298793
2204.8802157511727 2168.2712444702106
2205.492280362796 2567.029331906797
2206.1041973816937 2234.797687147379
2206.715966842032 2137.1298584853034
2207.3275887779655 2158.417815659378
2207.93906322363 2258.2829014704953
2208.550390213153 2132.860075232474
2209.1615697806465 2218.150768224251
2209.7726019602105 2052.240077953883
2210.3834867859277 2166.559931244675
2210.9942242918787 1998.3274953498126
2211.6048145121167 2396.2010218334462
2212.2152574806914 2449.4862444985165
2212.825553231638 2241.2865923084732
2213.435701798975 2274.9261346166595
2214.045703216707 2225.34274685545
2214.655557518832 1830.3866080046434
2215.2652647393297 2121.2318357038625
2215.874824912169 1829.6669809579096
2216.4842380713 2364.5910882850976
2217.09350425067 1966.3488159137328
2217.7026234842033 2428.920569917905
2218.311595805819 2132.4802287690563
2218.9204212494133 1966.563726172945
2219.52909984888 2015.9794333205668
2220.137631638092 1882.1789700753257
2220.7460166509154 2232.159987124336
2221.354254921198 2185.5457097762614
2221.9623464827764 2427.2602974444208
2222.5702913694713 2179.556024998523
2223.178089615096 2428.8947869252274
2223.7857412534486 2258.4543287891065
2224.39324631831 1965.2374189744146
2225.000604843457 2255.3749611687854
2225.607816862641 2069.7148398367294
2226.214882409611 2028.0478142412835
2226.8218015180973 2246.3304550380503
2227.4285742218217 2146.5711329102096
2228.0352005544864 2040.7652773337818
2228.6416805497847 2063.6050698795075
2229.248014241399 2292.127474002476
2229.8542016629945 2203.473396075433
2230.460242848223 2114.7640819334256
2231.0661378307304 2198.6944745119727
2231.671886644139 2115.8151118103656
2232.277489322065 1884.6868379620646
2232.8829458981127 1868.4477367578086
2233.48825640587 2090.7685914591084
2234.0934208789095 2406.554408558442
2234.6984393507955 2287.267202761624
2235.3033118550793 2052.7222071192095
2235.9080384252975 2026.5073238019163
2236.5126190949723 2033.9043005811454
2237.1170538976166 1961.0186701423997
2237.721342866729 1803.241933553148
2238.32548603579 2062.2742936205636
2238.9294834382763 2197.215993529697
2239.533335107646 1986.4307466504517
2240.1370410773434 1836.90044706607
2240.740601380803 1944.034084166527
2241.3440160514474 2221.7817334255014
2241.9472851226783 2379.4434888159567
2242.550408627896 2143.0164612054004
2243.1533866004793 2333.353915142002
2243.756219073799 2049.3908468121604
2244.3589060812064 1838.7295773684868
2244.961447656049 2029.396167676714
2245.5638438316564 2152.4629062603103
2246.166094641343 2190.006751289638
2246.7682001184166 1941.860113863734
2247.3701602961664 2063.853188947449
2247.971975207871 2410.150975030201
2248.5736448867974 1975.814706846099
2249.175169366197 1938.9996681889625
2249.7765486793123 2221.9221544307597
2250.3777828593684 2199.8875684964487
2250.9788719395783 2137.434034497756
2251.579815953146 2134.422607160782
2252.1806149332606 2199.954254405568
2252.781268913097 2265.5090152067187
2253.381777925817 2238.488573619922
2253.9821420045737 2120.2484308844673
2254.5823611825035 2127.5568214144887
2255.1824354927303 2383.399697653283
2255.782364968365 2089.92703498812
2256.38214964251 1796.1133100755474
2256.9817895482483 1797.4466205278527
2257.5812847186553 2064.5599321562686
2258.180635186791 2201.4556325745425
2258.779840985704 1979.2643020834676
2259.37890214843 1982.4964760226073
2259.97781870799 2041.5012263918009
2260.5765906973957 2230.291988491632
2261.175218149645 2200.5968893265826
2261.773701097718 2120.9692442022133
2262.3720395745895 1732.7647525173998
2262.970233613216 1983.8149856584757
2263.568283246548 2247.3026781474873
2264.1661885075137 2106.535477241615
2264.763949429038 2126.225306972558
2265.3615660440246 1959.2737966131012
2265.959038385374 1962.160243627864
2266.5563664859637 2287.235993264339
2267.153550378669 1899.70908893974
2267.7505900963424 1983.4885554989087
2268.3474856718312 2113.2553849646088
2268.9442371379664 2177.8406036262795
2269.5408445275643 2144.978026701021
2270.1373078734377 1916.5247037538215
2270.7336272083758 1803.84361513947
2271.32980256516 2084.44459220197
2271.925833976562 2246.016968048518
2272.5217214753357 2346.4911380179824
2273.117465094223 1852.7152601014382
2273.7130648659586 2062.088094531443
2274.308520823257 1977.9221705768382
2274.903832998827 2172.405627074284
2275.4990014253563 2233.1008823112115
2276.094026135528 2293.870705426904
2276.6889071620117 1970.017603339477
2277.2836445374614 1776.919063397821
2277.878238294519 2049.1699146726005
2278.472688465812 2174.6407568974587
2279.066995083962 2055.366410559316
2279.6611581815705 1917.2882166273005
2280.255177791232 2125.149103073261
2280.8490539455233 2095.768363785212
2281.442786677013 2343.187134989806
2282.0363760182554 2083.9346048947764
2282.6298220017943 1969.1846869318647
2283.223124660155 2278.4347126225266
2283.816284025859 2015.6025360202661
2284.4093001314086 1863.2143782073629
2285.002173009292 2040.643160477985
2285.5949026919952 2044.6110090199122
2286.1874892119777 2191.253579510879
2286.7799326016993 2039.8332069499368
2287.3722328936 1955.536914345936
2287.964390120109 2048.7044560909694
2288.556404313642 2141.8997338957165
2289.1482755066027 2001.8792810803402
2289.7400037313873 2342.5992566317395
2290.3315890203703 1930.8772465513798
2290.9230314059205 1927.6720670943396
2291.5143309203904 1924.5216382882631
2292.1054875961236 1769.5450866403917
2292.6965014654506 2007.200681436634
2293.287372560684 1882.3626405998518
2293.878100914131 2235.099616450745
2294.468686558086 1940.4040459858286
2295.059129524827 1882.1007183863435
2295.649429846617 2180.3414615001866
2296.239587555716 1831.976230276677
2296.8296026843636 2031.7025938183676
2297.419475264791 2099.1417823652746
2298.0092053292137 1923.5808512222193
2298.598792909839 1880.3912577558694
2299.1882380388597 1774.5606517448455
2299.777540748455 2027.3821238549049
2300.3667010707904 2219.485770630582
2300.9557190380256 1691.3586554432204
2301.544594682302 2117.658666935201
2302.1333280357503 1710.844468371132
2302.721919130485 2156.9020587241043
2303.3103679986198 2195.196716946097
2303.898674672242 2074.4551049139673
2304.486839183437 2013.3591601482683
2305.0748615642697 1955.6186112496703
2305.6627418468015 1939.9067080511472
2306.2504800630704 1681.990281337649
2306.8380762451143 2127.0257758173625
2307.425530424949 2093.852906660092
2308.012842634582 2060.5875874757053
2308.6000129060103 2153.8037007746734
2309.187041271214 2149.7617374757288
2309.773927762164 2035.146859402609
2310.3606724108213 1943.9278653713732
2310.9472752491274 1852.5376727565017
2311.5337363090184 1814.016031509386
2312.120055622414 1914.3401747574658
2312.706233221221 1977.2799164650696
2313.2922691373424 1701.182288295966
2313.8781634026564 2154.414522146709
2314.463916049037 1912.2956424454937
2315.049527108342 1649.8282784921855
2315.6349966124235 1953.0729924258455
2316.2203245931123 2136.6611727608315
2316.8055110822315 1823.902137510806
2317.3905561115935 1857.3347959199123
2317.9754597129977 1771.7464473604682
2318.560221918229 2128.0692322420064
2319.1448427590603 1794.0029536051018
2319.729322267256 1875.7926027045614
2320.313660474563 1795.0317655253252
2320.8978574127195 1958.7508757445441
2321.481913113452 1909.7428621613587
2322.0658276084705 1860.6773627727594
2322.6496009294806 1933.4840765977217
2323.233233108165 1969.6989319337529
2323.8167241762058 2005.9797191192035
2324.4000741652617 1921.4775538373428
2324.983283106987 1947.4925814819612
2325.5663510330232 1887.607442614236
2326.1492779749933 1990.6940426364986
2326.7320639645204 2063.401952480716
2327.3147090332004 1822.2192422747594
2327.897213212629 2208.424516948169
2328.4795765343843 2149.051742095675
2329.0617990300307 2001.636273806505
2329.643880731124 1911.5651971453462
2330.22582166921 1821.4727130892752
2330.807621875816 2114.1569801059823
2331.3892813824623 1607.3912408693673
2331.9708002206517 1753.0758673764908
2332.5521784218818 1838.0159984694285
2333.133416017634 2043.916118902694
2333.7145130393765 1775.4775292088561
2334.295469518571 1992.059368300156
2334.876285486658 1972.0616009509758
2335.456960975076 1687.3934850453218
2336.037496015242 1792.7114316700652
2336.6178906385667 1898.3035530152927
2337.198144876451 1986.187886865649
2337.778258760278 1786.110641460878
2338.3582323214214 2079.299722071841
2338.938065591243 1857.3162592784981
2339.517758601087 2053.8983814495837
2340.0973113822965 1728.7243531819925
2340.676723966193 1842.653301096109
2341.255996384094 2062.103100110908
2341.835128667295 1925.925273656546
2342.4141208470883 2170.111286351932
2342.992972954751 1732.4057160196703
2343.5716850215467 2110.377073000602
2344.1502570787306 1536.2888763324643
2344.7286891575386 1669.7397446187183
2345.3069812892045 1879.8181307351467
2345.885133504944 1757.7781508526411
2346.4631458359618 1806.0624946672983
2347.04101831345 1681.8096039193947
2347.6187509685915 1860.6893900184841
2348.196343832553 2041.4979039813607
2348.7737969364935 2046.2291929386852
2349.351110311558 1960.1822715017774
2349.9282839888765 1638.1292525374643
2350.5053179995757 1847.4190658163723
2351.0822123747585 1824.310102141127
2351.658967145526 1874.8389530092513
2352.2355823429643 1806.3379227556259
2352.812057998144 1771.1561177599208
2353.3883941421263 1838.7637288505387
2353.9645908059647 1906.58861618108
2354.540648020693 1971.990456639857
2355.116565817336 1704.519429763301
2355.6923442269126 1746.9767005156907
2356.2679832804224 1789.5161345083511
2356.8434830088518 1649.9951182766788
2357.41884344318 1575.59663393144
2357.994064614377 1772.0295812202826
