#exp_cfg={"servo_angle": 0.0, "laser_lim": 100.0, "servo_angle_to": 18.0, "laser_wup": 0.0, "bt_dev": "EnSpectr-25AE3", "laser_wdn_max": 0.0, "frames": 10.0, "servo_used": 0, "servo_calib_use": 0, "laser_wdn_min": 0.0, "servo_pix_from": 90.0, "cooler_tout": 300.0, "servo_angle_from": 0.0, "servo_calib": "[-1.9174921013161362e-09, 3.9322238269163779e-05, -0.27385609119055809, 653.59552119713567]", "laser_autoctl": 0, "servo_pix_to": 3682.0, "laser_pw": 100.0, "cooler_on": 0, "laser_volt": 4.0, "cooler_autoctl": 0, "cooler_curr": 70.0, "cooler_startup": 10.0, "laser_fixed_pw": 0, "gain": 1.3, "offset": 2.53059635486, "servo_calib_degree": 3.0, "laser_curr": 55.0, "shutter": 8200.0, "servo_calib_step": 1.0, "laser_fixed_curr": 0, "exp": 2000.0, "ccd_volt": 4.7, "bt_addr": "00:06:66:62:5A:E3", "servo_delay": 500.0, "laser_autooff": 1}
#proc_cfg={"flat_auto_wnd": 200.0, "flat_auto_fr": 200.0, "flat_auto_shift": 5.0, "yconv": 1, "flatten": 1, "flatten_strength": 100.0, "xfrom": 300.0, "auto_max_frame": 2000.0, "auto_signal": 48000.0, "flat_auto_tol": 0.1, "autoclip": 1, "xrel_range": 0.0, "flat_auto_to": 4000.0, "intensity_adj": 1.0, "xrel": 7852.0, "rmhot": 1, "flat_auto_slit": 4.999999999999997, "auto_ini_exp": 300.0, "auto_off": 0, "xto": 2860.0, "flat_auto_ref": "", "flat_auto_rank": 1, "autobackg": 0, "xrel_adj": 0.0, "auto_black_lvl": 1, "base_wnd": 100.0, "sub_baseline": 0, "xconv": 2, "auto_max_exp": 1000.0, "auto_total_exp": 10000.0, "auto_exp": 0, "rmripple": 0, "black_lvl": 8208.7, "shutter_clip_adj": 0.0, "auto_bckg": 0, "flat_auto_thr": 0.9, "subbackg": 1}
316.8218498245369 27545.141474075022
317.89969571804795 27391.162439451204
318.977263876126 27262.440432643547
320.05455438786703 27131.545483086065
321.1315673423287 27080.28218373104
322.2083028285215 27010.959336055734
323.2847609354267 26848.567830936605
324.3609417519747 26705.71759499783
325.43684536705587 26643.24483670381
326.5124718695279 26568.060628104868
327.58782134820103 26407.59298973377
328.66289389184385 26323.80160152395
329.7376895891921 26294.424113395828
330.8122085289342 26138.215764261477
331.88645079971866 26047.797566918165
332.9604164901575 26038.358597872757
334.03410568881554 25953.412076362052
335.1075184842266 26014.58309768528
336.18065496487543 25793.618500822784
337.2535152192122 25726.973454026283
338.32609933564163 25720.59092256323
339.39840740253203 25646.516555399397
340.4704395082099 25618.66042107096
341.5421957409617 25464.50536187902
342.6136761890357 25542.78652054997
343.6848809406365 25439.4986682432
344.75581008392874 25398.53651969741
345.82646370703696 25235.09491145593
346.8968418980512 25260.561858882294
347.96694474501055 25268.70451314352
349.0367723359268 25247.188179302953
350.106324758759 25090.30765988742
351.1756021014353 25139.011653401998
352.2446044518383 25125.64498947649
353.31333189781435 25071.707016634005
354.38178452716966 25055.64817117023
355.449962427665 25068.769637149904
356.51786568702846 24940.447309863514
357.58549439294256 25131.05296447913
358.6528486330535 25007.8174272846
359.71992849496564 25026.262995155485
360.7867340662433 25075.504192857006
361.8532654344144 25011.65829598677
362.9195226869597 25136.91269880506
363.9855059113288 25022.42286641799
365.05121519492604 25032.77206603077
366.11665062511565 25078.358577116753
367.1818122892273 25046.16544970351
368.2467002745434 25048.164718584165
369.31131466831175 25101.858438444287
370.375655557742 25181.77779861238
371.4397230299983 25172.4887780917
372.5035171722102 25034.455006652035
373.5670380714637 25143.00172511049
374.6302858148101 25075.1287361798
375.6932604892554 25091.580273618245
376.7559621817709 25040.067181118848
377.81839097928605 24998.13988147793
378.8805469686886 25084.010965449488
379.94243023683157 25204.063445831584
381.0040408705263 24952.248564421203
382.0653789565458 24982.440416144953
383.1264445816196 25059.94562535184
384.1872378324406 25018.19981335072
385.2477587956637 25054.144774563065
386.3080075579037 24915.330014503234
387.3679842057336 24800.81390365802
388.4276888256918 24747.006668187503
389.48712150426945 24800.661240238238
390.54628232792857 24692.652488204843
391.6051713830857 24676.17287517325
392.66378875611736 24666.493711120434
393.7221345333637 24714.93002740107
394.7802088011249 24629.243985870955
395.838011645661 24621.638525331575
396.89554315319765 24437.1722829349
397.9528034099112 24451.67297089409
399.00979250194723 24217.62236256061
400.06651051541485 24222.281987514732
401.1229575363741 24080.70054737469
402.17913365085224 24319.746569179457
403.23503894483656 24256.142145829406
404.2906735042761 24170.31619322008
405.3460374150818 24010.455893911247
406.401130763119 23994.534766152814
407.455953634224 23997.81535999335
408.5105061141876 24036.857845266724
409.56478828876243 23760.47312168811
410.6188002436629 23746.800791916517
411.6725420645689 23708.89877961745
412.72601383711117 23805.37154864925
413.77921564689314 23853.64401298493
414.8321475794728 23745.846557642646
415.88480972036814 23492.675213041723
416.93720215506437 23577.48611628997
417.9893249690049 23507.25568707055
419.04117824759123 23414.53990415213
420.09276207619223 23419.294153815907
421.144076540133 23421.200211010757
422.1951217247042 23354.611404757114
423.24589771515275 23277.098310876052
424.2964045966928 23269.463513065297
425.34664245449494 23315.278868208152
426.3966113736933 23326.4254902599
427.4463114393875 23218.89970449485
428.49574273662984 23149.089129247415
429.5449053504417 23205.753971427795
430.5937993658026 23141.32093108283
431.6424248676558 23170.238734869992
432.6907819409007 23189.7200173664
433.73887067040596 23104.695220841546
434.7866911409965 22997.83741818005
435.8342434374608 23115.794330885903
436.88152764455117 22975.466395222255
437.9285438469724 22956.760844294477
438.9752921294057 22780.5460204661
440.02177257648145 22846.397833837247
441.06798527279716 22640.474443487976
442.1139303029122 22921.09174349564
443.1596077513459 22728.560641110653
444.2050177025794 22933.699736826708
445.25016024105753 22783.168317581247
446.2950354511886 22765.313002078055
447.33964341733736 22815.357512125996
448.383984223834 22717.50922295428
449.4280579549686 22728.52826765322
450.471864694995 22782.95013132203
451.5154045281306 22691.236438579963
452.5586775385509 22608.20710942439
453.60168381039693 22558.192477850163
454.64442342776783 22799.06619079774
455.6868964747264 22569.193905129086
456.7291030353008 22527.68155404234
457.77104319347563 22563.5261184132
458.8127170332027 22548.406676223392
459.854124638392 22543.401535520385
460.895266092919 22690.427654592888
461.93614148061897 22752.257866879267
462.97675088529104 22667.10381683567
464.01709439069236 22600.695321282292
465.0571720805492 22654.384324408886
466.0969840385442 22584.57149284025
467.1365303483253 22676.769306432343
468.17581109350067 22632.48380454731
469.2148263576437 22665.346395626013
470.2535762242878 22679.086179281305
471.29206077693016 22775.368832633005
472.33028009902773 22714.785638344132
473.3682342740012 22901.08007831036
474.40592338523857 22902.881289718476
475.4433475160804 22998.530388271796
476.4805067498364 22966.34104684849
477.51740116978 23063.220368699276
478.5540308591426 23260.385532985954
479.59039590112116 23488.390094845145
480.6264963788726 23507.1250738147
481.6623323755193 23796.017670022655
482.6979039741436 23883.059754646056
483.7332112577915 24239.28220727775
484.76825430947247 24357.902510800086
485.80303321215797 24666.006855459906
486.837548048783 24707.036327819194
487.8717989022425 24923.569414541955
488.90578585539697 24963.234082315823
489.9395089910686 25274.014022550968
490.97296839203955 25118.20885382378
492.00616414106116 25066.455769881122
493.0390963208429 25077.503843925802
494.0717650140559 25024.918785622744
495.10417030333883 24834.023673921867
496.1363122712901 24592.730230260724
497.16819100046814 24339.810933129145
498.1998065734024 24127.76753471454
499.2311590725767 23933.9728069506
500.26224858044407 23734.407756809433
501.2930751794156 23547.866518469695
502.3236389518679 23355.050227021973
503.35393998014115 23124.780109184565
504.38397834653733 23002.767304588167
505.4137541333221 22987.806731190274
506.4432674227228 22864.054912853528
507.4725182969323 22727.243166852793
508.5015068381035 22589.958686245947
509.53023312835467 22482.828565760014
510.55869724976765 22461.747595436413
511.58689928438434 22229.09759043545
512.6148393142121 22310.57618007766
513.6425174212218 22184.957546051322
514.6699336873462 22342.826624124376
515.6970881944835 22249.429602205724
516.7239810244901 22113.229479450958
517.7506122591931 22105.729240685105
518.7769819803761 22346.70866492805
519.8030902697901 22199.48534655278
520.8289372091476 22227.22260330061
521.8545228801249 22356.712108140437
522.8798473643619 22217.342947736397
523.9049107434621 22279.42618135029
524.9297130989908 22205.59365471196
525.9542545124805 22106.329651583346
526.9785350654201 22222.674034810956
528.0025548392696 22114.227663434856
529.0263139154504 22102.07662663664
530.0498123753423 21994.49802288779
531.073050300296 21905.737547555087
532.0960277716204 21908.914441644778
533.1187448705896 21959.01000263084
534.1412016784416 21736.452032828955
535.1633982763833 21863.65876221936
536.1853347455726 21672.583126759717
537.2070111671401 21599.86036473159
538.2284276221817 21592.279638582135
539.2495841917516 21472.887258495455
540.2704809568677 21448.447824741037
541.2911179985167 21501.454143175397
542.3114953976419 21413.241042492406
543.3316132351592 21347.509027155964
544.3514715919409 21185.728499470886
545.3710705488247 21120.292278889676
546.3904101866156 21164.62897578532
547.4094905860784 21264.76104815498
548.4283118279418 21130.627450828793
549.4468739929034 21070.265062824074
550.4651771616191 21020.246562075263
551.4832214147063 20977.097051662167
552.501006832761 21012.710077015705
553.5185334963226 21063.575260393576
554.5358014859103 20985.0867513079
555.5528108820035 20952.625311810778
556.5695617650363 21044.89976460806
557.5860542154242 21135.71817198021
558.6022883135283 20987.716702111073
559.6182641396881 20861.23076744431
560.6339817741991 20882.49835629836
561.6494412973225 20978.531586330602
562.6646427892883 20812.838740541858
563.6795863302796 20920.52834944349
564.694272000459 20846.467473984198
565.7086998799423 20867.801462272568
566.7228700488104 20917.77696009133
567.7367825871115 20889.34170138815
568.7504375748576 20863.34379842422
569.7638350920224 20882.65687696013
570.7769752185486 20995.57712017288
571.7898580343353 20931.631434536852
572.802483619258 21033.01355641787
573.8148520531431 21147.191757951714
574.8269634157932 21124.021066344038
575.8388177869692 21050.82897063368
576.8504152463938 21165.081066783187
577.8617558737587 21267.30672804995
578.8728397487175 21283.436809894796
579.883666950891 21455.19267436186
580.8942375598654 21461.246346290132
581.9045516551851 21677.216636926172
582.9146093163617 21829.886594049665
583.924410622878 21877.53619151832
584.9339556541727 21891.32032688068
585.9432444896538 21861.154245099857
586.9522772086875 21876.246743916374
587.9610538906127 21887.334250930082
588.9695746147318 21735.66542500846
589.9778394603054 21862.81220728423
590.985848506567 21688.975442605886
591.9936018327098 21566.64206101799
593.0010995178891 21450.89717808275
594.0083416412344 21460.54950681227
595.0153282818283 21273.37584165745
596.0220595187293 21216.64474952826
597.0285354309508 21186.846668553186
598.0347560974806 20985.90802294158
599.0407215972609 21059.706959051407
600.0464320092051 21064.39879640388
601.0518874121954 20925.93613523705
602.0570878850685 21000.619257551192
603.062033506636 20991.653229372274
604.0667243556636 21035.396302559522
605.0711605108936 20914.204521359447
606.0753420510264 21121.647055204518
607.0792690547278 21034.06387393483
608.082941600629 20983.01448216594
609.0863597673306 20948.404521405067
610.0895236333909 21131.801090107336
611.0924332773357 21243.633691113984
612.0950887776617 21406.843194147696
613.0974902128219 21470.85449775552
614.0996376612384 21437.920022356295
615.1015312013005 21751.505784528264
616.1031709113595 21902.1890555093
617.1045568697336 21976.058788421506
618.1056891547069 22380.358704125778
619.1065678445229 22433.724471162182
620.1071930173985 22898.399350746942
621.1075647515099 22933.08741225724
622.1076831250048 23150.345076862468
623.1075482159849 23540.128078623562
624.1071601025305 23684.27803272619
625.1065188626781 23951.202905191047
626.105624574433 24354.87714782501
627.1044773157682 24439.893266772633
628.1030771646128 24868.341238960104
629.1014241988742 25032.442682567194
630.0995184964158 25226.57998930698
631.0973601350688 25291.83500614388
632.0949491926294 25401.11526715895
633.0922857468631 25247.051423266927
634.089369875499 25248.05796886394
635.0862016562278 25206.030234954225
636.0827811667077 25111.08782291048
637.0791084845641 24956.105061842583
638.0751836873878 24785.502325248417
639.0710068527369 24583.836567525406
640.0665780581294 24293.268894162316
641.0618973810506 23919.67990844539
642.0569648989604 23825.88836559018
643.0517806892676 23554.995745829347
644.0463448293649 23361.385751268932
645.040657396592 23024.498176921225
646.0347184682723 22852.26856241784
647.0285281216875 22534.036405398012
648.0220864340772 22466.688996263743
649.0153934826558 22133.40590756994
650.0084493446047 21975.57248277472
651.0012540970674 21738.84095086311
651.9938078171526 21594.516354573247
652.9861105819346 21583.90204903614
653.9781624684565 21379.711428443683
654.9699635537254 21256.213435819758
655.9615139147136 21279.38464173402
656.9528136283589 20986.39083115462
657.9438627715699 21049.92240907428
658.9346614212154 20705.410439969717
659.925209654135 20711.498773356143
660.9155075471263 20642.314111025546
661.9055551769616 20651.970292665654
662.895352620375 20612.832369529715
663.8848999540678 20653.582236758943
664.8741972547068 20370.098694727196
665.863244598926 20462.126333714074
666.8520420633213 20475.54250226267
667.8405897244611 20353.560807374222
668.8288876588758 20229.319370254212
669.8169359430613 20333.190656555387
670.8047346534822 20269.77724332122
671.7922838665672 20307.127933342916
672.7795836587156 20246.400650596508
673.766634106285 20294.514118418836
674.7534352856092 20199.41929846586
675.7399872729766 20229.2601939854
676.7262901446538 20192.122420970994
677.712343976862 20139.870324416323
678.6981488457986 20333.01451417987
679.6837048276229 20220.449039675634
680.6690119984596 20180.52929114201
681.6540704344043 20179.08550374757
682.6388802115107 20031.56802965471
683.6234414058108 20104.72843876909
684.6077540932874 19971.78148127029
685.591818349907 19970.03727210779
686.575634251587 19877.195964294187
687.5592018742263 19790.02009837212
688.5425212936734 19723.350072093963
689.5255925857564 19746.442206985314
690.5084158262707 19588.108118926848
691.4909910909646 19567.617987352773
692.4733184555644 19455.020608620867
693.4553979957618 19542.026662565964
694.4372297872123 19365.79995692258
695.4188139055404 19315.183055844336
696.4001504263324 19222.426674322905
697.3812394251509 19253.76834212763
698.3620809775111 19222.128525103068
699.3426751589104 19163.437381016127
700.3230220448004 19074.871782010545
701.3031217106054 19159.321043700482
702.2829742317172 19042.51191582713
703.2625796834873 19165.990786841307
704.2419381412474 19039.888944018243
705.22104968028 19203.95245495163
706.1999143758458 19148.23792477863
707.178532303169 18974.402447506185
708.1569035374378 19073.952502829507
709.1350281538107 19150.230973219594
710.1129062274158 19114.69671134279
711.0905378333373 19208.20317491783
712.0679230466376 19206.226227374154
713.0450619423427 19349.200240660924
714.0219545954424 19380.33217098739
714.9986010808989 19298.45094829869
715.9750014736292 19401.771532577815
716.9511558485392 19508.181483996646
717.9270642804786 19508.676625038763
718.9027268442787 19662.17252434401
719.8781436147328 19639.770980803558
720.8533146666014 19595.11593592671
721.828240074612 19540.154722975403
722.8029199134635 19608.831650703505
723.7773542578125 19477.94470562411
724.751543182294 19378.580548048692
725.7254867615029 19294.643530436148
726.6991850700015 19303.51935025431
727.6726381823228 19188.039881584155
728.6458461729599 19137.53411689523
729.6188091163858 19063.698128139367
730.5915270870246 19079.52617602519
731.5640001592856 18964.961990144388
732.536228407529 19156.606461889263
733.5082119060917 19029.284267591487
734.4799507292755 18991.25446256102
735.4514449513481 19012.02145315618
736.4226946465496 19112.053007521532
737.3936998890786 18979.705612917583
738.3644607531078 19079.197949493373
739.3349773127793 18895.791168777017
740.3052496421951 18921.115658258514
741.27527781543 18864.632399440605
742.2450619065221 18745.872550498534
743.2146019894826 18839.28785335999
744.183898138288 18699.338292058477
745.1529504268801 18617.178771079492
746.1217589291682 18507.665806201323
747.0903237190341 18327.685332415756
748.058644870318 18460.917423153936
749.0267224568397 18386.730208839483
749.994556552374 18281.6701400521
750.9621472306771 18196.018507527224
751.9294945654583 18237.231724450474
752.8965986304011 18106.992042961756
753.8634594991636 18226.301457859332
754.8300772453586 18255.090814391333
755.7964519425768 18260.615291189235
756.762583664371 18234.579401624076
757.7284724842611 18209.49295572888
758.6941184757416 18122.525534036125
759.6595217122667 18211.446668240264
760.6246822672638 18160.146222345844
761.5896002141235 18124.41769811488
762.5542756262093 18136.139262743647
763.5187085768503 18252.565489542772
764.4828991393406 18085.48558839184
765.4468473869474 18031.8053260854
766.4105533929032 17962.49035245641
767.3740172304078 17924.343222666845
768.3372389726283 17745.11472280383
769.3002186926988 17851.040851455073
770.2629564637282 17693.14439965818
771.2254523587872 17692.144474662888
772.1877064509154 17592.670767475593
773.1497188131179 17598.061064416084
774.1114895183728 17433.765760123082
775.0730186396268 17415.46347372954
776.0343062497905 17364.58828798666
776.9953524217381 17263.77937258064
777.9561572283274 17253.726963988294
778.9167207423689 17290.085419072602
779.8770430366476 17255.412233163468
780.8371241839159 17265.19789772637
781.7969642568951 17244.077566501266
782.7565633282757 17412.016204833588
783.7159214707099 17204.557004245646
784.6750387568281 17359.617925318118
785.6339152592227 17241.17653682343
786.5925510504512 17151.73131809134
787.5509462030477 17194.05578967042
788.5091007895098 17194.22218188148
789.4670148823006 17147.66484162781
790.4246885538596 17260.91753274254
791.3821218765861 17243.383528698025
792.3393149228505 17180.183505090845
793.2962677649975 17229.372979892953
794.2529804753303 17290.67418721384
795.20945312613 17280.7748419166
796.1656857896378 17335.471147587334
797.1216785380675 17335.16980215029
798.0774314435985 17568.837721385025
799.0329445783846 17582.066863800224
799.9882180145414 17688.02791403568
800.9432518241574 17684.269461935306
801.89804607929 17880.725667602903
802.852600851962 17921.2614630783
803.8069162141637 18109.00136257804
804.760992237856 18174.18704332019
805.714828994971 18237.363790055268
806.6684265574077 18313.272059511328
807.6217849970271 18274.586353219634
808.574904385674 18297.53824476154
809.527784795142 18323.667429449073
810.4804262972102 18231.202637291928
811.4328289636178 18064.14303519727
812.3849928660748 17950.356024296336
813.3369180762638 17859.053254865506
814.2886046658241 17698.07412560797
815.2400527063783 17564.221578037817
816.1912622695108 17539.39951524876
817.1422334267718 17312.16913702262
818.0929662496856 17235.463950148285
819.0434608097457 17111.452075139765
819.9937171784059 16957.45913262614
820.9437354271013 16869.609574922797
821.8935156272255 16717.3346815873
822.8430578501484 16604.325302033176
823.7923621672016 16516.38791075913
824.7414286496896 16602.980858706498
825.6902573688876 16505.23973378895
826.6388483960363 16531.02714957111
827.5872018023492 16393.94706925118
828.5353176590033 16409.698271333233
829.4831960371503 16384.720636345162
830.4308370079016 16373.19863734682
831.3782406423525 16311.431239044943
832.3254070115545 16257.113975403478
833.2723361865319 16191.98100988138
834.2190282382799 16183.016738889952
835.1654832377644 16328.309482587249
836.1117012559116 16230.673317010773
837.0576823636256 16174.301614611197
838.003426631778 16118.769462391216
838.9489341312074 16114.817320098198
839.8942049327197 16125.542394599164
840.8392391070975 16147.975263098022
841.7840367250865 16144.747436808582
842.7285978573982 16123.094838836856
843.672922574724 16169.44121260048
844.6170109477152 16079.586481120346
845.560863046996 16088.84330572536
846.5044789431595 15994.882695703001
847.4478587067697 16019.245723690407
848.3910024083561 16101.451529151052
849.333910118421 16026.439039802435
850.2765819074339 15928.177863675335
851.2190178458332 16098.359442522089
852.161218004032 15952.60070847862
853.1031824524016 16000.343430276556
854.0449112612987 15949.840761457413
854.9864045010327 16019.627410097746
855.9276622418947 15898.66037310361
856.8686845541379 15999.106614185279
857.8094715079915 15912.081799970032
858.7500231736467 15991.929346019413
859.690339621271 15975.89632369155
860.6304209209939 16057.646166093513
861.5702671429244 15897.870814752965
862.5098783571284 15961.5399750065
863.4492546336569 16033.699948821386
864.3883960425155 16084.895372378227
865.3273026536863 16016.276459987766
866.2659745371238 16092.364668841188
867.2044117627465 16169.446712113806
868.1426144004472 16147.036821699337
869.0805825200823 16225.069946116486
870.0183161914847 16306.509835010791
870.9558154844526 16313.215229201893
871.8930804687552 16295.080274081603
872.8301112141307 16266.828323362613
873.7669077902865 16513.61151332614
874.7034702669062 16503.853567610167
875.6397987136315 16597.075288993747
876.5758932000863 16634.65238132354
877.5117537958522 16788.195045129363
878.4473805704911 16682.78455340011
879.3827735935283 16728.535715649676
880.3179329344603 16695.5902378994
881.2528586627541 16831.6189246443
882.1875508478479 16985.544113463657
883.1220095591489 16666.108342425352
884.0562348660296 16798.29537254754
884.9902268378391 16829.47452641317
885.9239855438955 16702.451143642844
886.8575110534839 16691.955620623587
887.7908034358588 16455.33217164937
888.7238627602474 16604.054296658236
889.6566890958475 16471.495727994665
890.5892825118208 16365.655635430123
891.5216430773125 16356.067682069217
892.4537708614189 16243.340506597058
893.3856659332196 16040.523069863228
894.3173283617652 16086.11444813242
895.2487582160684 15933.041143515109
896.179955565116 15941.63219501272
897.110920477864 15852.72269767804
898.0416530232451 15879.769614587154
898.9721532701478 15736.776298595945
899.9024212874428 15623.47775269837
900.8324571439662 15605.217994491166
901.7622609085302 15591.379870373941
902.6918326499072 15543.601395549305
903.6211724368477 15555.551959054812
904.5502803380696 15486.187240987105
905.4791564222614 15542.668183124242
906.4078007580792 15485.335082465837
907.3362134141571 15494.180014966327
908.2643944590909 15386.519715408955
909.1923439614493 15381.548345064806
910.1200619897754 15345.872063932908
911.0475486125779 15439.860405514788
911.9748038983344 15323.339758589962
912.9018279155007 15209.041265533446
913.8286207324982 15239.589175471288
914.7551824177117 15309.425604774933
915.6815130395116 15271.346029320523
916.6076126662283 15246.444524330818
917.533481366163 15268.203902624935
918.4591192075914 15165.043526416415
919.3845262587565 15196.991477849098
920.3097025878706 15091.730703148558
921.2346482631237 15090.648782164339
922.1593633526682 15199.233674959649
923.0838479246304 15106.931498346734
924.0081020471061 15128.07373663133
924.9321257881656 15026.23406111106
925.8559192158464 15098.620090716355
926.7794823981512 14892.851076883759
927.7028154030686 15006.100260998375
928.6259182985414 14911.60121613804
929.5487911524906 15068.677165611192
930.4714340328119 14936.218681914183
931.3938470073608 14889.882713468027
932.3160301439748 14875.145722212543
933.2379835104548 14972.019359859163
934.1597071745709 14946.186660977819
935.0812012040769 14970.211334618729
936.002465666681 14923.308913574467
936.9235006300696 14999.108028445331
937.8443061619055 14928.054779725842
938.7648823298077 14718.637203862503
939.6852292013809 14733.80454734694
940.6053468441951 14838.665051121785
941.5252353257874 14716.073968583325
942.4448947136698 14795.515945916011
943.364325075323 14747.379952470015
944.2835264782043 14812.499783381194
945.2024989897309 14731.484602942608
946.1212426773054 14763.900220658723
947.0397576082851 14666.99075048072
947.9580438500125 14825.138376628815
948.8761014697939 14647.985172313507
949.7939305349064 14864.27568572434
950.7115311125999 14594.371512247886
951.6289032700952 14735.053643652058
952.5460470745875 14679.684412485807
953.4629625932339 14723.12559430943
954.3796498931715 14693.31917413267
955.2961090415029 14696.81494297944
956.2123401053068 14670.804097561897
957.1283431516276 14679.538504210734
958.0441182474842 14600.929610415542
958.9596654598663 14710.465951907221
959.8749848557309 14637.31447562879
960.7900765020167 14653.885032764903
961.7049404656209 14569.25636027129
962.6195768134185 14742.19407795124
963.5339856122537 14602.199161962106
964.4481669289453 14563.690709165996
965.3621208302793 14356.410496549192
966.2758473830145 14554.252446517345
967.1893466538822 14508.47745037427
968.1026187095813 14569.000897667316
969.0156636167867 14381.846409421705
969.9284814421426 14705.171483566057
970.8410722522622 14425.6215052799
971.753436113735 14482.742402530075
972.6655730931161 14416.510873013283
973.5774832569368 14449.342028710224
974.4891666716958 14552.910553307625
975.4006234038698 14464.191442353145
976.3118535198955 14453.840580919956
977.2228570861935 14534.61697772484
978.1336341691494 14423.627176828104
979.0441848351202 14424.734469891584
979.9545091504333 14432.180392995691
980.864607181391 14506.10089046527
981.7744789942699 14479.356815712035
982.6841246553086 14635.146690456215
983.5935442307236 14433.749486574601
984.5027377867027 14489.153166414686
985.4117053894024 14504.172752338573
986.3204471049557 14481.563908378539
987.2289629994648 14466.80338294031
988.1372531390007 14557.878157774507
989.0453175896091 14520.00164389981
989.9531564173067 14609.120741463397
990.860769688079 14490.232582019788
991.7681574678918 14646.614822475301
992.6753198226706 14597.51435319653
993.582256818323 14704.127050205361
994.4889685207218 14708.383446653932
995.3954549957143 14749.735084023345
996.301716309119 14698.836717967115
997.2077525267232 14784.993367486033
998.1135637142943 14722.36756210656
999.0191499375615 14797.0271860652
999.924511262232 14711.28723699709
1000.8296477539861 14849.142365996528
1001.7345594784656 14784.756692599014
1002.6392465012996 14816.696790907668
1003.5437088880753 14773.748427540555
1004.4479467043584 14966.563259903942
1005.3519600156869 14837.96083424917
1006.2557488875718 14882.108262388336
1007.1593133854858 14785.904251200784
1008.0626535748888 14897.901072208604
1008.9657695212009 14731.68894839165
1009.8686612898182 14855.357123591395
1010.7713289461135 14801.12130273462
1011.6737725554212 14790.634911144327
1012.5759921830577 14737.119241407961
1013.4779878943027 14829.906257588786
1014.379759754418 14622.888745895809
1015.2813078286254 14675.87609095171
1016.18263218213 14474.087427443916
1017.0837328801026 14622.682011850407
1017.9846099876886 14510.250535102849
1018.8852635700023 14358.742725735461
1019.7856936921362 14477.607740295618
1020.6859004191447 14462.20385134955
1021.5858838160675 14358.631370781939
1022.4856439479063 14303.278399972027
1023.3851808796389 14320.625287566912
1024.2844946762143 14310.661142693334
1025.183585402554 14226.157135755004
1026.082453123554 14094.27124270319
1026.9810979040776 14083.168361091122
1027.8795198089647 14120.135317925426
1028.777718903024 14071.7486085866
1029.6756952510368 14065.271642488911
1030.5734489177648 13978.393970042012
1031.4709799679313 14081.804000778857
1032.3682884662358 14034.925144756102
1033.2653744773506 13996.121548812938
1034.1622380659192 13868.025342285482
1035.058879296559 14185.329826966563
1035.9552982338591 13993.778161769525
1036.8514949423825 14184.41293596892
1037.7474694866614 14076.404154490174
1038.6432219312028 14183.04699168386
1039.5387523404825 14353.580695987908
1040.4340607789582 14264.491091039494
1041.3291473110476 14359.859495099265
1042.2240120011465 14463.35280377526
1043.1186549136273 14632.299682126762
1044.0130761128294 14797.153445925369
1044.9072756630649 14798.257650501464
1045.8012536286205 14899.575471693188
1046.6950100737577 14898.022876885298
1047.588545062701 15172.49983335394
1048.481858659663 15129.75897956442
1049.3749509288118 15377.632232260725
1050.2678219343034 15267.304581995413
1051.1604717402515 15284.909207259576
1052.0529004107575 15265.47422123131
1052.9451080098825 15400.33701035461
1053.8370946016694 15194.078152175667
1054.7288602501267 15158.209055781781
1055.6204050192446 15218.795353389283
1056.511728972977 15135.758432794295
1057.402832175254 14901.668819643755
1058.2937146899785 14882.790196002965
1059.1843765810263 14802.174477670915
1060.0748179122456 14835.847320189865
1060.9650387474576 14666.722891931227
1061.855039150456 14648.237854026349
1062.7448191850071 14540.612747382393
1063.6343789148505 14504.631194718062
1064.5237184037014 14483.734903354092
1065.412837715241 14386.761014399734
1066.3017369131267 14258.26805792616
1067.190416060992 14328.308597783154
1068.0788752224398 14051.871313488391
1068.9671144610438 14123.131432294223
1069.8551338403558 13939.876443594412
1070.7429334239023 13991.674958857835
1071.6305132751695 13872.544816070444
1072.517873457633 14044.675169028682
1073.4050140347335 13848.594553757284
1074.2919350698776 13877.915752166187
1075.1786366264623 13878.338684351178
1076.0651187678395 13804.228734104176
1076.95138155735 13704.737934832878
1077.8374250582929 13724.89765313693
1078.7232493339507 13577.656391213814
1079.608854447577 13498.052240351302
1080.4942404623907 13460.908174345148
1081.3794074415982 13524.90068567247
1082.2643554483657 13547.703479359907
1083.149084545841 13424.518716516419
1084.033594797138 13256.482790515209
1084.9178862653516 13438.397484529221
1085.8019590135427 13337.144331708123
1086.6858131047484 13339.428984513372
1087.5694486019802 13282.322599296403
1088.4528655682225 13258.619694825296
1089.3360640664287 13195.341376022607
1090.2190441595321 13172.999746845433
1091.1018059104317 13277.00133237527
1091.98434938201 13329.102876461775
1092.866674637111 13194.708726298912
1093.748781738559 13178.05430435852
1094.6306707491512 13040.365214915037
1095.5123417316554 13086.068434239434
1096.3937947488157 13021.255834926003
1097.2750298633455 13120.84537096095
1098.156047137938 13076.426858071409
1099.0368466352556 13154.801466558341
1099.9174284179317 13127.905973209501
1100.7977925485757 13042.799617489789
1101.6779390897755 12953.405958951445
1102.5578681040806 12983.594015266714
1103.4375796540226 12970.328994900783
1104.3170738021054 12911.784448165581
1105.1963506108077 13107.535190408817
1106.0754101425773 13065.015678416374
1106.9542524598382 13017.473961612686
1107.8328776249855 12990.153272559157
1108.7112857003904 13019.657537821045
1109.5894767483987 13057.278841329151
1110.4674508313292 12994.617299365997
1111.3452080114657 13061.524089176672
1112.2227483510815 13033.872262309153
1113.1000719124077 13252.888041042683
1113.9771787576592 13154.35320673851
1114.854068949022 13350.183971061739
1115.7307425486542 13239.640251300336
1116.6071996186893 13433.282744551714
1117.483440221229 13559.731401809506
1118.3594644183577 13696.264159076207
1119.235272272128 13723.327972652474
1120.1108638445658 13785.103061522303
1120.9862391976712 13947.012269062394
1121.8613983934229 14150.59476001701
1122.7363414937627 14074.553047065623
1123.6110685606182 14384.983890741274
1124.485579655884 14362.9198104799
1125.359874841426 14591.000234963296
1126.2339541790916 14608.505957554804
1127.1078177306936 14612.12910477019
1127.9814655580267 14619.057705046469
1128.854897722851 14715.51373860178
1129.7281142869106 14799.137134798157
1130.6011153119125 14866.222829037735
1131.473900859548 14827.498554458653
1132.3464709914697 14884.695136539833
1133.2188257693178 14748.741406724826
1134.0909652546961 14728.140406518802
1134.96288950919 14584.101175275418
1135.8345985943506 14612.656876402712
1136.7060925717087 14405.621046946259
1137.57737150277 14362.712771909937
1138.4484354490069 14200.39217794569
1139.3192844718778 14228.8124326645
1140.1899186327992 13954.123387365169
1141.060337993178 13993.54705415831
1141.930542614382 13784.185460068325
1142.8005325577597 13712.889209117919
1143.670307884635 13475.339960375399
1144.5398686563003 13518.193488657078
1145.409214934025 13283.839283465679
1146.2783467790541 13157.413750082036
1147.1472642526023 13110.158894602113
1148.0159674158622 13067.633810584244
1148.8844563300026 12778.075384798778
1149.7527310561618 12867.258722139703
1150.6207916554504 12737.012315560723
1151.4886381889592 12731.888010744404
1152.3562707177498 12544.522524496588
1153.2236893028585 12639.389765753675
1154.090894005296 12538.929717814819
1154.9578848860474 12614.050294774033
1155.8246620060709 12467.166278378336
1156.6912254262988 12368.8623854222
1157.5575752076438 12349.545995107579
1158.42371141098 12290.42153930488
1159.2896340971656 12294.998179072445
1160.1553433270346 12357.642263250464
1161.0208391613887 12288.832427833504
1161.8861216610057 12256.527374144851
1162.75119088664 12187.37222131141
1163.6160468990201 12137.234991574654
1164.4806897588442 12003.821582710338
1165.3451195267917 12158.32349417666
1166.2093362635114 12114.996784742825
1167.0733400296285 12235.047752652494
1167.9371308857444 12040.382821367415
1168.8007088924278 12125.5592172096
1169.6640741102328 12032.210971398288
1170.5272265996773 12058.625042649513
1171.390166421259 11907.48209867559
1172.252893635452 12065.866164764735
1173.1154083026995 12107.67277641132
1173.977710483421 12037.697425063037
1174.8398002380145 11969.615562444727
1175.7016776268483 12037.17787391476
1176.563342710264 11905.466635232788
1177.4247955485826 11982.421191073394
1178.2860362020947 11911.582076234943
1179.147064731069 11943.281958270014
1180.0078811957483 12023.666973009738
1180.8684856563486 11968.706389780025
1181.7288781730604 12098.327841332355
1182.589058806052 12185.591629919825
1183.4490276154593 12097.924956173618
1184.3087846614017 12065.670948502684
1185.1683300039676 12113.464233286482
1186.027663703222 12221.327231905274
1186.8867858192025 12259.577769022766
1187.7456964119228 12384.298924482564
1188.6043955413716 12396.305303734878
1189.4628832675116 12404.864012224622
1190.3211596502842 12391.544559203905
1191.179224749596 12417.491684035953
1192.0370786253388 12395.91908751371
1192.8947213373758 12551.936303658626
1193.7521529455407 12686.28016144141
1194.6093735096438 12636.642414754264
1195.466383089477 12719.300506693962
1196.3231817447977 12672.52039169471
1197.1797695353398 12689.719164257102
1198.0361465208189 12694.828043178739
1198.8923127609214 12557.125445647023
1199.7482683153048 12748.154693558936
1200.6040132436028 12744.632503149673
1201.459547605431 12679.804716750066
1202.3148714603722 12520.693378562679
1203.1699848679855 12651.346635397045
1204.0248878878065 12700.911281313562
1204.8795805793507 12537.666277862476
1205.7340630020935 12552.125982373058
1206.5883352155033 12646.193526850957
1207.4423972790064 12531.270758125424
1208.2962492520237 12484.404829203626
1209.1498911939307 12430.029953021647
1210.0033231640937 12473.687617443722
1210.8565452218427 12136.599605520374
1211.7095574264913 12173.995916660628
1212.5623598373222 12089.098841990923
1213.4149525135963 12026.70800790998
1214.2673355145507 11995.310046087108
1215.1195088993936 11877.012820602231
1215.9714727273113 11978.057852193162
1216.8232270574663 12041.75034289411
1217.6747719489904 11757.442658588161
1218.5261074609934 11826.47685475204
1219.3772336525653 11795.922466770988
1220.2281505827668 11855.681429608943
1221.0788583106296 11787.226185853639
1221.9293568951707 11733.285597012733
1222.7796463953746 11692.013384204589
1223.629726870202 11658.452858337776
1224.4795983785934 11567.499922977873
1225.3292609794553 11541.243503146248
1226.1787147316809 11629.650352288989
1227.0279596941327 11597.549213977372
1227.8769959256424 11514.275573349218
1228.7258234850306 11619.049436773817
1229.5744424310833 11551.940028020636
1230.422852822563 11520.094784371035
1231.2710547182105 11475.495873577223
1232.119048176739 11517.816014067354
1232.9668332568417 11456.727530096654
1233.8144100171812 11451.210899769447
1234.6617785163999 11649.06299586862
1235.508938813111 11535.19339075478
1236.3558909659114 11438.816703537914
1237.2026350333617 11656.686506833013
1238.049171074008 11577.808573608108
1238.8954991463652 11532.609265720492
1239.741619308932 11473.429097714014
1240.587531620169 12000.772103345374
1241.4332361385277 11664.248421672297
1242.2787329224248 11633.490128300731
1243.1240220302534 11354.396569284552
1243.9691035203869 11554.705975195999
1244.813977451171 11559.379704620087
1245.6586438809263 11481.349724282365
1246.5031028679496 11418.210639529963
1247.3473544705157 11524.488923908018
1248.1913987468706 11586.042714218176
1249.0352357552383 11456.66014365819
1249.8788655538228 11392.892784163749
1250.7222882007918 11541.752722966055
1251.565503754302 11457.046979440584
1252.4085122724755 11436.206020270149
1253.2513138134182 11453.472231199588
1254.0939084352049 11408.828973682219
1254.9362961958905 11348.672550269639
1255.7784771535007 11437.013243791494
1256.6204513660432 11272.332612413926
1257.4622188915 11405.679023561723
1258.3037797878242 11400.545971012461
1259.1451341129468 11404.191248136924
1259.9862819247755 11282.8567213459
1260.8272232811978 11349.567571937401
1261.6679582400666 11176.226544921003
1262.5084868592203 11302.69549331797
1263.34880919647 11252.249382765356
1264.1889253095997 11236.549451894793
1265.0288352563712 11110.2411478236
1265.8685390945266 11150.298333629522
1266.7080368817751 11198.228306300634
1267.5473286758115 11079.646453523997
1268.386414534294 11097.932684925889
1269.2252945148703 11171.128071069668
1270.0639686751547 11108.879023416886
1270.9024370727402 11152.619742106664
1271.7406997651997 11147.013010324912
1272.5787568100714 11062.978370664005
1273.4166082648808 11007.15868317369
1274.2542541871244 11066.511230583068
1275.091694634275 10952.114888524067
1275.9289296637817 10893.722092752447
1276.7659593330663 11046.91861284829
1277.6027836995308 11025.700084262626
1278.4394028205552 10969.486290003842
1279.2758167534867 10947.12435468421
1280.112025555658 10914.26995843316
1280.9480292843746 10936.51823169605
1281.7838279969128 10875.157500540323
1282.6194217505326 10937.640749866136
1283.4548106024686 10930.163829466323
1284.289994609926 10986.054762407643
1285.1249738300921 11055.341002058867
1285.959748320127 10907.769248825676
1286.7943181371702 10805.529755949
1287.6286833383328 11015.688825892064
1288.4628439807038 10951.266367009446
1289.2968001213521 10905.31796584353
1290.1305518173194 10885.651766173276
1290.9640991256183 10983.105708308245
1291.7974421032523 10897.791453663307
1292.630580807183 10924.285260030923
1293.463515294361 10915.740623210817
1294.29624562171 11048.510615647323
1295.12877184613 10997.05464176759
1295.961094024493 10829.470248896163
1296.79321221365 10929.846184275259
1297.6251264704333 11061.564391712387
1298.4568368516466 10917.784769217276
1299.2883434140658 10936.300295171503
1300.1196462144526 10881.981750099967
1300.9507453095375 11018.26093227685
1301.7816407560313 11073.89061467478
1302.6123326106172 10999.386137767124
1303.4428209299622 11033.292859582278
1304.2731057707024 11092.662785292992
1305.1031871894502 11099.20621542117
1305.933065242798 11047.233254155144
1306.7627399873181 11115.908403381618
1307.5922114795467 11144.001944838315
1308.4214797760123 11043.765171339224
1309.2505449332057 11137.950116300217
1310.0794070076026 11098.133120652605
1310.9080660556538 11102.101890520715
1311.736522133786 11135.386188367145
1312.5647752983987 11097.060013260856
1313.3928256058734 11124.343263088342
1314.2206731125661 11154.55379191083
1315.048317874809 11289.00315919506
1315.8757599489109 11130.318123200495
1316.7029993911547 11234.241235623393
1317.5300362578055 11399.487393303098
1318.356870605101 11160.966824138794
1319.183502489257 11164.431995576284
1320.0099319664623 11197.465714420563
1320.836159092889 11263.789462831246
1321.66218392468 11205.875967546486
1322.4880065179532 11234.965627193169
1323.3136269288134 11213.64160485663
1324.1390452133292 11318.056390815462
1324.9642614275563 11318.030087023933
1325.7892756275214 11211.078613962298
1326.6140878692295 11219.458040576723
1327.4386982086617 11305.577597337968
1328.2631067017755 11261.750229865767
1329.0873134045069 11276.584047692715
1329.911318372764 11188.56543473426
1330.735121662441 11105.981028749418
1331.558723329399 11171.771993782677
1332.3821234294774 11236.704466889845
1333.2053220185007 11034.362956134664
1334.0283191522612 11156.8738649391
1334.851114886529 11002.399509589432
1335.6737092770582 10989.118439911274
1336.4961023795695 11023.840889783329
1337.3182942497697 11058.931982384702
1338.1402849433325 11086.656852887321
1338.962074515921 10918.026147213866
1339.7836630231632 10808.148334561416
1340.6050505206676 11086.151340205457
1341.426237064028 10921.819174386977
1342.2472227088037 10923.603265697962
1343.0680075105338 10813.732381007332
1343.888591524741 11001.665784993558
1344.7089748069138 10826.389116008195
1345.5291574125276 10900.575491632082
1346.3491393970307 10782.461123326564
1347.168920815846 11059.055340086397
1347.9885017243778 10799.483599543768
1348.8078821780036 10885.028380205851
1349.6270622320844 10734.39804748006
1350.4460419419447 10856.68098509831
1351.2648213629054 10775.369835464944
1352.0834005502438 10840.388107357583
1352.90177955923 10744.42129996228
1353.7199584451064 10842.671875136612
1354.5379372630887 10798.702435392619
1355.355716068374 10891.447720206725
1356.1732949161305 10772.27222290924
1356.9906738615155 10845.456692695
1357.8078529596478 10798.583747807188
1358.6248322656375 10838.032114757192
1359.441611834567 10727.656627183937
1360.2581917214866 10896.95868872831
1361.0745719814367 10728.856466384635
1361.890752669433 10783.211032836323
1362.7067338404577 10806.917737219246
1363.5225155494845 10760.216909295788
1364.3380978514506 10749.014823202742
1365.1534808012839 10654.453307757027
1365.9686644538815 10664.731983969117
1366.783648864117 10870.180790146482
1367.5984340868417 10767.175878145654
1368.413020176893 10761.274180316173
1369.2274071890715 10512.36473058944
1370.0415951781652 10556.436997475867
1370.8555841989346 10694.191176772521
1371.6693743061223 10719.981805390651
1372.48296555444 10572.994841457377
1373.2963579985844 10730.21164669782
1374.1095516932255 10612.57198657448
1374.9225466930166 10621.663663794967
1375.7353430525782 10660.193575804717
1376.5479408265164 10576.122074242609
1377.36034006941 10479.236469528645
1378.1725408358216 10592.854256820063
1378.9845431802805 10483.688164493225
1379.796347157304 10661.68539921247
1380.6079528213813 10617.196070940798
1381.4193602269788 10557.097690022118
1382.230569428546 10618.019645796192
1383.0415804805016 10432.33009522108
1383.852393437246 10396.615562737554
1384.6630083531563 10597.105510959589
1385.4734252825892 10423.849695198707
1386.2836442798798 10694.271828182911
1387.0936653993322 10469.487034992726
1387.9034886952395 10526.763142506354
1388.713114221864 10419.650025587503
1389.5225420334482 10403.814784003544
1390.331772184214 10463.750153116465
1391.1408047283585 10419.531409057652
1391.9496397200564 10495.91232122726
1392.758277213461 10458.892709668055
1393.5667172627054 10424.36261700888
1394.3749599218918 10403.106363696867
1395.1830052451114 10290.875071823037
1395.9908532864265 10442.160919495056
1396.7985040998774 10336.637492355552
1397.6059577394808 10390.041170229948
1398.4132142592352 10316.411429465166
1399.2202737131156 10274.890024168028
1400.027136155073 10222.418390834275
1400.8338016390353 10162.452336863844
1401.6402702189134 10231.800362104412
1402.446541948586 10127.113298983388
1403.2526168819204 10233.458927750075
1404.058495072757 10141.576088724036
1404.8641765749107 10090.461645758576
1405.6696614421799 10195.860576244902
1406.4749497283356 10164.68827781775
1407.280041487129 10025.803889316547
1408.084936772295 9865.0320294247
1408.8896356375335 10022.314299312482
1409.6941381365323 9969.11041348318
1410.498444322955 9988.641278119347
1411.3025542504402 9843.948370192575
1412.106467972606 9982.274834469568
1412.9101855430508 9712.583529327054
1413.7137070153458 9679.432885683575
1414.5170324430437 9722.164734556887
1415.320161879672 9737.853576406647
1416.1230953787435 9694.85114646234
1416.925832993742 9618.295415637393
1417.7283747781275 9546.705289832411
1418.5307207853439 9589.129605015027
1419.3328710688093 9496.533183233052
1420.134825681922 9461.514681971234
1420.9365846780584 9559.260865398075
1421.7381481105713 9543.983399381865
1422.539516032788 9355.463729670346
1423.3406884980232 9461.630732559894
1424.1416655595604 9460.945402245665
1424.942447270665 9295.468222210988
1425.7430336845828 9352.657245096201
1426.5434248545298 9473.999802848053
1427.3436208337116 9325.982459104298
1428.143621675301 9254.137103741075
1428.9434274324558 9332.15965802047
1429.7430381583108 9326.231264241509
1430.5424539059713 9297.906940396704
1431.3416747285337 9387.63953916661
1432.1407006790632 9286.946914012595
1432.9395318106053 9206.872207749011
1433.7381681761835 9300.158548335003
1434.5366098288014 9266.42988879641
1435.3348568214424 9087.151863508032
1436.1329092070573 9312.638529814609
1436.9307670385879 9266.130939860868
1437.7284303689503 9359.396370449354
1438.5258992510335 9287.357986637737
1439.3231737377118 9372.711882533593
1440.1202538818306 9198.340850856977
1440.9171397362225 9148.564660716318
1441.7138313536925 9108.09102677225
1442.5103287870243 9053.463412502404
1443.3066320889775 9083.19938898856
1444.1027413122956 9108.280670083122
1444.8986565096966 9103.390511884438
1445.694377733882 9137.031110719729
1446.4899050375207 9035.57488014179
1447.2852384732687 9039.572859217024
1448.0803780937622 9006.925993021245
1448.8753239516063 9127.838088393653
1449.6700760993954 8853.966314458787
1450.464634589689 9157.944255920915
1451.2589994750397 9041.608583396668
1452.0531708079689 8926.66854446864
1452.8471486409799 8855.864075962414
1453.6409330265524 8971.921853901002
1454.4345240171442 8893.911268104153
1455.2279216651987 8890.34165558954
1456.0211260231263 8865.405147491825
1456.8141371433194 9114.418296822674
1457.6069550781594 8917.724073805603
1458.3995798799897 8811.902917444213
1459.1920116011424 8830.18393432776
1459.98425029393 8783.438405812089
1460.7762960106338 8877.748328964954
1461.5681488035225 8794.072169593177
1462.3598087248392 8792.712648379515
1463.1512758268036 8773.12942180369
1463.942550161617 8691.029150133008
1464.7336317814625 8812.30950397099
1465.524520738496 8835.125009255138
1466.3152170848552 8764.544721852983
1467.1057208726506 8699.674979636287
1467.8960321539817 8712.348068215257
1468.6861509809169 8631.107247513068
1469.4760774055085 8634.835202285825
1470.265811479785 8623.453694015909
1471.055353255755 8581.183760954544
1471.844702785409 8667.627466724396
1472.6338601207044 8721.293783274607
1473.4228253135934 8552.27868106008
1474.2115984159936 8516.269476780046
1475.0001794798063 8573.627875043223
1475.7885685569145 8488.787880623755
1476.576765699172 8493.66715389869
1477.3647709584238 8427.483529160661
1478.1525843864802 8471.844001715759
1478.9402060351367 8525.361468678779
1479.7276359561693 8540.114940906047
1480.514874201328 8497.1555898068
1481.3019208223468 8488.569840173337
1482.0887758709323 8449.02942829296
1482.8754393987747 8528.754658909993
1483.6619114575406 8485.641038769032
1484.4481920988783 8553.917011788693
1485.2342813744108 8534.901783304875
1486.0201793357446 8470.511106181555
1486.8058860344572 8531.374016132148
1487.591401522117 8461.464660497319
1488.3767258502594 8406.478750424958
1489.1618590704056 8444.163996280886
1489.9468012340494 8493.25239950729
1490.7315523926754 8435.288252268238
1491.5161125977356 8601.488346270375
1492.3004819006637 8409.844190821996
1493.084660352877 8541.31778565065
1493.8686480057622 8498.72121161186
1494.6524449106964 8446.422269441813
1495.4360511190262 8565.900129813195
1496.219466682087 8547.559231168476
1497.0026916511779 8560.846796587533
1497.7857260775945 8582.515249688182
1498.5685700125996 8570.085251821105
1499.3512235074395 8476.860523299185
1500.133686613337 8551.897636842175
1500.9159593814966 8588.83075790125
1501.698041863101 8539.102837777686
1502.4799341093094 8514.31345192817
1503.2616361712662 8395.033149442112
1504.043148100087 8418.558851561855
1504.8244699468742 8385.473194473789
1505.6056017626997 8525.664841601698
1506.3865435986281 8355.010315982267
1507.1672955056893 8476.380037096198
1507.9478575348967 8390.446238718703
1508.7282297372512 8437.93502475805
1509.5084121637192 8419.28416624515
1510.2884048652577 8351.041300299179
1511.0682078927948 8326.131885724632
1511.8478212972423 8380.981892751182
1512.6272451294917 8382.11386721579
1513.4064794404076 8384.176531971147
1514.1855242808433 8294.982443292838
1514.9643797016215 8450.889028314952
1515.743045753552 8353.177832499012
1516.5215224874191 8310.321535628507
1517.2998099539836 8273.293085223242
1518.077908203999 8292.24817669315
1518.8558172881785 8368.534334872493
1519.633537257234 8396.113527704327
1520.4110681618404 8377.829715301214
1521.1884100526604 8272.530409887344
1521.9655629803365 8291.304987251864
1522.7425269954856 8403.705965869547
1523.5193021487103 8440.26814980343
1524.2958884905856 8378.09393208406
1525.0722860716687 8462.796861175253
1525.848494942502 8392.25180325135
1526.624515153595 8423.989693059342
1527.4003467554485 8410.219752519672
1528.175989798534 8347.186794634781
1528.9514443333064 8403.971429755451
1529.726710410203 8450.87729814978
1530.5017880796331 8433.700275527819
1531.276677391992 8317.69394687733
1532.0513783976457 8440.733071868317
1532.825891146953 8455.684989004949
1533.6002156902414 8469.862664108192
1534.3743520778207 8363.469159467842
1535.1483003599806 8315.113504767958
1535.9220605869923 8309.606148216446
1536.6956328091019 8514.947373758088
1537.4690170765407 8375.370931887937
1538.242213439511 8399.151987339124
1539.015221948208 8423.971663488857
1539.78804265279 8545.304124921906
1540.560675603405 8394.591206093472
1541.3331208501804 8359.657773676228
1542.1053784432224 8501.625814590743
1542.8774484326168 8543.045639315202
1543.649330868422 8359.77225179916
1544.4210258006842 8420.666084494307
1545.1925332794308 8444.400763087064
1545.9638533546604 8488.012320869728
1546.7349860763552 8486.67513465981
1547.5059314944829 8651.78661596771
1548.27668965898 8442.556536697964
1549.0472606197673 8539.083936950326
1549.817644426752 8451.368732790574
1550.5878411298072 8551.807325452502
1551.3578507787988 8523.98303643243
1552.1276734235635 8509.229152887492
1552.8973091139233 8545.43611602295
1553.6667578996767 8736.178890130028
1554.436019830604 8478.60608268784
1555.20509495646 8443.95049738382
1555.9739833269869 8485.341093905681
1556.7426849919011 8590.795627916255
1557.511200000903 8458.355584162007
1558.2795284036674 8576.677899126784
1559.0476702498509 8493.231689675422
1559.8156255890954 8435.658645430227
1560.5833944710157 8537.60412677009
1561.3509769452048 8576.744448065028
1562.1183730612447 8535.965051738358
1562.8855828686865 8462.794936849026
1563.6526064170703 8552.536593265742
1564.4194437559127 8563.29888284268
1565.1860949347047 8571.801489389685
1565.9525600029283 8572.03353028186
1566.7188390100328 8563.742354791266
1567.4849320054564 8416.755073167591
1568.250839038612 8402.238620367523
1569.0165601588997 8426.919906434461
1569.7820954156887 8382.425420697758
1570.5474448583373 8295.000892906026
1571.31260853618 8392.9187567019
1572.0775864985299 8362.240957482498
1572.8423787946813 8491.282782216265
1573.6069854739108 8557.79581081006
1574.371406585471 8394.891333445554
1575.1356421785986 8501.64078440967
1575.899692302506 8318.804246253105
1576.6635570063845 8413.9526238285
1577.4272363394157 8373.424585153913
1578.190730350747 8416.9512001775
1578.9540390895163 8210.70016163693
1579.7171626048384 8220.798630488585
1580.480100945806 8244.574723758258
1581.2428541614918 8199.02882992724
1582.0054223009538 8171.19178263251
1582.767805413223 8340.742450099706
1583.5300035473156 8318.8258203447
1584.292016752228 8397.521830926495
1585.0538450769309 8264.543749171313
1585.8154885703807 8293.598746761967
1586.5769472815136 8342.339363657686
1587.3382212592405 8401.776252841211
1588.099310552463 8363.094474905845
1588.8602152100484 8226.728795289906
1589.6209352808564 8347.662222236138
1590.3814708137234 8152.098015194312
1591.14182185746 8575.009054218255
1591.9019884608679 8257.533969522905
1592.6619706727215 8185.813990786354
1593.4217685417734 8328.045264352178
1594.1813821167616 8349.057534104473
1594.9408114464022 8217.634241849733
1595.7000565793933 8364.5595715267
1596.459117564409 8283.830664237299
1597.2179944501113 8180.616903569071
1597.9766872851324 8076.869328818917
1598.735196118092 8216.186940821168
1599.4935209975883 8315.757477768795
1600.2516619721973 8193.923305149778
1601.0096190904787 8250.697805502015
1601.7673924009723 8189.573130726561
1602.524981952196 8284.459793470207
1603.2823877926476 8018.766255746817
1604.0396099708087 8141.593767350797
1604.7966485351371 8126.271613127737
1605.5535035340745 8221.835034706779
1606.3101750160404 8184.4628986484995
1607.0666630294363 8130.812611995486
1607.822967622642 8210.442262684368
1608.5790888440224 8096.808680252469
1609.3350267419137 8314.277134019694
1610.0907813646445 8130.852736553534
1610.8463527605145 8110.698137875593
1611.601740977805 8114.905331143744
1612.356946064785 8083.3702380592495
1613.1119680696902 8014.2760806852575
1613.8668070407512 8152.905607043707
1614.6214630261748 7964.699755000949
1615.375936074137 8127.708092538215
1616.1302262328118 8035.197469104847
1616.8843335503425 8127.555795176702
1617.638258074854 7961.995078359684
1618.391999854457 7994.166260072746
1619.1455589372363 8138.562164634641
1619.8989353712623 8186.7363900801865
1620.65212920458 8017.385169610689
1621.4051404852235 7942.366158637397
1622.1579692611976 7972.675899021937
1622.9106155804966 7983.926416815133
1623.663079491087 7935.40137232289
1624.4153610409248 7957.414370398484
1625.1674602779385 7985.380350065529
1625.9193772500403 7817.693409509337
1626.6711120051277 7856.655990773562
1627.4226645910676 7960.375272537667
1628.174035055721 7887.104774085422
1628.9252234469168 7830.594957854162
1629.676229812474 7964.197295392254
1630.4270542001905 7968.960695786816
1631.1776966578382 7927.851846392735
1631.9281572331747 7990.4534870884645
1632.678435973945 7981.60228771244
1633.4285329278573 8120.066393515917
1634.1784481426203 7960.04380995438
1634.9281816659113 7945.591066881623
1635.677733545388 8031.289231383897
1636.4271038286934 7896.008859054642
1637.176292563452 7918.444036267038
1637.9252997972635 7995.2855396884
1638.674125577716 8023.493756506061
1639.4227699523672 8039.307628394568
1640.171232968767 7880.108597580843
1640.9195146744423 7926.580218114289
1641.6676151168977 8075.35748044325
1642.4155343436178 8067.929149028323
1643.1632724020765 7945.554919854927
1643.9108293397167 8032.815067738086
1644.658205203974 8005.5999317439855
1645.4054000422566 8136.746554615184
1646.1524139019566 7997.671551815659
1646.8992468304423 7973.2449493481545
1647.6458988750728 7990.080650788683
1648.3923700831765 8151.413510607999
1649.1386605020743 8008.00352883614
1649.8847701790564 8105.623544601993
1650.6306991614038 8072.70271774418
1651.3764474963682 7946.346701749598
1652.1220152311944 7970.7544768144535
1652.867402413096 8144.071790862336
1653.6126090892776 7924.588593656791
1654.3576353069184 8063.317796840327
1655.1024811131829 7973.777093910767
1655.8471465552066 7902.439916401467
1656.5916316801213 8031.295762141062
1657.3359365350298 7879.160447743743
1658.0800611670165 7871.0994672220095
1658.824005623148 7797.1494453101695
1659.5677699504722 7761.211532062131
1660.3113541960192 7835.485714894588
1661.054758406799 7817.326383798385
1661.7979826297997 7726.536883587582
1662.5410269119966 7643.673793955951
1663.283891300338 7593.330427208939
1664.0265758417645 7685.690513381358
1664.7690805831826 7688.8048230942995
1665.5114055714948 7397.996823248577
1666.2535508535748 7665.969649333709
1666.9955164762814 7387.625681356736
1667.7373024864555 7513.794764161122
1668.478908930916 7399.686455437222
1669.220335856462 7300.498286886938
1669.9615833098778 7400.500675472761
1670.7026513379296 7459.924823512658
1671.44353998736 7334.479864648983
1672.1842493048916 7294.607362342416
1672.9247793372379 7285.101036873442
1673.6651301310812 7258.413404203112
1674.4053017330934 7319.417668670806
1675.1452941899242 7064.5100780730445
1675.885107548207 7025.337558615991
1676.6247418545518 7102.064053311432
1677.3641971555535 6970.858468527229
1678.1034734977893 7135.949559430747
1678.8425709278108 6960.45801045227
1679.5814894921605 7034.231644348921
1680.320229237359 6909.904892660522
1681.0587902098978 6943.358434556792
1681.7971724562685 6857.8202229893095
1682.5353760229264 6831.8188247776225
1683.2734009563173 6798.540429928359
1684.0112473028657 6667.118146795512
1684.7489151089794 6798.422484752778
1685.4864044210462 6883.8502827910925
1686.2237152854377 6713.8240990041695
1686.960847748498 6622.7523143667595
1687.6978018565642 6720.134854933613
1688.434577655944 6607.863475997908
1689.1711751929379 6494.179130176713
1689.9075945138156 6718.694128938179
1690.6438356648396 6692.1785641918395
1691.3798986922448 6343.25592333496
1692.1157836422499 6516.798395750926
1692.851490561059 6499.323252314081
1693.587019494853 6344.985981652668
1694.3223704897991 6392.02533633681
1695.0575435920364 6256.96142449009
1695.792538847696 6453.6853640887675
1696.527356302886 6241.29427870925
1697.2619960036936 6398.474973160092
1697.9964579961907 6071.049436504271
1698.730742326432 6079.264111038754
1699.4648490404488 6258.1851139034825
1700.1987781842563 6270.431418418553
1700.9325298038548 6125.9943322650015
1701.6661039452174 6326.1632759166105
1702.3995006543082 6254.554759792936
1703.1327199770658 6234.503411622456
1703.865761959416 6130.96243711758
1704.598626647261 5909.924397708155
1705.3313140864866 6034.01873193936
1706.0638243229587 5838.124572685737
1706.7961574025303 6029.0440310961485
1707.528313371029 5900.733371142393
1708.260292274268 5826.620350783134
1708.9920941580403 5938.99955955156
1709.7237190681226 5818.882249385854
1710.4551670502697 5785.528876757731
1711.18643815022 5870.323915986386
1711.9175324136959 5943.255107291569
1712.6484498863938 5823.660317434367
1713.379190614005 5759.123924117597
1714.109754642188 5934.673854048875
1714.8401420165883 5804.142676967664
1715.570352782839 6058.937947858466
1716.3003869865497 5796.465682340594
1717.0302446733076 5807.73713889047
1717.7599258886876 5777.203912585521
1718.4894306782444 5749.4788430042645
1719.2187590875183 5692.460696625492
1719.9479111620203 5869.977279449881
1720.6768869472544 5726.829674457732
1721.4056864887025 5784.152143647495
1722.1343098318284 5568.079237396874
1722.8627570220742 5829.449290070487
1723.591028104871 5631.021501919105
1724.3191231256242 5562.063164131394
1725.0470421297232 5562.6036456873835
1725.7747851625427 5598.861953190093
1726.5023522694337 5727.32057064444
1727.2297434957363 5561.721682466304
1727.9569588867635 5250.96701679922
1728.6839984878152 5508.460513639349
1729.4108623441734 5460.1470752379755
1730.1375505011038 5578.398702833519
1730.8640630038426 5560.794775893642
1731.5903998976264 5503.87707338072
1732.316561227657 5507.363989761131
1733.0425470391274 5555.350086870886
1733.7683573772065 5532.412921460307
1734.4939922870508 5564.162396759521
1735.2194518137949 5577.568074925382
1735.9447360025606 5501.605693537649
1736.669844898439 5521.117303470949
1737.3947785465189 5403.658635404372
1738.1195369918605 5385.5483449831245
1738.8441202795093 5405.180517020291
1739.5685284544943 5532.267432887396
1740.292761561821 5553.562510183396
1741.0168196464838 5468.163272118067
1741.7407027534518 5554.202291786495
1742.464410927687 5352.06420893654
1743.187944214118 5380.775991864114
1743.9113026576688 5484.288432864893
1744.634486303241 5419.263841162392
1745.3574951957125 5530.619275361123
1746.0803293799509 5399.307072748381
1746.8029889008048 5469.894237689125
1747.5254738031017 5339.546679386949
1748.2477841316504 5217.520804186252
1748.969919931249 5384.268606328804
1749.6918812466665 5241.927021244985
1750.4136681226646 5371.09437176274
1751.1352806039777 5438.587651732763
1751.856718735331 5276.72147296235
1752.5779825614281 5262.2825978088085
1753.2990721269507 5381.744202712818
1754.0199874765676 5218.940636294171
1754.7407286549314 5146.86401503626
1755.4612957066693 5237.4136938803795
1756.1816886763954 5347.204173064305
1756.9019076087097 5285.4071558998085
1757.6219525481865 5355.867163454505
1758.3418235393856 5186.278148860449
1759.061520626854 5179.698853545048
1759.7810438551096 5342.791054603756
1760.5003932686614 5314.623597135412
1761.2195689119999 5163.321558096259
1761.938570829594 5296.879715871351
1762.657399065898 5160.04722397435
1763.376053665348 5221.363661264231
1764.0945346723602 5102.377792747727
1764.812842131334 5208.598606271286
1765.5309760866512 5186.220455407529
1766.2489365826787 5192.4793783472305
1766.9667236637597 5155.615777379124
1767.684337374223 5181.285915316634
1768.401777758383 4988.266547753614
1769.1190448605284 5132.903862729159
1769.836138724937 5109.289540543328
1770.5530593958665 5105.563822360638
1771.2698069175603 5274.1201280802225
1771.9863813342326 5283.19697778321
1772.702782690094 5036.620881328312
1773.4190110293293 5244.7940675781465
1774.1350663961111 5111.702352213728
1774.8509488345844 5092.819698074336
1775.5666583888924 5249.9847068178515
1776.2821951031437 5104.266960083338
1776.9975590214362 5233.2966423406015
1777.7127501878585 5160.92805027628
1778.4277686464684 5218.362467077244
1779.1426144413108 5108.703165466406
1779.8572876164162 5086.611263758017
1780.571788215797 4950.8005781349475
1781.2861162834415 5054.435133506143
1782.0002718633277 5035.3351250598935
1782.7142549994132 5051.602429236553
1783.4280657356376 5055.629574589165
1784.141704115922 5037.572865321171
1784.855170184177 4914.980721443438
1785.5684639842839 4932.453331809943
1786.2815855601148 4873.745428907089
1786.9945349555237 5015.57796325795
1787.707312214343 5036.341625390303
1788.4199173803918 5206.587341574968
1789.132350497468 4837.377884214437
1789.8446116093583 4959.112622163015
1790.556700759822 5000.178556531419
1791.2686179926077 5070.016733372157
1791.9803633514493 4797.96367008706
1792.6919368800554 4983.565948332616
1793.4033386221236 5101.714696592646
1794.1145686213295 5126.004792083635
1794.8256269213307 5083.98315468128
1795.536513565774 4986.120528097474
1796.247228598284 4946.247236060574
1796.9577720624693 4962.875099826458
1797.6681440019165 5151.998641775598
1798.3783444602013 4963.868934728964
1799.0883734808776 5026.233522412774
1799.7982311074884 4907.9944125645225
1800.5079173835475 5065.49571837146
1801.2174323525633 4915.939525792046
1801.9267760580187 5020.240450020324
1802.635948543386 4821.155739221106
1803.3449498521113 4938.362200309721
1804.0537800276325 4909.1532163274005
1804.7624391133668 5032.235104836256
1805.47092715271 4780.222779335687
1806.1792441890484 4772.561098628049
1806.8873902657433 5024.675581828369
1807.5953654261448 4932.7456788025065
1808.3031697135812 4803.37162602549
1809.0108031713662 4943.157495434632
1809.71826584279 4863.399433452626
1810.425557771141 4853.281414059454
1811.1326789996747 4899.53235865074
1811.839629571632 4703.035424741168
1812.5464095302468 4880.4843258126975
1813.2530189187182 4808.451475069202
1813.959457780249 4792.970750761436
1814.6657261580076 4955.259754739458
1815.371824095153 4908.890262847348
1816.0777516348262 4799.076058613811
1816.78350882015 4578.941343204147
1817.4890956942272 4751.9020128430975
1818.1945123001533 4886.696454260426
1818.8997586809928 4809.870855482485
1819.6048348798067 4716.216728569907
1820.3097409396287 4852.90774340719
1821.0144769034796 4987.051427752974
1821.7190428143622 4768.631564203286
1822.423438715261 4848.595808000252
1823.1276646491478 4764.592058752665
1823.8317206589727 4809.659431668151
1824.5356067876692 4746.182843961853
1825.2393230781581 4779.203922847182
1825.942869573335 4705.419605560548
1826.646246316086 4843.474266339246
1827.3494533492758 4708.321618041822
1828.052490715756 4743.940364609185
1828.7553584583547 4807.456650650865
1829.458056619891 4850.9486670827355
1830.1605852431585 4701.012794647938
1830.8629443709433 4744.88118522713
1831.5651340460063 4707.288373000498
1832.2671543110919 4600.8001223457395
1832.9690052089318 4814.982448461998
1833.6706867822395 4751.276110808631
1834.3721990737104 4752.96802891546
1835.0735421260233 4758.664084877803
1835.774715981841 4712.7355860042635
1836.4757206838058 4637.249424729811
1837.1765562745459 4619.641600057448
1837.8772227966747 4653.489012456964
1838.5777202927839 4687.953570730504
1839.2780488054523 4745.041138160515
1839.9782083772352 4756.881489853056
1840.6781990506806 4838.413276038955
1841.378020868313 4678.9627304010255
1842.0776738726418 4771.048181888011
1842.777158106157 4582.8658220654925
1843.4764736113375 4629.037393577188
1844.1756204306403 4737.201730154015
1844.8745986065078 4443.254298034813
1845.5734081813607 4516.206149325119
1846.2720491976124 4583.207872056251
1846.970521697649 4545.066239641381
1847.6688257238511 4726.620824993455
1848.3669613185684 4681.10170128534
1849.0649285241452 4497.502412545414
1849.7627273829057 4765.49382377108
1850.460357937156 4539.844930775993
1851.1578202291857 4521.938926736092
1851.8551143012664 4795.116144941964
1852.5522401956569 4589.626431244343
1853.2491979545957 4718.326224849529
1853.9459876203055 4593.042133150579
1854.6426092349902 4568.386632939451
1855.3390628408451 4533.974925830263
1856.0353484800362 4624.192755114562
1856.7314661947203 4716.56756314394
1857.4274160270397 4501.626494937407
1858.123198019115 4479.251072159947
1858.8188122130487 4516.553160840016
1859.5142586509319 4596.321050135287
1860.209537374838 4553.963480342376
1860.9046484268183 4508.885596463555
1861.599591848917 4614.731878522123
1862.294367683151 4396.638470900471
1862.988975971528 4497.206909136204
1863.6834167560355 4397.76521170571
1864.3776900786452 4584.580464396052
1865.0717959813119 4513.770000521245
1865.7657345059724 4455.993199779347
1866.4595056945564 4623.350092404859
1867.1531095889586 4545.752844667571
1867.846546231076 4404.39686564309
1868.5398156627743 4519.2131197024855
1869.2329179259123 4463.578152606942
1869.9258530623283 4530.50599741352
1870.618621113843 4490.47186796457
1871.3112221222636 4350.187548848031
1872.0036561293764 4431.751032769505
1872.695923176956 4528.279886015169
1873.3880233067594 4575.650643414151
1874.0799565605212 4389.837450221989
1874.7717229799673 4475.14350899378
1875.4633226068036 4464.5673111980295
1876.1547554827175 4587.297082602894
1876.8460216493859 4492.128711638124
1877.5371211484617 4562.95906573795
1878.2280540215852 4640.059943225797
1878.9188203103804 4249.817637082725
1879.6094200564548 4549.926244097789
1880.299853301396 4316.70892453008
1880.9901200867826 4576.399171105653
1881.6802204541673 4550.516281251061
1882.3701544450942 4536.9619769294495
1883.059922101087 4391.714111351523
1883.7495234636517 4506.908413117395
1884.4389585742792 4286.489230034964
1885.1282274744517 4377.578845973961
1885.8173302056166 4650.658580597707
1886.506266809225 4404.831701571083
1887.195037326701 4386.398523859757
1887.8836417994517 4387.6734495379915
1888.5720802688702 4424.816415527482
1889.260352776333 4337.7446816107695
1889.9484593632042 4431.527148388466
1890.63640007082 4284.48320245863
1891.3241749405151 4212.620349958068
1892.0117840135954 4303.173124334383
1892.6992273313572 4340.9013655443205
1893.3865049350788 4179.953567867783
1894.0736168660223 4513.579244139337
1894.7605631654333 4450.426106877769
1895.4473438745408 4356.326250940621
1896.133959034556 4477.400163380358
1896.820408686679 4421.549823319559
1897.506692872088 4259.840969928419
1898.192811631945 4330.9483509867805
1898.8787650073991 4347.043464260171
1899.5645530395832 4498.978617393855
1900.2501757696118 4430.500033610834
1900.9356332385796 4272.561451588368
1901.620925487574 4415.684269071274
1902.3060525576602 4454.146409360293
1902.9910144898859 4304.986043804835
1903.6758113252872 4351.256422857388
1904.3604431048789 4331.363537539704
1905.0449098696663 4500.144643240343
1905.7292116606295 4312.667469359563
1906.4133485187394 4302.827250391081
1907.0973204849488 4069.8279992494063
1907.7811276001976 4276.430792543668
1908.4647699053967 4190.166910140578
1909.1482474414588 3780.7643444699816
1909.8315602492694 4203.826546582429
1910.5147083696957 4241.571366194593
1911.1976918436012 4311.3297480791425
1911.880510711815 4176.699025540291
1912.5631650151681 4298.614733279487
1913.2456547944657 4180.065088120268
1913.927980090495 4242.040646292963
1914.6101409440362 4292.110819940267
1915.2921373958416 4193.606450877325
1915.9739694866603 4237.355399156497
1916.655637257214 4134.178689745544
1917.3371407482136 4253.942440325126
1918.0184800003572 4397.936216111166
1918.6996550543154 4263.9399126292055
1919.3806659507554 4151.833710628397
1920.0615127303208 4155.385907485339
1920.7421954336423 4265.536946207667
1921.4227141013343 4179.5802805668045
1922.103068773993 4235.7092872627645
1922.783259492202 4357.067886568026
1923.4632862965227 4165.0486605126525
1924.1431492275078 4125.741874595626
1924.8228483256917 4189.115805878506
1925.5023836315922 3937.5470766316976
1926.1817551857057 3921.903504806846
1926.8609630285227 4419.228139976343
1927.5400072005123 4277.1437872508195
1928.218887742125 4102.283926496386
1928.8976046938005 4104.385123685254
1929.5761580959588 4346.8043163969905
1930.2545479890086 4156.363963954639
1930.9327744133352 4062.4952190103054
1931.6108374093164 4060.7150942023304
1932.2887370173066 4232.259869224752
1932.9664732776473 3991.0347248405915
1933.6440462306673 4223.07527141497
1934.3214559166754 4198.375662340323
1934.9987023759659 4372.186725007293
1935.675785648813 4038.6007337667565
1936.3527057754836 3957.4691849241935
1937.029462796223 4209.3622671141275
1937.70605675126 4058.0679702132657
1938.3824876808085 4101.547436357737
1939.058755625072 4168.068322198697
1939.7348606242267 4021.2492415535016
1940.4108027184448 4138.513940008713
1941.0865819478713 4167.174128077082
1941.7621983526478 4068.6378832208406
1942.4376519728921 4080.9355342373374
1943.1129428487038 4077.84894958519
1943.7880710201734 4103.459802516656
1944.4630365273733 4200.117644120898
1945.1378394103576 4053.4693569260307
1945.8124797091714 4253.9926576949965
1946.4869574638324 3793.568493969735
1947.161272714353 3885.916718250098
1947.8354255007234 4034.3480680027133
1948.5094158629272 3991.6077908236775
1949.1832438409183 4167.387631347773
1949.8569094746435 4335.725219013528
1950.530412804037 4190.356952923632
1951.2037538690092 4321.161974007113
1951.8769327094578 3969.633955561471
1952.5499493652678 3987.5980361028514
1953.222803876306 3936.3812577516337
1953.895496282421 4135.015294052474
1954.5680266234522 3945.1403335763403
1955.2403949392155 4159.270644747976
1955.9126012695142 4058.5725116097797
1956.5846456541403 3984.0586980772787
1957.2565281328643 3927.0755128085184
1957.9282487454457 4086.077302242319
1958.5998075316202 4018.623222742738
1959.27120453112 4032.4547671002647
1959.9424397836501 4008.241439713416
1960.613513328908 4080.0937196255786
1961.2844252065697 4085.328395353338
1961.9551754563017 3918.663709885984
1962.6257641177453 3917.6032398696434
1963.29619123054 4045.1300747876667
1963.966456834296 4047.6909387331157
1964.6365609686181 3993.996693475971
1965.306503673086 4091.7610027413275
1965.976284987275 3968.809585713666
1966.645904950734 4126.581458734158
1967.315363603002 3919.433549426034
1967.9846609836077 4116.471847094799
1968.6537971320486 3890.991725117031
1969.3227720878222 4008.804380978964
1969.9915858904042 3982.410851544838
1970.660238579252 4017.337722871739
1971.3287301938108 3870.662235108886
1971.997060773514 3938.8275276201866
1972.665230357772 3887.811518870265
1973.3332389859843 3860.9394626155263
1974.0010866975335 3746.1647520149454
1974.6687735317864 3795.0508725915206
1975.3362995280932 3994.92656134896
1976.003664725793 3865.082074417665
1976.6708691642052 3840.1674153035465
1977.3379128826364 3904.463709500686
1978.004795920373 3911.833317675852
1978.6715183166925 4166.118721838075
1979.3380801108524 3813.6308838744394
1980.0044813420973 3823.891119087903
1980.6707220496555 3748.550874542878
1981.3368022727373 3995.998798584716
1982.0027220505417 3855.318943725381
1982.66848142225 3535.609854234607
1983.3340804270283 3712.2531285609484
1983.999519104027 3697.9190475247983
1984.6647974923835 3747.825293114708
1985.329915631215 3863.0826737969437
1985.99487355963 3843.718202581753
1986.6596713167146 3806.0335418850664
1987.3243089415428 3752.0003925330175
1987.9887864731754 3859.074689274101
1988.6531039506553 3873.4488433444303
1989.3172614130071 4030.2593660051643
1989.9812588992481 3823.534657861315
1990.645096448372 3643.8263537396756
1991.3087740993633 3847.6183826034526
1991.9722918911848 3630.2197320235828
1992.635649862792 3754.327321891241
1993.2988480531185 4007.7021512153487
1993.9618865010852 3948.648069705096
1994.6247652455968 3880.492639051464
1995.287484325545 3751.278379841407
1995.9500437798033 3787.156620653863
1996.6124436472292 3724.2386683184036
1997.2746839666706 3709.295784217492
1997.936764776954 3811.0184704565845
1998.598686116895 3716.212295563479
1999.2604480252903 3910.378107192505
1999.9220505409212 3842.9544882118
2000.5834937025593 3652.818312457462
2001.2447775489582 3751.2323710570245
2001.9059021188514 3720.7721627363303
2002.5668674509616 3500.221614316871
2003.2276735839987 3606.105378981714
2003.8883205566508 3782.1356864370014
2004.5488084075987 3643.1425844926134
2005.2091371755014 3865.8767007160786
2005.8693068990033 3721.7669921834045
2006.5293176167397 3902.8825759017736
2007.1891693673224 3630.6785075625244
2007.848862189354 3519.1025426447436
2008.5083961214223 3518.734663027055
2009.1677712020955 3700.587914244034
2009.8269874699254 3620.7640103291174
2010.4860449634598 3972.52159947187
2011.1449437212177 3726.2861054565683
2011.8036837817108 3828.6972529901745
2012.4622651834325 3503.4618801848837
2013.1206879648653 3838.9201746089384
2013.7789521644736 3751.3097301466996
2014.4370578207036 3432.1161839515094
2015.0950049719922 3752.2157615962215
2015.7527936567585 3812.669842427874
2016.4104239134067 3615.4475216335595
2017.067895780323 3819.4794797588097
2017.725209295886 3490.112361236803
2018.3823644984514 3598.879849831177
2019.0393614263648 3704.690506731061
2019.6962001179545 3532.0773816366172
2020.3528806115355 3636.9618030138895
2021.0094029454067 3568.313702087477
2021.6657671578487 3596.722786227553
2022.321973287133 3742.9743984666834
2022.9780213715148 3623.130462088547
2023.6339114492293 3732.67999619588
2024.2896435585026 3683.7891239742958
2024.9452177375442 3520.8636651940806
2025.600634024544 3686.313518604763
2026.2558924576842 3638.616040282316
2026.9109930751292 3885.0003119486655
2027.565935915025 3596.9913468021296
2028.2207210155066 3745.3343055689993
2028.8753484146964 3687.526612859395
2029.529818150695 3495.4348271520003
2030.1841302615903 3584.9847494864975
2030.8382847854573 3546.702999519416
2031.4922817603601 3604.1928034912116
2032.1461212243357 3604.4543559388935
2032.7998032154192 3511.050375734862
2033.4533277716218 3647.5209474241556
2034.1066949309443 3457.5323535012017
2034.7599047313688 3664.9705315765414
2035.4129572108704 3716.251537503979
2036.0658524074006 3591.2999336745474
2036.7185903589016 3659.0761163671827
2037.3711711032956 3769.0432685535334
2038.023594678496 3594.6420864901547
2038.675861122394 3409.2207248583863
2039.3279704728757 3728.2557782293625
2039.9799227678031 3443.578654120779
2040.6317180450278 3701.866846823383
2041.2833563423865 3496.745822813003
2041.9348376977014 3473.4170721408577
2042.5861621487784 3679.2183075056173
2043.2373297334088 3404.875827868822
2043.8883404893695 3691.970241556496
2044.5391944544208 3468.8877088848167
2045.1898916663158 3555.8034384524994
2045.8404321627804 3704.0560259556755
2046.4908159815368 3387.5874261092904
2047.1410431602853 3416.5778040411287
2047.7911137367173 3657.213851318765
2048.441027748504 3701.6654799070593
2049.090785233302 3475.634259364445
2049.7403862287592 3520.963122166875
2050.389830772503 3707.8564631611953
2051.0391189021466 3463.606651607743
2051.688250655294 3552.0127281464884
2052.337226069527 3450.664557712744
2052.986045182417 3541.9303713821473
2053.634708031521 3411.7177460486664
2054.283214654375 3640.019413245748
2054.931565088511 3137.706904401181
2055.579759371436 3592.165902486532
2056.2277975406523 3462.891010264052
2056.8756796336384 3575.1506044997577
2057.5234056878617 3128.0170763492592
2058.1709757407752 3514.4513535100896
2058.8183898298194 3386.479200904312
2059.465647992416 3386.074921556271
2060.1127502659747 3499.849266670854
2060.759696687888 3509.277458960616
2061.4064872955405 3525.540953404651
2062.053122126292 3728.9704540184093
2062.699601217497 3115.2928515100507
2063.345924606485 3348.6314007648325
2063.992092330587 3357.6981142874865
2064.638104427102 3498.558248328388
2065.283960933324 3402.340867845544
2065.92966188653 3308.3628806524393
2066.5752073239855 3352.957066205496
2067.2205972829397 3345.3215525959095
2067.86583180062 3350.2118258246555
2068.5109109142522 3481.438889762968
2069.15583466104 3635.588555063639
2069.8006030781708 3283.105828752027
2070.445216202821 3127.389709663892
2071.089674072153 3535.741059321152
2071.7339767233116 3466.642025812225
2072.3781241934303 3575.490381361821
2073.0221165196253 3562.379388794781
2073.6659537390024 3600.7719302091086
2074.3096358886505 3450.7988904883387
2074.953163005637 3500.880599309924
2075.596535127028 3171.2763492882214
2076.2397522898664 3307.251856689082
2076.882814531182 3334.5853948463387
2077.5257218879924 3575.1577117634615
2078.1684743973 3505.166141617215
2078.8110720960885 3386.8280649762446
2079.453515021336 3396.8938317940615
2080.095803209997 3357.4661541525174
2080.7379366990135 3450.098071239099
2081.37991552532 3641.6619869861725
2082.0217397258275 3376.481799002039
2082.6634093374414 3230.827421433719
2083.3049243970418 3268.332034500417
2083.9462849415067 3415.6181991040744
2084.587491007689 3364.9486933777616
2085.2285426324324 3372.189417314382
2085.869439852564 3424.6986340792
2086.510182704902 3168.621867621602
2087.1507712262483 3220.003945308986
2087.791205453381 3317.7522256303687
2088.4314854230743 3242.8326303125336
2089.0716111720867 3463.644261433494
2089.7115827371617 3078.6218608423787
2090.351400155023 3478.806806666994
2090.991063462385 3378.4435494471336
2091.6305726959527 3190.7424298262304
2092.2699278924047 3349.051106894008
2092.9091290884153 3416.79467089115
2093.548176320641 3174.006282160341
2094.187069625721 3504.9571428160643
2094.8258090402887 3377.6715247332877
2095.464394600951 3379.0418433519058
2096.102826344313 3347.5670375855816
2096.741104306955 3457.0087454744403
2097.379228525453 3222.1294499061287
2098.017199036358 3131.528397282167
2098.6550158762147 3337.704966586756
2099.2926790815527 3296.5185394971195
2099.9301886888825 3323.696297133972
2100.5675447347076 3335.5146565012597
2101.2047472555114 3418.35797269487
2101.841796287761 3040.437735282695
2102.47869186792 3334.310135661713
2103.1154340324265 3139.6014279968426
2103.752022817709 3077.6384443030247
2104.388458260184 3242.870273620051
2105.024740396251 3270.297804402557
2105.660869262292 3369.395500141744
2106.296844894685 3302.7928576722234
2106.93266732978 3435.76762439132
2107.5683366039284 3369.2526623308236
2108.2038527534532 3270.300636071404
2108.8392158146726 3413.5483656017777
2109.4744258238843 3303.723165305758
2110.1094828173755 2948.264253688256
2110.744386831422 3224.303265575093
2111.3791379022787 3180.296957282622
2112.01373606619 3162.774370348229
2112.648181359389 3315.6995488406938
2113.28247381809 3345.452703183895
2113.916613478492 3211.4836815347944
2114.550600376786 3381.7001970068313
2115.1844345491445 3005.2519718681096
2115.818116031729 3276.2341598349008
2116.451644860679 3177.3614603998644
2117.085021072133 3091.5264716023394
2117.718244702204 2871.13805297682
2118.3513157869984 3176.6052264582295
2118.984234362604 3196.4160394496184
2119.617000465092 3293.2070161775764
2120.249614130529 3364.364436032626
2120.8820753949585 3414.8095764162267
2121.5143842944162 3106.135616231588
2122.14654086492 3186.2321340701033
2122.7785451424734 3308.5639677769987
2123.4103971630702 2993.655113378777
2124.042096962681 3226.3577930779597
2124.6736445772767 3176.3265585658023
2125.305040042802 2922.58054418836
2125.936283395191 3145.411735503721
2126.567374670365 3061.630373768455
2127.198313904233 3021.982890720763
2127.8291011326855 3310.7426672052725
2128.4597363916037 3155.0089107908416
2129.0902197168507 3132.9034003311385
2129.720551144279 3127.888857878422
2130.3507307097225 3178.6623811634977
2130.980758449008 3269.163813623138
2131.6106343979427 3126.4751394438817
2132.2403585923203 3250.393150204096
2132.8699310679276 3155.929079394774
2133.499351860526 3192.4154172314065
2134.1286210058715 3122.76380333508
2134.7577385397053 2879.405363731793
2135.3867044977487 3366.216656438125
2136.0155189157176 3271.960425605307
2136.644181829308 2929.869722947077
2137.2726932742025 2960.885301656917
2137.901053286074 3182.7299000343755
2138.5292619005777 3092.543288228872
2139.1573191533535 2978.426005595123
2139.7852250800315 3168.4610874671534
2140.4129797162295 2880.656403732008
2141.0405830975433 3072.3193146182366
2141.6680352595613 3333.7322509836886
2142.2953362378576 3039.079489925123
2142.9224860679915 2847.4802626335
2143.549484785508 3060.1909676018813
2144.1763324259373 3145.4477356858074
2144.803029024799 3092.6711570757698
2145.429574617594 2683.287775961652
2146.0559692398165 3199.545515317616
2146.682212926942 2998.7090716190514
2147.308305714432 3060.4511687223276
2147.9342476377333 3139.8960377628814
2148.5600387322847 3056.4705885029966
2149.185679033506 3079.965870216119
2149.8111685768017 3053.9879151726764
2150.4365073975678 2941.5396429758976
2151.061695531187 3145.7303929182967
2151.686733013021 3197.302020115399
2152.311619878423 3077.832169240647
2152.9363561627342 2960.7154847635547
2153.560941901278 2976.5094987265597
2154.1853771293663 2912.5532950352704
2154.809661882293 3045.809682285338
2155.433796195348 3424.184420735757
2156.0577801037944 2877.280360819688
2156.681613642895 2922.2615928704736
2157.3052968478896 2460.3396906340695
2157.928829754006 2954.0381908214304
2158.552212396462 3144.436288002117
2159.1754448104566 2834.2725255130777
2159.7985270311783 2932.526689840451
2160.4214590938027 2721.7498263294474
2161.0442410334927 2934.1845599420226
2161.6668728853874 2895.3623007449632
2162.289354684628 3027.2326844402614
2162.911686466332 2983.421086720011
2163.533868265602 3063.7963953142034
2164.1559001175337 3021.0692993077737
2164.7777820572046 2966.4668371708367
2165.399514119681 2961.0069555365144
2166.021096340013 2861.963572836284
2166.6425287532384 3073.577411796435
2167.263811394385 2975.9988706415274
2167.8849442984574 3002.2331338994345
2168.505927500455 2812.3790755889354
2169.126761035366 2937.021355738901
2169.7474449381552 2972.06582426059
2170.367979243778 2712.940706449803
2170.9883639871823 2872.616560687182
2171.608599203293 2759.781793150059
2172.2286849270276 3015.872011599263
2172.8486211932886 2910.664971025498
2173.4684080369625 3143.6997767099165
2174.0880454929265 2758.4725928625758
2174.7075335960417 2777.757758528466
2175.3268723811543 3061.609678910487
2175.9460618831 2861.5431950771167
2176.565102136701 2829.427011555742
2177.1839931767627 3033.622924388907
2177.802735038078 2694.65230298289
2178.421327755432 2885.934318146089
2179.0397713635866 2739.090924136101
2179.658065897298 3057.567673293073
2180.276211391305 2651.0742655490926
2180.8942078803357 3023.452737223167
2181.5120553991 2915.717796847644
2182.129753982299 2782.193367393476
2182.7473036646206 2935.6568547526067
2183.3647044807367 2909.4548063269626
2183.9819564653044 2666.672143780658
2184.599059652968 3148.1768041489076
2185.216014078367 2758.2050578361004
2185.832819776113 2614.3518497310424
2186.4494767808137 3063.553031911277
2187.065985127063 2836.747040532999
2187.682344849436 2962.8080498812424
2188.298555982501 3010.1947606147837
2188.9146185608097 2819.971881624295
2189.530532618901 3220.202178776405
2190.1462981912937 2870.737920386315
2190.761915312507 2816.0117393221435
2191.377384017036 2674.1634966981155
2191.9927043393654 2932.8876093474314
2192.6078763139667 2635.6004369561997
2193.2228999753006 2899.0740170222025
2193.837775357808 2903.3955661807026
2194.452502495922 2785.9392052834155
2195.0670814240602 2992.8777774183022
2195.6815121766285 2643.5021253141877
2196.2957947880186 2941.267809105243
2196.9099292926057 2760.129995175368
2197.523915724758 2773.972206415624
2198.137754118825 2808.5847753536464
2198.7514445091456 3044.6235109857266
2199.3649869300443 2785.922702166628
2199.9783814158327 2964.6951069444594
2200.5916280008096 2936.5043355178586
2201.2047267192593 3149.2985741729817
2201.8176776054515 2759.4364706440283
2202.430480693649 2483.8637306091314
2203.0431360180955 2881.9130632693473
2203.6556436130195 2760.4145523854095
2204.268003512645 2499.2826696033217
2204.8802157511727 2932.7325612273316
2205.492280362796 3166.2358383130872
2206.1041973816937 2797.0846854875927
2206.715966842032 2882.5139234465955
2207.3275887779655 2581.9226285709146
2207.93906322363 2849.654260493703
2208.550390213153 2571.50222731584
2209.1615697806465 2764.322400133367
2209.7726019602105 2722.981659865455
2210.3834867859277 2889.981383616798
2210.9942242918787 2768.747873127761
2211.6048145121167 2861.8445070637185
2212.2152574806914 3031.2083130931805
2212.825553231638 2889.7080169402184
2213.435701798975 2796.3591496162344
2214.045703216707 2851.8285686566223
2214.655557518832 2539.4887907342427
2215.2652647393297 2747.323070084961
2215.874824912169 2484.7920692531934
2216.4842380713 2743.415843528609
2217.09350425067 2644.3817364309207
2217.7026234842033 2916.948079238018
2218.311595805819 2825.063884409232
2218.9204212494133 2487.2087061372295
2219.52909984888 2734.4915146343405
2220.137631638092 2611.4741288851624
2220.7460166509154 2768.8023328175523
2221.354254921198 2628.0676351032735
2221.9623464827764 2848.6671295727983
2222.5702913694713 2801.0293651303314
2223.178089615096 2865.463192833277
2223.7857412534486 2728.5308909307296
2224.39324631831 2386.7713018605336
2225.000604843457 2688.8236411760518
2225.607816862641 2642.0701811999807
2226.214882409611 2467.9937394064973
2226.8218015180973 2832.573202874505
2227.4285742218217 2691.258586460695
2228.0352005544864 2604.589543372551
2228.6416805497847 2569.8235736905044
2229.248014241399 2634.91443152236
2229.8542016629945 2595.7213735876276
2230.460242848223 2589.888088340721
2231.0661378307304 2827.9034443257024
2231.671886644139 2537.7802975162413
2232.277489322065 2529.199613827103
2232.8829458981127 2446.499891068895
2233.48825640587 2718.653784215092
2234.0934208789095 2737.896883833274
2234.6984393507955 2797.996744534141
2235.3033118550793 2655.6387509996875
2235.9080384252975 2742.1849597495966
2236.5126190949723 2369.117130310875
2237.1170538976166 2574.08811283825
2237.721342866729 2213.5681185143094
2238.32548603579 2669.029999841906
2238.9294834382763 2728.304445223552
2239.533335107646 2512.0782113377927
2240.1370410773434 2289.616278949293
2240.740601380803 2311.958224128193
2241.3440160514474 2639.9497783097686
2241.9472851226783 2740.6057362687106
2242.550408627896 2716.388333272116
2243.1533866004793 2830.623042867941
2243.756219073799 2675.337682509059
2244.3589060812064 2519.815668564256
2244.961447656049 2396.5481576265947
2245.5638438316564 2861.389959592569
2246.166094641343 2671.7638520420032
2246.7682001184166 2382.6197831782765
2247.3701602961664 2433.894023776687
2247.971975207871 2712.300885629262
2248.5736448867974 2554.5230738108885
2249.175169366197 2475.132890608472
2249.7765486793123 2673.709272555012
2250.3777828593684 2638.6365106986937
2250.9788719395783 2662.9440058519626
2251.579815953146 2497.740481515049
2252.1806149332606 2254.6080272172376
2252.781268913097 2362.7515755068257
2253.381777925817 2471.0030299987643
2253.9821420045737 2629.4743231954294
2254.5823611825035 2575.7686073988907
2255.1824354927303 2740.591566299862
2255.782364968365 2842.8025597764404
2256.38214964251 2456.586856707751
2256.9817895482483 2528.9132663320624
2257.5812847186553 2601.4355880278454
2258.180635186791 2562.981148075822
2258.779840985704 2604.2456700253033
2259.37890214843 2614.0433226735745
2259.97781870799 2620.886881585268
2260.5765906973957 2722.7504104899954
2261.175218149645 2873.074851820091
2261.773701097718 2644.509186713584
2262.3720395745895 2243.1461698074213
2262.970233613216 2010.480182319853
2263.568283246548 2160.43120018979
2264.1661885075137 2310.5220542052202
2264.763949429038 2533.5401745678537
2265.3615660440246 2538.3311926498677
2265.959038385374 2438.3703472516127
2266.5563664859637 2731.8813561801185
2267.153550378669 2496.7659478910837
2267.7505900963424 2354.274973556397
2268.3474856718312 2452.389268603279
2268.9442371379664 2686.5625160259415
2269.5408445275643 2631.3282304068475
2270.1373078734377 2330.0463285920737
2270.7336272083758 2262.1659752718965
2271.32980256516 2471.2822892488184
2271.925833976562 2547.414740676083
2272.5217214753357 2562.267051886728
2273.117465094223 2477.2626944133526
2273.7130648659586 2392.0606255948624
2274.308520823257 2648.322750664397
2274.903832998827 2905.077441559096
2275.4990014253563 2842.356180859955
2276.094026135528 2779.461333312481
2276.6889071620117 2511.666238643068
2277.2836445374614 2243.278178035513
2277.878238294519 2415.3279898543287
2278.472688465812 2322.7269398266517
2279.066995083962 2516.613104578329
2279.6611581815705 2583.589490696869
2280.255177791232 2419.4572269880077
2280.8490539455233 2654.3681027707644
2281.442786677013 2547.8127821240128
2282.0363760182554 2540.8286115120836
2282.6298220017943 2513.7575136422092
2283.223124660155 2552.2756682456793
2283.816284025859 2433.357137145086
2284.4093001314086 2376.780178197629
2285.002173009292 2362.366181274064
2285.5949026919952 2584.449407015306
2286.1874892119777 2518.43216460693
2286.7799326016993 2632.707568908351
2287.3722328936 2215.8429633220626
2287.964390120109 2287.241459857368
2288.556404313642 2561.7372759283908
2289.1482755066027 2563.9105336804396
2289.7400037313873 2641.683844437694
2290.3315890203703 2440.134774994984
2290.9230314059205 2356.7676829308484
2291.5143309203904 2273.3387148521147
2292.1054875961236 2281.6568940752195
2292.6965014654506 2592.6507125086528
2293.287372560684 2511.2041502464435
2293.878100914131 2715.4099458868586
2294.468686558086 2365.6246255616384
2295.059129524827 2406.408725399315
2295.649429846617 2676.561222639493
2296.239587555716 2293.6565571802075
2296.8296026843636 2420.450714312379
2297.419475264791 2587.2910745360086
2298.0092053292137 2162.7795089110828
2298.598792909839 2394.9888653080766
2299.1882380388597 2340.794814138954
2299.777540748455 2329.626702485319
2300.3667010707904 2584.45629513106
2300.9557190380256 2446.393672960855
2301.544594682302 2499.0940588097337
2302.1333280357503 2248.268857226978
2302.721919130485 2620.7022872204684
2303.3103679986198 2871.523118019491
2303.898674672242 2386.0055177035483
2304.486839183437 2474.9301013820195
2305.0748615642697 2327.3594249479643
2305.6627418468015 2454.0283756350914
2306.2504800630704 2369.5265247895936
2306.8380762451143 2435.305029582947
2307.425530424949 2501.2495721449905
2308.012842634582 2567.325990256112
2308.6000129060103 2393.363144230587
2309.187041271214 2378.22215261461
2309.773927762164 2592.42333708718
2310.3606724108213 2691.5767710791274
2310.9472752491274 2236.699775412828
2311.5337363090184 2392.909561474755
2312.120055622414 2546.2563071507257
2312.706233221221 2539.616197280555
2313.2922691373424 2136.411323045416
2313.8781634026564 2611.504753430262
2314.463916049037 2548.9747048487015
2315.049527108342 2185.313285403741
2315.6349966124235 2479.3119430720926
2316.2203245931123 2478.8978369802853
2316.8055110822315 2220.9855592149793
2317.3905561115935 2253.2110249368648
2317.9754597129977 2209.4112348823014
2318.560221918229 2566.225482451725
2319.1448427590603 2192.877484176807
2319.729322267256 2222.0321353205663
2320.313660474563 2332.7935383724753
2320.8978574127195 2443.9670355568205
2321.481913113452 2678.8465033785774
2322.0658276084705 2497.3785495633037
2322.6496009294806 2330.4978192648496
2323.233233108165 2348.036728479533
2323.8167241762058 2365.581637862957
2324.4000741652617 2075.2041470443687
2324.983283106987 2158.5374428567047
2325.5663510330232 2431.939773749039
2326.1492779749933 2294.8337012968645
2326.7320639645204 2404.914568875574
2327.3147090332004 2261.8544100765266
2327.897213212629 2677.0764233251884
2328.4795765343843 2420.3753310712045
2329.0617990300307 2224.1107298248976
2329.643880731124 2567.1462274868327
2330.22582166921 2277.792880584463
2330.807621875816 2166.0264433671446
2331.3892813824623 2054.2654996346578
2331.9708002206517 2200.358350354596
2332.5521784218818 2115.90499615902
2333.133416017634 2522.699963349333
2333.7145130393765 2113.5117724287065
2334.295469518571 2459.939893439716
2334.876285486658 2462.625248928078
2335.456960975076 2062.3935297233675
2336.037496015242 2449.3267152841427
2336.6178906385667 2472.6719370412184
2337.198144876451 2393.3199952257523
2337.778258760278 2505.915374160058
2338.3582323214214 2007.385061025582
2338.938065591243 2343.2445238270616
2339.517758601087 2635.0401715496596
2340.0973113822965 2377.6960048313
2340.676723966193 2195.61649485861
2341.255996384094 2360.173477047601
2341.835128667295 2296.8938281627484
2342.4141208470883 2202.336379202882
2342.992972954751 2107.5943071046604
2343.5716850215467 2397.525319224241
2344.1502570787306 1929.5805641029751
2344.7286891575386 2094.665710837032
2345.3069812892045 2188.629872211984
2345.885133504944 2188.6317164105576
2346.4631458359618 2320.805541171053
2347.04101831345 2289.2386359488164
2347.6187509685915 2419.680756310053
2348.196343832553 2400.2101505151504
2348.7737969364935 2349.3015270175756
2349.351110311558 2314.0980057526554
2349.9282839888765 2212.5013257464525
2350.5053179995757 2221.056839009293
2351.0822123747585 1921.6737379594047
2351.658967145526 2207.0195990866905
2352.2355823429643 2331.6706090993816
2352.812057998144 2160.0909452046
2353.3883941421263 1909.2489398561538
2353.9645908059647 2436.9780940280875
2354.540648020693 2252.9803933871344
2355.116565817336 2190.234775153335
2355.6923442269126 2575.478526296737
2356.2679832804224 2341.6478705563877
2356.8434830088518 1960.5018342127537
2357.41884344318 2174.9074007554036
2357.994064614377 2005.2146785740638
