#exp_cfg={"servo_angle": 0.0, "laser_lim": 100.0, "servo_angle_to": 18.0, "laser_wup": 0.0, "bt_dev": "EnSpectr-25AE3", "laser_wdn_max": 0.0, "frames": 10.0, "servo_used": 0, "servo_calib_use": 0, "laser_wdn_min": 0.0, "servo_pix_from": 90.0, "cooler_tout": 300.0, "servo_angle_from": 0.0, "servo_calib": "[-1.9174921013161362e-09, 3.9322238269163779e-05, -0.27385609119055809, 653.59552119713567]", "laser_autoctl": 0, "servo_pix_to": 3682.0, "laser_pw": 100.0, "cooler_on": 0, "laser_volt": 4.0, "cooler_autoctl": 0, "cooler_curr": 70.0, "cooler_startup": 10.0, "laser_fixed_pw": 0, "gain": 1.3, "offset": 2.53059635486, "servo_calib_degree": 3.0, "laser_curr": 55.0, "shutter": 8200.0, "servo_calib_step": 1.0, "laser_fixed_curr": 0, "exp": 2000.0, "ccd_volt": 4.7, "bt_addr": "00:06:66:62:5A:E3", "servo_delay": 500.0, "laser_autooff": 1}
#proc_cfg={"flat_auto_wnd": 200.0, "flat_auto_fr": 200.0, "flat_auto_shift": 5.0, "yconv": 1, "flatten": 1, "flatten_strength": 100.0, "xfrom": 300.0, "auto_max_frame": 2000.0, "auto_signal": 48000.0, "flat_auto_tol": 0.1, "autoclip": 1, "xrel_range": 0.0, "flat_auto_to": 4000.0, "intensity_adj": 1.0, "xrel": 7852.0, "rmhot": 1, "flat_auto_slit": 4.999999999999997, "auto_ini_exp": 300.0, "auto_off": 0, "xto": 2860.0, "flat_auto_ref": "", "flat_auto_rank": 1, "autobackg": 0, "xrel_adj": 0.0, "auto_black_lvl": 1, "base_wnd": 100.0, "sub_baseline": 0, "xconv": 2, "auto_max_exp": 1000.0, "auto_total_exp": 10000.0, "auto_exp": 0, "rmripple": 0, "black_lvl": 8208.8125, "shutter_clip_adj": 0.0, "auto_bckg": 0, "flat_auto_thr": 0.9, "subbackg": 1}
316.8218498245369 23771.48136693232
317.89969571804795 23618.7348780785
318.977263876126 23603.77032261583
320.05455438786703 23425.130504788718
321.1315673423287 23352.040375016964
322.2083028285215 23413.534050090857
323.2847609354267 23276.564655670452
324.3609417519747 23235.436720586786
325.43684536705587 23165.460998452992
326.5124718695279 23097.14506036185
327.58782134820103 22897.312330992714
328.66289389184385 22909.513643039703
329.7376895891921 22903.833480070924
330.8122085289342 22804.928988677533
331.88645079971866 22842.096551056802
332.9604164901575 22675.992305280535
334.03410568881554 22553.330431431077
335.1075184842266 22684.354370137306
336.18065496487543 22514.11873377177
337.2535152192122 22361.63383040673
338.32609933564163 22360.461355574786
339.39840740253203 22394.27298806287
340.4704395082099 22240.504254904394
341.5421957409617 22230.19811314008
342.6136761890357 22346.18734225379
343.6848809406365 22199.979292989025
344.75581008392874 22098.176475921693
345.82646370703696 22073.724077414976
346.8968418980512 22014.40918443172
347.96694474501055 21986.279339861332
349.0367723359268 22053.931292164933
350.106324758759 21977.184435900814
351.1756021014353 21970.109481381784
352.2446044518383 21874.899051364155
353.31333189781435 21904.29550633624
354.38178452716966 21876.528468673816
355.449962427665 21903.410343383304
356.51786568702846 21763.115067538194
357.58549439294256 21897.034813186365
358.6528486330535 21830.230336322154
359.71992849496564 21904.240528688726
360.7867340662433 21853.032638423552
361.8532654344144 21740.64895429172
362.9195226869597 21875.88447007309
363.9855059113288 21880.109837988548
365.05121519492604 21808.27834173734
366.11665062511565 21871.400736510823
367.1818122892273 21845.085092483794
368.2467002745434 21875.896525147553
369.31131466831175 21884.2257698759
370.375655557742 21967.637558635768
371.4397230299983 21809.764865958576
372.5035171722102 21919.996004564055
373.5670380714637 21845.680538011606
374.6302858148101 21991.064150302605
375.6932604892554 21847.758743402366
376.7559621817709 21933.202469326625
377.81839097928605 21908.251372487553
378.8805469686886 21950.79200360334
379.94243023683157 21919.524013836653
381.0040408705263 21811.820097705277
382.0653789565458 21789.095190025095
383.1264445816196 21844.27512548228
384.1872378324406 21770.501697033287
385.2477587956637 21737.968996229538
386.3080075579037 21618.25583284864
387.3679842057336 21609.831770753983
388.4276888256918 21678.13207174878
389.48712150426945 21588.511673026762
390.54628232792857 21564.831831931944
391.6051713830857 21473.788403273917
392.66378875611736 21458.776375369784
393.7221345333637 21560.524598502278
394.7802088011249 21343.774957819784
395.838011645661 21529.772230569597
396.89554315319765 21261.697874972022
397.9528034099112 21384.25262497605
399.00979250194723 21179.82978992217
400.06651051541485 21129.80296519038
401.1229575363741 21114.89032314784
402.17913365085224 21165.435994142583
403.23503894483656 21039.695002370943
404.2906735042761 21078.359107258108
405.3460374150818 20937.841064543067
406.401130763119 20911.27038513742
407.455953634224 20931.07697059822
408.5105061141876 20863.582732745028
409.56478828876243 20706.294057324303
410.6188002436629 20721.445605728633
411.6725420645689 20721.88567071054
412.72601383711117 20780.648634816338
413.77921564689314 20696.342154631933
414.8321475794728 20598.203047782965
415.88480972036814 20461.934315217888
416.93720215506437 20658.501077130422
417.9893249690049 20386.897381359962
419.04117824759123 20367.182111802143
420.09276207619223 20338.176455290075
421.144076540133 20349.4148405634
422.1951217247042 20231.451238235968
423.24589771515275 20307.141363311683
424.2964045966928 20235.66056987494
425.34664245449494 20276.953144466763
426.3966113736933 20077.527719535312
427.4463114393875 20115.62271376921
428.49574273662984 20102.640072866525
429.5449053504417 20120.06633223883
430.5937993658026 20132.238192946872
431.6424248676558 20051.605633124287
432.6907819409007 19954.332024171053
433.73887067040596 19983.519712932575
434.7866911409965 19962.35886124698
435.8342434374608 20022.95006552155
436.88152764455117 19903.298989801788
437.9285438469724 19822.385091108317
438.9752921294057 19816.173161206436
440.02177257648145 19812.24563738316
441.06798527279716 19709.700030329906
442.1139303029122 19801.305084074418
443.1596077513459 19647.330652249973
444.2050177025794 19736.978857642305
445.25016024105753 19720.234840926616
446.2950354511886 19756.265003921177
447.33964341733736 19664.862065333153
448.383984223834 19651.454839343492
449.4280579549686 19635.071040359817
450.471864694995 19706.839013842527
451.5154045281306 19576.288335074525
452.5586775385509 19560.225387246308
453.60168381039693 19496.82670947349
454.64442342776783 19636.119774081475
455.6868964747264 19532.01694276886
456.7291030353008 19416.417214327845
457.77104319347563 19516.939934116603
458.8127170332027 19455.675319395144
459.854124638392 19337.958500393626
460.895266092919 19643.474819127176
461.93614148061897 19602.295168752946
462.97675088529104 19557.916640539308
464.01709439069236 19530.16150678891
465.0571720805492 19502.335014994755
466.0969840385442 19470.63920269071
467.1365303483253 19580.648542504416
468.17581109350067 19519.575897631184
469.2148263576437 19570.689604378316
470.2535762242878 19631.05306420633
471.29206077693016 19615.029495737886
472.33028009902773 19618.130824336666
473.3682342740012 19683.520672599196
474.40592338523857 19720.532986761238
475.4433475160804 19767.920388235576
476.4805067498364 19688.27788684171
477.51740116978 19812.273390126447
478.5540308591426 19947.623723186196
479.59039590112116 20129.732434786612
480.6264963788726 20102.40948082038
481.6623323755193 20417.44316839821
482.6979039741436 20359.686243992306
483.7332112577915 20708.58145850679
484.76825430947247 20769.28483122182
485.80303321215797 20982.491828167767
486.837548048783 21122.75668446702
487.8717989022425 21334.976434606717
488.90578585539697 21313.37825830851
489.9395089910686 21598.843344246503
490.97296839203955 21388.34145860872
492.00616414106116 21327.82681691139
493.0390963208429 21276.567529353353
494.0717650140559 21290.838376738404
495.10417030333883 21153.64353170174
496.1363122712901 20907.21839271207
497.16819100046814 20793.638016696248
498.1998065734024 20563.44906298355
499.2311590725767 20482.0417578923
500.26224858044407 20269.499379631023
501.2930751794156 20139.50072060644
502.3236389518679 19923.765015435907
503.35393998014115 19908.212454727916
504.38397834653733 19740.596896294275
505.4137541333221 19677.57256638445
506.4432674227228 19600.155929289213
507.4725182969323 19481.30020440582
508.5015068381035 19285.48929676967
509.53023312835467 19311.393751358093
510.55869724976765 19293.847594697814
511.58689928438434 19099.88291381068
512.6148393142121 19059.701883205533
513.6425174212218 19108.243675504666
514.6699336873462 19180.992732228384
515.6970881944835 19118.480881038027
516.7239810244901 19044.310042056288
517.7506122591931 19011.720678161822
518.7769819803761 19115.096728863242
519.8030902697901 19121.738609005384
520.8289372091476 19156.436628720094
521.8545228801249 19194.848670227784
522.8798473643619 19035.71030964907
523.9049107434621 19114.45877091615
524.9297130989908 19235.443750942097
525.9542545124805 19033.034820641064
526.9785350654201 19106.292910497017
528.0025548392696 18970.55707196361
529.0263139154504 18979.9582640902
530.0498123753423 18951.768900332165
531.073050300296 18914.467993219987
532.0960277716204 18734.822575280923
533.1187448705896 18845.002822863957
534.1412016784416 18691.809562560826
535.1633982763833 18735.109849880035
536.1853347455726 18665.03527278208
537.2070111671401 18515.460697293052
538.2284276221817 18588.741321510493
539.2495841917516 18555.712057746547
540.2704809568677 18349.944023510376
541.2911179985167 18473.347472706228
542.3114953976419 18303.14015842499
543.3316132351592 18303.710331205213
544.3514715919409 18177.234021982273
545.3710705488247 18085.22373652763
546.3904101866156 18198.598166973556
547.4094905860784 18207.827435380175
548.4283118279418 18176.962593766253
549.4468739929034 18073.249260601275
550.4651771616191 18022.16688196129
551.4832214147063 17951.76225616126
552.501006832761 18021.885588618596
553.5185334963226 17979.4865794422
554.5358014859103 17982.311395509496
555.5528108820035 18078.85683034396
556.5695617650363 17938.106184649012
557.5860542154242 18085.331038287313
558.6022883135283 17925.188409626237
559.6182641396881 17955.532446565838
560.6339817741991 17902.281721108957
561.6494412973225 17983.131227459682
562.6646427892883 17854.826867522148
563.6795863302796 17909.04922311347
564.694272000459 17883.59385657624
565.7086998799423 17995.112460611952
566.7228700488104 17802.886378457184
567.7367825871115 17923.817568985585
568.7504375748576 17924.303326122525
569.7638350920224 17979.645717051993
570.7769752185486 17993.589205680728
571.7898580343353 18032.804634928707
572.802483619258 17835.661230779115
573.8148520531431 18072.432204422134
574.8269634157932 17916.177724447407
575.8388177869692 18054.699751433353
576.8504152463938 17982.33552581885
577.8617558737587 18156.532639649642
578.8728397487175 18177.567001156196
579.883666950891 18280.866970013158
580.8942375598654 18306.972783171892
581.9045516551851 18537.09355579748
582.9146093163617 18591.559068394323
583.924410622878 18614.487696894397
584.9339556541727 18600.417765812937
585.9432444896538 18712.947033743327
586.9522772086875 18519.566675297705
587.9610538906127 18687.537846846593
588.9695746147318 18645.165882048037
589.9778394603054 18711.704443240167
590.985848506567 18605.673998305865
591.9936018327098 18505.385051044384
593.0010995178891 18349.47559501385
594.0083416412344 18430.281568456805
595.0153282818283 18248.430644184136
596.0220595187293 18178.998914407184
597.0285354309508 18047.1839427292
598.0347560974806 17968.866565235276
599.0407215972609 17867.373238161534
600.0464320092051 17882.21495644997
601.0518874121954 17810.24271046165
602.0570878850685 17881.79791874445
603.062033506636 17836.53355676652
604.0667243556636 17892.53137400271
605.0711605108936 17827.037875045797
606.0753420510264 18004.053478113336
607.0792690547278 17869.942155442546
608.082941600629 17883.167356125407
609.0863597673306 17762.01488798552
610.0895236333909 17939.05649101035
611.0924332773357 18034.121582675816
612.0950887776617 18100.145767145976
613.0974902128219 18210.715591192107
614.0996376612384 18226.646281700087
615.1015312013005 18505.949234918036
616.1031709113595 18560.621851858537
617.1045568697336 18392.48640717114
618.1056891547069 18797.008871551167
619.1065678445229 18937.671494929604
620.1071930173985 19252.68972316571
621.1075647515099 19345.04921880133
622.1076831250048 19503.69388927003
623.1075482159849 19782.068000907188
624.1071601025305 19990.110495560068
625.1065188626781 20180.790665312485
626.105624574433 20473.756412093193
627.1044773157682 20521.911021975797
628.1030771646128 20867.4042332905
629.1014241988742 20948.011616250697
630.0995184964158 21161.441105621772
631.0973601350688 21265.4400998408
632.0949491926294 21458.939875263863
633.0922857468631 21322.14892840228
634.089369875499 21252.957257658338
635.0862016562278 21255.888410071315
636.0827811667077 21100.11960274612
637.0791084845641 21155.761318600704
638.0751836873878 20863.95566773603
639.0710068527369 20761.408323004165
640.0665780581294 20414.280109574895
641.0618973810506 20109.076866641255
642.0569648989604 20059.99273999902
643.0517806892676 19769.254026266095
644.0463448293649 19625.515135454676
645.040657396592 19320.42434983274
646.0347184682723 19178.466290326505
647.0285281216875 18933.405501238296
648.0220864340772 18814.962359850422
649.0153934826558 18573.58603907357
650.0084493446047 18464.167209614818
651.0012540970674 18125.87376699099
651.9938078171526 18174.80015937367
652.9861105819346 17944.349205729544
653.9781624684565 17956.183991684476
654.9699635537254 17719.40881968827
655.9615139147136 17795.933680239945
656.9528136283589 17597.56660766518
657.9438627715699 17594.91445174993
658.9346614212154 17409.098113318913
659.925209654135 17267.49097280177
660.9155075471263 17348.84957439001
661.9055551769616 17157.109862439793
662.895352620375 17273.973649545045
663.8848999540678 17328.90982651269
664.8741972547068 17030.48460415299
665.863244598926 17012.803070650392
666.8520420633213 17142.664759344036
667.8405897244611 16953.639472927516
668.8288876588758 16863.093697496573
669.8169359430613 16903.364148247412
670.8047346534822 16929.58432393384
671.7922838665672 16788.040283576822
672.7795836587156 16799.736115448286
673.766634106285 16940.33060739621
674.7534352856092 16865.24972310911
675.7399872729766 16879.177783020503
676.7262901446538 16890.05778550611
677.712343976862 16793.28448975725
678.6981488457986 17052.884217406165
679.6837048276229 16866.063183480772
680.6690119984596 16873.271559319466
681.6540704344043 16932.892847845338
682.6388802115107 16785.16556074241
683.6234414058108 16887.71430075772
684.6077540932874 16833.075918100898
685.591818349907 16806.55636868611
686.575634251587 16700.197201887237
687.5592018742263 16597.289204505356
688.5425212936734 16568.325511804742
689.5255925857564 16626.962650035803
690.5084158262707 16490.971621842422
691.4909910909646 16465.523819485716
692.4733184555644 16284.72247455564
693.4553979957618 16357.588720922251
694.4372297872123 16260.612030362416
695.4188139055404 16182.319049541571
696.4001504263324 16134.35004560597
697.3812394251509 16124.727779897552
698.3620809775111 16072.045369608682
699.3426751589104 16087.361905373828
700.3230220448004 15994.16376714368
701.3031217106054 16028.203446363023
702.2829742317172 15989.13291891188
703.2625796834873 15979.90875611566
704.2419381412474 15847.599582665653
705.22104968028 16011.228421071555
706.1999143758458 16013.437419549093
707.178532303169 15849.12509142604
708.1569035374378 15989.942304991582
709.1350281538107 16045.391123925054
710.1129062274158 16011.602684057787
711.0905378333373 16114.96439389297
712.0679230466376 16068.992100459163
713.0450619423427 16221.83579742158
714.0219545954424 16285.19849176305
714.9986010808989 16152.48688081859
715.9750014736292 16315.964832267895
716.9511558485392 16473.298160971706
717.9270642804786 16482.403072164343
718.9027268442787 16483.76981327917
719.8781436147328 16524.757625989194
720.8533146666014 16519.393748690734
721.828240074612 16476.21543633683
722.8029199134635 16544.884691163883
723.7773542578125 16352.653762895387
724.751543182294 16352.97784215271
725.7254867615029 16211.915057964614
726.6991850700015 16208.170817846756
727.6726381823228 16206.247068666149
728.6458461729599 16075.15088911865
729.6188091163858 16039.3347071183
730.5915270870246 15963.725510096567
731.5640001592856 15850.184971840325
732.536228407529 16016.290888662541
733.5082119060917 15911.072355682849
734.4799507292755 15885.037242197102
735.4514449513481 15913.064545272597
736.4226946465496 16008.198083702195
737.3936998890786 15888.581134976663
738.3644607531078 15941.122187640736
739.3349773127793 15876.179222561175
740.3052496421951 15874.360301763474
741.27527781543 15836.46895212781
742.2450619065221 15692.087441394291
743.2146019894826 15685.638443704473
744.183898138288 15635.051922203924
745.1529504268801 15542.688143784497
746.1217589291682 15454.638637628897
747.0903237190341 15289.571558667772
748.058644870318 15442.338547947282
749.0267224568397 15305.297583812368
749.994556552374 15322.178942698662
750.9621472306771 15299.65214474654
751.9294945654583 15403.277429951015
752.8965986304011 15234.822119731607
753.8634594991636 15212.487321431752
754.8300772453586 15292.92630935123
755.7964519425768 15184.212104530525
756.762583664371 15210.987236430878
757.7284724842611 15230.405985236523
758.6941184757416 15155.99878638263
759.6595217122667 15357.234856871379
760.6246822672638 15189.581263653236
761.5896002141235 15134.872319897031
762.5542756262093 15169.409631955554
763.5187085768503 15274.180588949079
764.4828991393406 15154.041724621458
765.4468473869474 15151.019800092745
766.4105533929032 15128.279909568368
767.3740172304078 15056.362021981744
768.3372389726283 14964.878260281275
769.3002186926988 14821.934105818995
770.2629564637282 14898.62237335612
771.2254523587872 14789.45510673572
772.1877064509154 14689.995713503678
773.1497188131179 14723.09059902028
774.1114895183728 14615.417079396288
775.0730186396268 14597.714305096859
776.0343062497905 14503.252073919939
776.9953524217381 14533.17968461032
777.9561572283274 14464.250598134542
778.9167207423689 14494.681618997196
779.8770430366476 14430.891031913134
780.8371241839159 14390.958106030826
781.7969642568951 14422.719451908508
782.7565633282757 14594.850851455576
783.7159214707099 14403.18695901459
784.6750387568281 14470.095528407237
785.6339152592227 14383.29970615271
786.5925510504512 14327.133100462384
787.5509462030477 14394.888140186367
788.5091007895098 14339.227065635723
789.4670148823006 14380.593152580579
790.4246885538596 14456.278977709353
791.3821218765861 14338.821127565152
792.3393149228505 14370.077045314669
793.2962677649975 14381.42389756022
794.2529804753303 14428.268647671803
795.20945312613 14459.779214250308
796.1656857896378 14409.83443271054
797.1216785380675 14461.672429409791
798.0774314435985 14615.226352134068
799.0329445783846 14676.195421027598
799.9882180145414 14820.74041535134
800.9432518241574 14750.49778705624
801.89804607929 14947.41058982877
802.852600851962 15011.844335577358
803.8069162141637 15139.802431538254
804.760992237856 15239.04709086977
805.714828994971 15280.70747736463
806.6684265574077 15229.627510687811
807.6217849970271 15263.79675529983
808.574904385674 15205.725787534899
809.527784795142 15315.09479740573
810.4804262972102 15248.531377565141
811.4328289636178 15110.946734498357
812.3849928660748 15030.795921632423
813.3369180762638 14997.445419278694
814.2886046658241 14806.137331593587
815.2400527063783 14794.941603331263
816.1912622695108 14669.709729043883
817.1422334267718 14506.993045373518
818.0929662496856 14390.731198773468
819.0434608097457 14293.650042891572
819.9937171784059 14236.242251100726
820.9437354271013 14110.557039119838
821.8935156272255 14038.221522733791
822.8430578501484 13865.063416989487
823.7923621672016 13863.555754269124
824.7414286496896 13965.379256006467
825.6902573688876 13720.506859472604
826.6388483960363 13770.051084667963
827.5872018023492 13656.623712474946
828.5353176590033 13693.808501499056
829.4831960371503 13627.838074937321
830.4308370079016 13759.667230150671
831.3782406423525 13561.74601502177
832.3254070115545 13617.990905617195
833.2723361865319 13518.302837453297
834.2190282382799 13565.983717888535
835.1654832377644 13590.02191295291
836.1117012559116 13609.770943649599
837.0576823636256 13492.941825161939
838.003426631778 13432.525059328813
838.9489341312074 13402.120533226398
839.8942049327197 13457.884680783109
840.8392391070975 13406.421560246969
841.7840367250865 13445.245166506527
842.7285978573982 13453.134313257377
843.672922574724 13414.638525370709
844.6170109477152 13386.799051760148
845.560863046996 13420.780172532784
846.5044789431595 13391.498699539437
847.4478587067697 13349.900734082054
848.3910024083561 13408.170758000106
849.333910118421 13425.602282419844
850.2765819074339 13249.664603000865
851.2190178458332 13362.572183170783
852.161218004032 13313.314255484322
853.1031824524016 13290.032337535478
854.0449112612987 13236.404958358495
854.9864045010327 13371.78238579964
855.9276622418947 13165.748845311746
856.8686845541379 13271.387060986284
857.8094715079915 13288.867782797955
858.7500231736467 13313.963445503114
859.690339621271 13283.203103857715
860.6304209209939 13382.852831852733
861.5702671429244 13198.48008367453
862.5098783571284 13356.054056096962
863.4492546336569 13338.017251407413
864.3883960425155 13348.469331921773
865.3273026536863 13347.595773113528
866.2659745371238 13313.599426035196
867.2044117627465 13428.464447536757
868.1426144004472 13406.139556161932
869.0805825200823 13400.02198670142
870.0183161914847 13553.982111693102
870.9558154844526 13603.75670082187
871.8930804687552 13529.33714443649
872.8301112141307 13537.346197850678
873.7669077902865 13707.451683595358
874.7034702669062 13879.162970953239
875.6397987136315 13786.71960897391
876.5758932000863 13857.30921428473
877.5117537958522 13871.109268838318
878.4473805704911 13869.157189355774
879.3827735935283 13953.688011174576
880.3179329344603 13943.235241828
881.2528586627541 14090.8941738561
882.1875508478479 14056.498735238507
883.1220095591489 13929.859047154994
884.0562348660296 13978.431302403664
884.9902268378391 13959.85161884315
885.9239855438955 13970.784109809276
886.8575110534839 13880.993397238975
887.7908034358588 13715.162044734447
888.7238627602474 13803.179156420776
889.6566890958475 13725.234694759722
890.5892825118208 13550.443170492825
891.5216430773125 13486.19447937152
892.4537708614189 13450.764805452282
893.3856659332196 13389.222571752814
894.3173283617652 13316.323533047776
895.2487582160684 13240.655909172512
896.179955565116 13256.511885319787
897.110920477864 13048.728032435462
898.0416530232451 13142.255864613186
898.9721532701478 12963.91028971579
899.9024212874428 12966.103983682211
900.8324571439662 12884.3222789904
901.7622609085302 12890.579381923992
902.6918326499072 12831.952758083153
903.6211724368477 12874.839118465923
904.5502803380696 12786.897674268386
905.4791564222614 12759.214735781457
906.4078007580792 12754.304832253825
907.3362134141571 12640.466470441506
908.2643944590909 12731.615115487408
909.1923439614493 12743.738489848958
910.1200619897754 12598.83921245374
911.0475486125779 12789.535895130144
911.9748038983344 12631.503544271854
912.9018279155007 12567.061556098528
913.8286207324982 12561.136179397075
914.7551824177117 12619.253316170076
915.6815130395116 12602.757430088453
916.6076126662283 12552.941185587817
917.533481366163 12611.74059769776
918.4591192075914 12548.504329535715
919.3845262587565 12544.573881477145
920.3097025878706 12510.172891039827
921.2346482631237 12393.251061611327
922.1593633526682 12471.352975445161
923.0838479246304 12480.11976123574
924.0081020471061 12460.519783757853
924.9321257881656 12411.902117033655
925.8559192158464 12362.818646021238
926.7794823981512 12291.137418315619
927.7028154030686 12319.7256472833
928.6259182985414 12248.709877499177
929.5487911524906 12505.477747879051
930.4714340328119 12273.227969952055
931.3938470073608 12215.902955538259
932.3160301439748 12349.76173260531
933.2379835104548 12374.477439436656
934.1597071745709 12322.808166595141
935.0812012040769 12334.62432128193
936.002465666681 12260.016029542678
936.9235006300696 12366.145786467738
937.8443061619055 12241.72491322752
938.7648823298077 12195.75926219441
939.6852292013809 12293.530157980935
940.6053468441951 12306.306647719215
941.5252353257874 12233.094899915981
942.4448947136698 12270.99758648009
943.364325075323 12225.618349793906
944.2835264782043 12188.314483631139
945.2024989897309 12161.208152763122
946.1212426773054 12111.275281580602
947.0397576082851 12174.607269897597
947.9580438500125 12265.996269102561
948.8761014697939 12190.910257409514
949.7939305349064 12220.4263591991
950.7115311125999 12178.69845633222
951.6289032700952 12211.059935778172
952.5460470745875 12035.496221444368
953.4629625932339 12203.65325235129
954.3796498931715 12188.59500478613
955.2961090415029 12154.347114846674
956.2123401053068 12109.962558313646
957.1283431516276 12077.375570686912
958.0441182474842 12126.973173402886
958.9596654598663 12281.52533851976
959.8749848557309 12051.782985468875
960.7900765020167 12076.899699289217
961.7049404656209 12122.664056907866
962.6195768134185 12187.931088526919
963.5339856122537 12044.05624683154
964.4481669289453 12054.355933265202
965.3621208302793 11882.778954614123
966.2758473830145 12066.053145831287
967.1893466538822 12025.548578007789
968.1026187095813 12166.521149460996
969.0156636167867 11971.259383447834
969.9284814421426 12128.82147090828
970.8410722522622 11874.59993306176
971.753436113735 12028.299882581812
972.6655730931161 11933.547915717665
973.5774832569368 12077.782549155429
974.4891666716958 11983.068933980761
975.4006234038698 12018.37970458387
976.3118535198955 12031.823338955453
977.2228570861935 11989.043050509646
978.1336341691494 12034.882910642758
979.0441848351202 11953.264293273398
979.9545091504333 11964.155511569455
980.864607181391 12078.01726015499
981.7744789942699 12025.567582849566
982.6841246553086 12145.751778154501
983.5935442307236 12009.66684826485
984.5027377867027 11968.143599751205
985.4117053894024 12065.44669333521
986.3204471049557 11937.262328928666
987.2289629994648 12081.096205278724
988.1372531390007 12042.38988026587
989.0453175896091 11997.49587263485
989.9531564173067 12012.645952155297
990.860769688079 12007.274703359291
991.7681574678918 12242.921790511242
992.6753198226706 12106.425616474826
993.582256818323 12187.223797698565
994.4889685207218 12112.978475717695
995.3954549957143 12275.27133887533
996.301716309119 12207.731434967274
997.2077525267232 12332.488258796686
998.1135637142943 12245.043738425575
999.0191499375615 12303.070701150124
999.924511262232 12202.09956133374
1000.8296477539861 12330.04549887656
1001.7345594784656 12216.289221359233
1002.6392465012996 12363.636468956562
1003.5437088880753 12285.86852056043
1004.4479467043584 12455.562976457684
1005.3519600156869 12272.779118300215
1006.2557488875718 12401.171711004808
1007.1593133854858 12265.660064632788
1008.0626535748888 12407.83369919875
1008.9657695212009 12255.15964770824
1009.8686612898182 12342.749752360809
1010.7713289461135 12231.982604864523
1011.6737725554212 12330.926025577148
1012.5759921830577 12302.443473219078
1013.4779878943027 12385.373488593523
1014.379759754418 12232.932432207665
1015.2813078286254 12186.318289928358
1016.18263218213 12257.98466228895
1017.0837328801026 12196.436100692601
1017.9846099876886 12082.060878324817
1018.8852635700023 12048.908667320236
1019.7856936921362 12039.584860475066
1020.6859004191447 11978.763754663978
1021.5858838160675 11943.129469365384
1022.4856439479063 11937.123022408956
1023.3851808796389 11905.729925742939
1024.2844946762143 11923.531599285541
1025.183585402554 11795.441424310304
1026.082453123554 11762.737595851835
1026.9810979040776 11684.732849363867
1027.8795198089647 11745.782752003905
1028.777718903024 11750.986930525269
1029.6756952510368 11719.583884497893
1030.5734489177648 11637.602453458627
1031.4709799679313 11722.766954520159
1032.3682884662358 11668.467320654785
1033.2653744773506 11534.928143063556
1034.1622380659192 11655.497565455593
1035.058879296559 11704.424327608092
1035.9552982338591 11640.559706984342
1036.8514949423825 11740.7035665011
1037.7474694866614 11724.06697617751
1038.6432219312028 11753.511883116891
1039.5387523404825 11828.541083031027
1040.4340607789582 11886.902370062708
1041.3291473110476 11853.154459242482
1042.2240120011465 12079.439272771446
1043.1186549136273 12155.101052802962
1044.0130761128294 12357.850398723323
1044.9072756630649 12252.408079137907
1045.8012536286205 12428.774010434094
1046.6950100737577 12478.015875027146
1047.588545062701 12645.356017428738
1048.481858659663 12691.999144233068
1049.3749509288118 12745.31145447263
1050.2678219343034 12752.748522812803
1051.1604717402515 12750.464096148973
1052.0529004107575 12752.938237011038
1052.9451080098825 12886.008510071857
1053.8370946016694 12759.040180491726
1054.7288602501267 12886.81993006945
1055.6204050192446 12720.556404681003
1056.511728972977 12721.452539297741
1057.402832175254 12579.234822870902
1058.2937146899785 12551.853240274215
1059.1843765810263 12447.027746092555
1060.0748179122456 12442.667570571039
1060.9650387474576 12405.07754444754
1061.855039150456 12362.594604942096
1062.7448191850071 12207.783394779532
1063.6343789148505 12312.18647475327
1064.5237184037014 12238.77074644643
1065.412837715241 12155.517355840271
1066.3017369131267 11980.857724126374
1067.190416060992 12064.502764402387
1068.0788752224398 11868.077934210381
1068.9671144610438 11970.26025512037
1069.8551338403558 11858.681282724676
1070.7429334239023 11873.591743485984
1071.6305132751695 11734.162012804849
1072.517873457633 11793.920036703239
1073.4050140347335 11660.30577786126
1074.2919350698776 11660.781472992188
1075.1786366264623 11614.7591205701
1076.0651187678395 11620.774740409808
1076.95138155735 11486.34195671941
1077.8374250582929 11556.668336461193
1078.7232493339507 11385.2484137187
1079.608854447577 11385.748615247185
1080.4942404623907 11399.114569428739
1081.3794074415982 11460.947813300345
1082.2643554483657 11380.04848291711
1083.149084545841 11359.540482867731
1084.033594797138 11206.352823721205
1084.9178862653516 11317.066343163733
1085.8019590135427 11258.02750745507
1086.6858131047484 11091.462330303628
1087.5694486019802 11207.135800424972
1088.4528655682225 11143.47932870311
1089.3360640664287 11109.33136608802
1090.2190441595321 11214.018958984674
1091.1018059104317 11165.34862752647
1091.98434938201 11263.252481924439
1092.866674637111 11153.067050089496
1093.748781738559 11179.934300907064
1094.6306707491512 10980.516029918794
1095.5123417316554 11012.04678446122
1096.3937947488157 11037.545999632184
1097.2750298633455 11054.775673697191
1098.156047137938 10985.441537996368
1099.0368466352556 11045.433349865214
1099.9174284179317 11026.149824407006
1100.7977925485757 10988.659000094847
1101.6779390897755 10897.285732982758
1102.5578681040806 11001.448468942875
1103.4375796540226 10955.628615996027
1104.3170738021054 10937.440484783852
1105.1963506108077 10929.814017500257
1106.0754101425773 10880.870454992535
1106.9542524598382 10890.511385743868
1107.8328776249855 10951.749507150602
1108.7112857003904 10827.0817250711
1109.5894767483987 11068.565483588533
1110.4674508313292 11006.109547600607
1111.3452080114657 10961.778673445066
1112.2227483510815 11017.078308156802
1113.1000719124077 11148.238730242798
1113.9771787576592 11028.982979536553
1114.854068949022 11165.989138335099
1115.7307425486542 11153.436980517525
1116.6071996186893 11166.934468476038
1117.483440221229 11445.034433080173
1118.3594644183577 11463.468482444578
1119.235272272128 11499.847946880825
1120.1108638445658 11609.243354023705
1120.9862391976712 11647.60746156408
1121.8613983934229 11753.86332574747
1122.7363414937627 11920.027092393133
1123.6110685606182 11979.58859623779
1124.485579655884 12001.636753139122
1125.359874841426 12120.947024644238
1126.2339541790916 12161.856124239279
1127.1078177306936 12271.74602297845
1127.9814655580267 12206.586579365536
1128.854897722851 12451.051483043299
1129.7281142869106 12371.142013292621
1130.6011153119125 12499.563849838762
1131.473900859548 12384.719593313299
1132.3464709914697 12346.69726925265
1133.2188257693178 12288.49566573894
1134.0909652546961 12407.951775174915
1134.96288950919 12180.189134775126
1135.8345985943506 12340.2544508483
1136.7060925717087 12202.512002731613
1137.57737150277 12120.298770022011
1138.4484354490069 12035.868704844754
1139.3192844718778 11912.051119399322
1140.1899186327992 11761.833527008888
1141.060337993178 11735.779205501693
1141.930542614382 11676.292578797551
1142.8005325577597 11490.424011149178
1143.670307884635 11388.140516980508
1144.5398686563003 11340.235767796745
1145.409214934025 11160.520584204703
1146.2783467790541 11190.43084339962
1147.1472642526023 10998.986772706448
1148.0159674158622 11015.034613988504
1148.8844563300026 10835.807715121578
1149.7527310561618 10876.267802764236
1150.6207916554504 10794.659589316534
1151.4886381889592 10666.033618766258
1152.3562707177498 10663.62548022759
1153.2236893028585 10616.028320889756
1154.090894005296 10595.373600124787
1154.9578848860474 10527.151950453366
1155.8246620060709 10504.441554130655
1156.6912254262988 10457.78907271806
1157.5575752076438 10376.638952958301
1158.42371141098 10426.623977293038
1159.2896340971656 10447.574110903914
1160.1553433270346 10435.79142560119
1161.0208391613887 10358.010317988603
1161.8861216610057 10394.241445892807
1162.75119088664 10265.102130950165
1163.6160468990201 10321.411568907517
1164.4806897588442 10239.365078125229
1165.3451195267917 10179.831260210172
1166.2093362635114 10149.129419027802
1167.0733400296285 10245.792838397132
1167.9371308857444 10251.00379859799
1168.8007088924278 10239.527653758169
1169.6640741102328 10242.152423507297
1170.5272265996773 10168.913611925711
1171.390166421259 10043.415445615547
1172.252893635452 10195.617293873815
1173.1154083026995 10144.045515276568
1173.977710483421 10211.525879939329
1174.8398002380145 10116.334341717353
1175.7016776268483 10193.826649045064
1176.563342710264 10042.075495856427
1177.4247955485826 10181.26173373487
1178.2860362020947 10062.974976630978
1179.147064731069 10051.516969626897
1180.0078811957483 10115.70191602661
1180.8684856563486 10134.266474859565
1181.7288781730604 10081.014082311136
1182.589058806052 10253.73220104587
1183.4490276154593 10230.29582362873
1184.3087846614017 10167.583982454285
1185.1683300039676 10228.131727111493
1186.027663703222 10311.5722161489
1186.8867858192025 10275.018825480307
1187.7456964119228 10445.408337836809
1188.6043955413716 10391.83264456727
1189.4628832675116 10425.27570421752
1190.3211596502842 10498.941778632363
1191.179224749596 10460.451216087975
1192.0370786253388 10481.752396450884
1192.8947213373758 10686.876508408406
1193.7521529455407 10667.386666978084
1194.6093735096438 10664.113367618502
1195.466383089477 10618.538221882885
1196.3231817447977 10663.825412827104
1197.1797695353398 10741.80348520695
1198.0361465208189 10702.596177407204
1198.8923127609214 10766.77552431939
1199.7482683153048 10799.869337327791
1200.6040132436028 10802.074872865098
1201.459547605431 10747.948061904655
1202.3148714603722 10765.448997645302
1203.1699848679855 10705.29482071708
1204.0248878878065 10730.780320698377
1204.8795805793507 10664.228589817665
1205.7340630020935 10659.509022536335
1206.5883352155033 10710.747819825423
1207.4423972790064 10615.08548057997
1208.2962492520237 10582.011118949344
1209.1498911939307 10488.288403553075
1210.0033231640937 10507.098176660442
1210.8565452218427 10357.84893883784
1211.7095574264913 10325.227616774011
1212.5623598373222 10263.59378538548
1213.4149525135963 10244.669992990053
1214.2673355145507 10152.498313236158
1215.1195088993936 10082.748995429087
1215.9714727273113 10100.111820765507
1216.8232270574663 10141.988654047263
1217.6747719489904 10101.038716365176
1218.5261074609934 9917.715483479094
1219.3772336525653 9891.928465042027
1220.2281505827668 9982.174135922789
1221.0788583106296 9909.125404071347
1221.9293568951707 9831.67674762931
1222.7796463953746 9869.868600501064
1223.629726870202 9890.636831210177
1224.4795983785934 9858.664064838726
1225.3292609794553 9720.949522592051
1226.1787147316809 9738.549773031978
1227.0279596941327 9685.856877924114
1227.8769959256424 9706.139034293097
1228.7258234850306 9753.535507936174
1229.5744424310833 9684.197407729338
1230.422852822563 9698.056067483443
1231.2710547182105 9728.957898256236
1232.119048176739 9711.391527192822
1232.9668332568417 9713.827775657342
1233.8144100171812 9611.79476132464
1234.6617785163999 9770.474245095329
1235.508938813111 9714.602555971564
1236.3558909659114 9712.6086384145
1237.2026350333617 9771.167065474427
1238.049171074008 9838.873913209954
1238.8954991463652 9731.84320370404
1239.741619308932 9715.729822998033
1240.587531620169 8462.189841533447
1241.4332361385277 9824.217306777045
1242.2787329224248 9644.376471952319
1243.1240220302534 9638.086965989409
1243.9691035203869 9660.781923891827
1244.813977451171 9755.150510031817
1245.6586438809263 9754.398243583224
1246.5031028679496 9592.70397069902
1247.3473544705157 9657.705325796109
1248.1913987468706 9744.66027531502
1249.0352357552383 9660.329141589818
1249.8788655538228 9712.510591165414
1250.7222882007918 9731.086813777063
1251.565503754302 9680.070010274041
1252.4085122724755 9619.906551115251
1253.2513138134182 9679.757640212085
1254.0939084352049 9657.871275926074
1254.9362961958905 9612.33893200224
1255.7784771535007 9529.145702012003
1256.6204513660432 9482.84401930011
1257.4622188915 9550.232883782071
1258.3037797878242 9532.136384174219
1259.1451341129468 9527.521269499475
1259.9862819247755 9592.09838157665
1260.8272232811978 9505.884342546206
1261.6679582400666 9366.29207032296
1262.5084868592203 9428.155302221588
1263.34880919647 9403.333653286058
1264.1889253095997 9524.701969188316
1265.0288352563712 9374.390216391233
1265.8685390945266 9369.018225707096
1266.7080368817751 9421.904068964144
1267.5473286758115 9427.94093524991
1268.386414534294 9397.055880553855
1269.2252945148703 9354.586194603504
1270.0639686751547 9407.804838880915
1270.9024370727402 9317.807659067374
1271.7406997651997 9416.308180034694
1272.5787568100714 9306.52483827699
1273.4166082648808 9333.012999480361
1274.2542541871244 9272.801043653475
1275.091694634275 9282.891089435336
1275.9289296637817 9205.63323754883
1276.7659593330663 9265.185781972035
1277.6027836995308 9221.299592820684
1278.4394028205552 9182.634080304166
1279.2758167534867 9206.988179199574
1280.112025555658 9207.405820686781
1280.9480292843746 9243.60147923438
1281.7838279969128 9066.0516650118
1282.6194217505326 9245.50461863181
1283.4548106024686 9077.34573375751
1284.289994609926 9138.829891597747
1285.1249738300921 9212.7232261861
1285.959748320127 9136.594940046894
1286.7943181371702 9151.334287961792
1287.6286833383328 9243.977633918728
1288.4628439807038 9124.933661492754
1289.2968001213521 9100.196976450416
1290.1305518173194 9058.646149317607
1290.9640991256183 9144.50886326635
1291.7974421032523 9137.528285635943
1292.630580807183 9061.04895333469
1293.463515294361 9092.61484279254
1294.29624562171 9189.210045304239
1295.12877184613 9080.308514644954
1295.961094024493 9049.178966775473
1296.79321221365 8929.527518686675
1297.6251264704333 9186.999058870348
1298.4568368516466 9071.691792391477
1299.2883434140658 9072.150457788997
1300.1196462144526 9035.938469951501
1300.9507453095375 9148.150413519377
1301.7816407560313 9147.357971242507
1302.6123326106172 9135.17559826792
1303.4428209299622 9212.103543816058
1304.2731057707024 9304.613615418497
1305.1031871894502 9212.700885026257
1305.933065242798 9176.927197719204
1306.7627399873181 9245.872162713156
1307.5922114795467 9278.270144660019
1308.4214797760123 9099.788432844756
1309.2505449332057 9149.211622436549
1310.0794070076026 9216.540652347929
1310.9080660556538 9238.05557687608
1311.736522133786 9160.397143727616
1312.5647752983987 9213.05841021462
1313.3928256058734 9112.70664583261
1314.2206731125661 9274.34199837511
1315.048317874809 9331.883720845748
1315.8757599489109 9391.558372008689
1316.7029993911547 9233.425563988445
1317.5300362578055 9491.096277754885
1318.356870605101 9346.124900881088
1319.183502489257 9331.01515764383
1320.0099319664623 9389.934542555
1320.836159092889 9363.134574153097
1321.66218392468 9432.347666148149
1322.4880065179532 9405.60854476255
1323.3136269288134 9359.78444002305
1324.1390452133292 9453.840536012842
1324.9642614275563 9470.370751638966
1325.7892756275214 9526.638856612135
1326.6140878692295 9386.686023711318
1327.4386982086617 9481.863901651344
1328.2631067017755 9465.048023954665
1329.0873134045069 9395.130957630567
1329.911318372764 9319.479642893688
1330.735121662441 9302.591881748433
1331.558723329399 9371.274122999366
1332.3821234294774 9282.393360569837
1333.2053220185007 9259.320493384275
1334.0283191522612 9370.000478131185
1334.851114886529 9308.896000545785
1335.6737092770582 9205.725913540511
1336.4961023795695 9242.914395480018
1337.3182942497697 9216.655166376968
1338.1402849433325 9380.505202838543
1338.962074515921 9220.941815010166
1339.7836630231632 9057.746889336946
1340.6050505206676 9245.701550520036
1341.426237064028 9197.112570141173
1342.2472227088037 9145.382061999491
1343.0680075105338 9043.947594163315
1343.888591524741 9278.102304907527
1344.7089748069138 9151.194724098881
1345.5291574125276 9101.797558444165
1346.3491393970307 9053.337915885928
1347.168920815846 9141.25676931437
1347.9885017243778 9120.169125863427
1348.8078821780036 9164.43337410484
1349.6270622320844 9025.020106041551
1350.4460419419447 9022.705236924907
1351.2648213629054 8996.859217375923
1352.0834005502438 9185.18871270539
1352.90177955923 9073.41969867584
1353.7199584451064 9023.227333017107
1354.5379372630887 9106.383091361358
1355.355716068374 8951.534195843482
1356.1732949161305 9060.462377547394
1356.9906738615155 9118.553826019795
1357.8078529596478 9050.21135200717
1358.6248322656375 9050.778281739698
1359.441611834567 9108.316481841957
1360.2581917214866 9103.075013643804
1361.0745719814367 8967.923231410807
1361.890752669433 9110.076750064714
1362.7067338404577 9037.245826129492
1363.5225155494845 8945.055771372976
1364.3380978514506 8981.304996864847
1365.1534808012839 8980.333133049666
1365.9686644538815 8880.154969862062
1366.783648864117 9006.251197171072
1367.5984340868417 8960.036018909283
1368.413020176893 9002.053342243167
1369.2274071890715 8977.44388724201
1370.0415951781652 8879.658454675036
1370.8555841989346 8913.708647695717
1371.6693743061223 8970.839758604892
1372.48296555444 8793.021876003975
1373.2963579985844 8930.061033682401
1374.1095516932255 8937.696692194546
1374.9225466930166 8874.954394616896
1375.7353430525782 8825.019238439203
1376.5479408265164 8949.64476685019
1377.36034006941 8847.002084055825
1378.1725408358216 8767.28662612048
1378.9845431802805 8821.70850434051
1379.796347157304 8929.164029591146
1380.6079528213813 8735.89592073984
1381.4193602269788 8870.71651010956
1382.230569428546 8759.137661369366
1383.0415804805016 8808.837225926356
1383.852393437246 8702.412650566044
1384.6630083531563 8845.529193326043
1385.4734252825892 8707.78337541947
1386.2836442798798 8800.919355733971
1387.0936653993322 8754.174507678012
1387.9034886952395 8663.090945992582
1388.713114221864 8698.76673587607
1389.5225420334482 8798.42413429452
1390.331772184214 8722.329114179392
1391.1408047283585 8718.818731926123
1391.9496397200564 8767.47246851981
1392.758277213461 8809.031136470636
1393.5667172627054 8625.35890007552
1394.3749599218918 8584.488401134087
1395.1830052451114 8721.172711770283
1395.9908532864265 8665.432309233744
1396.7985040998774 8710.122969094722
1397.6059577394808 8613.680601226863
1398.4132142592352 8531.837200591917
1399.2202737131156 8587.598706156434
1400.027136155073 8569.061628036543
1400.8338016390353 8544.03485697181
1401.6402702189134 8513.784547729327
1402.446541948586 8435.03464330961
1403.2526168819204 8483.571176522646
1404.058495072757 8405.875690681007
1404.8641765749107 8320.99538726103
1405.6696614421799 8510.637390353279
1406.4749497283356 8423.81979084411
1407.280041487129 8369.951662600968
1408.084936772295 8238.173684128733
1408.8896356375335 8388.478197629436
1409.6941381365323 8314.088060301296
1410.498444322955 8190.2916217245565
1411.3025542504402 8252.18065137418
1412.106467972606 8226.608176565795
1412.9101855430508 8155.617327285469
1413.7137070153458 8102.219662937039
1414.5170324430437 8178.581346021119
1415.320161879672 8197.69796133824
1416.1230953787435 8109.661979391846
1416.925832993742 7997.979548272402
1417.7283747781275 8023.817778055757
1418.5307207853439 7952.73212837615
1419.3328710688093 7937.865844082839
1420.134825681922 7914.241458466206
1420.9365846780584 7909.176336817592
1421.7381481105713 7979.969438478649
1422.539516032788 7902.025738473889
1423.3406884980232 7895.4625281011495
1424.1416655595604 7876.353390140001
1424.942447270665 7807.715576737134
1425.7430336845828 7881.097489292159
1426.5434248545298 7805.408050149279
1427.3436208337116 7867.441813571803
1428.143621675301 7832.105008717142
1428.9434274324558 7838.063301869249
1429.7430381583108 7729.642542479715
1430.5424539059713 7622.1731934550235
1431.3416747285337 7699.437749905909
1432.1407006790632 7852.866357794393
1432.9395318106053 7719.4371351716345
1433.7381681761835 7773.925745037139
1434.5366098288014 7592.445700179999
1435.3348568214424 7649.850338525417
1436.1329092070573 7756.880342525587
1436.9307670385879 7822.63788674805
1437.7284303689503 7819.915279137727
1438.5258992510335 7774.174235542518
1439.3231737377118 7759.81358844364
1440.1202538818306 7683.2067778234905
1440.9171397362225 7662.508629637914
1441.7138313536925 7599.306075048926
1442.5103287870243 7719.128899447445
1443.3066320889775 7594.946232115966
1444.1027413122956 7662.351202750195
1444.8986565096966 7646.151569947379
1445.694377733882 7674.24859908128
1446.4899050375207 7539.7964814486595
1447.2852384732687 7613.519439670364
1448.0803780937622 7609.453017041608
1448.8753239516063 7553.293741607102
1449.6700760993954 7485.22732246723
1450.464634589689 7565.920024637145
1451.2589994750397 7551.501423729664
1452.0531708079689 7517.901976784985
1452.8471486409799 7424.145255332498
1453.6409330265524 7431.781991770375
1454.4345240171442 7466.507230950791
1455.2279216651987 7460.198366915091
1456.0211260231263 7498.472864522037
1456.8141371433194 7605.795223376762
1457.6069550781594 7545.903029971256
1458.3995798799897 7446.593274189708
1459.1920116011424 7395.941887308107
1459.98425029393 7251.703329290429
1460.7762960106338 7455.880298781912
1461.5681488035225 7368.840530966702
1462.3598087248392 7449.705911936986
1463.1512758268036 7444.925255876902
1463.942550161617 7425.458817080193
1464.7336317814625 7421.085979462759
1465.524520738496 7390.447002131225
1466.3152170848552 7334.666076980747
1467.1057208726506 7360.591962807683
1467.8960321539817 7391.1069719326115
1468.6861509809169 7172.719499652459
1469.4760774055085 7315.543971520701
1470.265811479785 7210.349515984407
1471.055353255755 7234.227336716205
1471.844702785409 7176.437319696177
1472.6338601207044 7289.862528575094
1473.4228253135934 7232.258001890876
1474.2115984159936 7185.572555760067
1475.0001794798063 7103.4927734644125
1475.7885685569145 7206.383412971632
1476.576765699172 7139.16465490527
1477.3647709584238 7302.177995701932
1478.1525843864802 7137.7599953085255
1478.9402060351367 7139.079196098015
1479.7276359561693 7195.442264612888
1480.514874201328 7296.330216202377
1481.3019208223468 7134.167885737074
1482.0887758709323 7066.190395603486
1482.8754393987747 7236.285115436646
1483.6619114575406 7230.97739616108
1484.4481920988783 7129.965388724973
1485.2342813744108 7152.2087671995705
1486.0201793357446 7177.064482345534
1486.8058860344572 7115.62812612368
1487.591401522117 7158.106839830757
1488.3767258502594 7277.352687270519
1489.1618590704056 7071.373947335211
1489.9468012340494 7127.261176996944
1490.7315523926754 7094.552370203361
1491.5161125977356 7255.708871764831
1492.3004819006637 7185.283401098692
1493.084660352877 7206.967304840527
1493.8686480057622 7198.749768028951
1494.6524449106964 7122.425389348285
1495.4360511190262 7336.044678579596
1496.219466682087 7273.991942604621
1497.0026916511779 7275.192214934874
1497.7857260775945 7190.288387485756
1498.5685700125996 7160.30888270178
1499.3512235074395 7215.324513054738
1500.133686613337 7197.98256793455
1500.9159593814966 7178.959584226209
1501.698041863101 7173.915355179971
1502.4799341093094 7172.800675899719
1503.2616361712662 7100.582110710408
1504.043148100087 7040.133002389295
1504.8244699468742 7174.8998778691675
1505.6056017626997 7076.146025079413
1506.3865435986281 7067.401695695973
1507.1672955056893 7063.1724133169455
1507.9478575348967 7083.862393792582
1508.7282297372512 7269.637532346182
1509.5084121637192 6951.441223437857
1510.2884048652577 7081.692412056999
1511.0682078927948 7106.613474256368
1511.8478212972423 7022.806700725248
1512.6272451294917 6901.031147217512
1513.4064794404076 7062.671154312678
1514.1855242808433 6970.448677780732
1514.9643797016215 7023.078727687544
1515.743045753552 7031.255946263547
1516.5215224874191 7040.191532935663
1517.2998099539836 7037.895714881543
1518.077908203999 6992.2519984219225
1518.8558172881785 7032.410280742084
1519.633537257234 7016.402998713066
1520.4110681618404 6997.722576592819
1521.1884100526604 6924.949031966484
1521.9655629803365 6959.159942557113
1522.7425269954856 7003.827464189369
1523.5193021487103 7180.713377495624
1524.2958884905856 6933.778513184991
1525.0722860716687 6980.0082911165855
1525.848494942502 6966.674178867678
1526.624515153595 7000.471358963568
1527.4003467554485 7104.904922752923
1528.175989798534 7011.453988302268
1528.9514443333064 7059.940509193808
1529.726710410203 7065.306529098268
1530.5017880796331 6999.768686188026
1531.276677391992 6970.3793397505415
1532.0513783976457 7016.080322817924
1532.825891146953 7048.075887008327
1533.6002156902414 7096.021927635666
1534.3743520778207 6912.833540694335
1535.1483003599806 6973.084807482714
1535.9220605869923 6951.920119430031
1536.6956328091019 7072.805597498045
1537.4690170765407 6993.544307786983
1538.242213439511 7050.9863735374365
1539.015221948208 7076.572105888551
1539.78804265279 7135.2928469032195
1540.560675603405 7054.255146860715
1541.3331208501804 7077.339720876221
1542.1053784432224 6999.844409541142
1542.8774484326168 7119.3344804850085
1543.649330868422 7146.445440359838
1544.4210258006842 7088.668111786612
1545.1925332794308 7117.12924585766
1545.9638533546604 7086.695056482412
1546.7349860763552 7059.231802071689
1547.5059314944829 7206.824143215104
1548.27668965898 7045.7188169415485
1549.0472606197673 7195.436845334308
1549.817644426752 7052.454689916852
1550.5878411298072 7125.799518794313
1551.3578507787988 7096.639636977826
1552.1276734235635 7118.317884711476
1552.8973091139233 7138.753236398836
1553.6667578996767 7117.63396248216
1554.436019830604 7151.346732425691
1555.20509495646 7135.070671736843
1555.9739833269869 7054.603752248586
1556.7426849919011 7098.186501592068
1557.511200000903 7094.448021307551
1558.2795284036674 7045.90033445681
1559.0476702498509 7068.000046925222
1559.8156255890954 7035.556070697615
1560.5833944710157 7207.0421455209635
1561.3509769452048 7102.960112442335
1562.1183730612447 7098.499034168713
1562.8855828686865 7088.937736909774
1563.6526064170703 7144.22861255333
1564.4194437559127 7110.821933687948
1565.1860949347047 7207.117724281183
1565.9525600029283 7087.0624607910095
1566.7188390100328 7056.751689493557
1567.4849320054564 6988.916267010076
1568.250839038612 7056.357028255326
1569.0165601588997 7023.421963513569
1569.7820954156887 7052.240194360806
1570.5474448583373 6895.077476539298
1571.31260853618 6918.704244341668
1572.0775864985299 6899.19654992211
1572.8423787946813 7090.257734952926
1573.6069854739108 7114.451406268328
1574.371406585471 7072.175494018891
1575.1356421785986 7060.848117763584
1575.899692302506 6962.406363410735
1576.6635570063845 7058.549696663715
1577.4272363394157 6991.049750686533
1578.190730350747 6958.813363566153
1578.9540390895163 6940.874969809194
1579.7171626048384 6871.933521956375
1580.480100945806 6937.670757000496
1581.2428541614918 6915.433019854419
1582.0054223009538 6935.918700791114
1582.767805413223 6902.653855218241
1583.5300035473156 6920.184584621778
1584.292016752228 7086.887906281295
1585.0538450769309 6807.218160745622
1585.8154885703807 6893.684186863886
1586.5769472815136 6789.639288842229
1587.3382212592405 6972.668939734215
1588.099310552463 6984.903397467433
1588.8602152100484 6845.025219916572
1589.6209352808564 6902.674052423131
1590.3814708137234 6763.324579303073
1591.14182185746 6907.835684417187
1591.9019884608679 6927.473803703129
1592.6619706727215 6831.195636409873
1593.4217685417734 6950.167058328976
1594.1813821167616 6982.186642692616
1594.9408114464022 6863.777289580068
1595.7000565793933 6926.051356053162
1596.459117564409 6962.659441181166
1597.2179944501113 6887.038424088505
1597.9766872851324 6736.8137862070525
1598.735196118092 6955.266489862139
1599.4935209975883 7061.833468067906
1600.2516619721973 6925.063590277414
1601.0096190904787 6944.929500102752
1601.7673924009723 6870.704866891894
1602.524981952196 6809.604167431603
1603.2823877926476 6810.027963533548
1604.0396099708087 6856.019845770696
1604.7966485351371 6796.455251596679
1605.5535035340745 6909.769172577602
1606.3101750160404 6962.925537217993
1607.0666630294363 6932.543248725351
1607.822967622642 6815.796484425143
1608.5790888440224 6798.9289108335
1609.3350267419137 6970.2631002993485
1610.0907813646445 6801.599812952352
1610.8463527605145 6778.235262046101
1611.601740977805 6781.971200315971
1612.356946064785 6901.3249551706485
1613.1119680696902 6831.185182253219
1613.8668070407512 6880.9900241839905
1614.6214630261748 6792.208086446754
1615.375936074137 6858.934836740989
1616.1302262328118 6764.657595733552
1616.8843335503425 6833.14615953818
1617.638258074854 6688.708336064034
1618.391999854457 6857.494302890833
1619.1455589372363 6910.958987906687
1619.8989353712623 6755.931709306885
1620.65212920458 6755.312370344747
1621.4051404852235 6698.4382983194855
1622.1579692611976 6705.0275784428595
1622.9106155804966 6708.506142863749
1623.663079491087 6751.118085580146
1624.4153610409248 6753.072879965776
1625.1674602779385 6725.750262923955
1625.9193772500403 6774.44150061878
1626.6711120051277 6558.742814467121
1627.4226645910676 6553.101445052472
1628.174035055721 6499.215875212648
1628.9252234469168 6672.407195168739
1629.676229812474 6686.712409584805
1630.4270542001905 6635.173681318425
1631.1776966578382 6672.094440702544
1631.9281572331747 6644.245472691335
1632.678435973945 6769.774459247108
1633.4285329278573 6731.82496058766
1634.1784481426203 6610.929282026703
1634.9281816659113 6579.108166997231
1635.677733545388 6651.514713134352
1636.4271038286934 6574.576585781824
1637.176292563452 6744.195101491207
1637.9252997972635 6743.531203059475
1638.674125577716 6596.20271157719
1639.4227699523672 6652.433554308402
1640.171232968767 6635.098561312878
1640.9195146744423 6619.2343674621225
1641.6676151168977 6848.424771176539
1642.4155343436178 6731.208709801273
1643.1632724020765 6629.007698659693
1643.9108293397167 6669.826404166275
1644.658205203974 6712.70299276135
1645.4054000422566 6781.110444515645
1646.1524139019566 6566.242922986751
1646.8992468304423 6613.005755878983
1647.6458988750728 6732.859704175929
1648.3923700831765 6758.347739533996
1649.1386605020743 6813.257933071732
1649.8847701790564 6679.374217068897
1650.6306991614038 6827.45320133156
1651.3764474963682 6712.654465818121
1652.1220152311944 6568.436795762382
1652.867402413096 6788.37307247601
1653.6126090892776 6738.35941741194
1654.3576353069184 6849.578834829265
1655.1024811131829 6708.806548735038
1655.8471465552066 6668.909749902336
1656.5916316801213 6875.190811203621
1657.3359365350298 6652.7140898058715
1658.0800611670165 6652.966629796817
1658.824005623148 6580.9724223183675
1659.5677699504722 6621.843941077173
1660.3113541960192 6693.87871214573
1661.054758406799 6627.840063733964
1661.7979826297997 6524.216221205474
1662.5410269119966 6531.993868732015
1663.283891300338 6547.209294848706
1664.0265758417645 6589.630946289947
1664.7690805831826 6551.9382249506525
1665.5114055714948 6373.043454899465
1666.2535508535748 6491.330282769809
1666.9955164762814 6376.969438920695
1667.7373024864555 6454.761615119454
1668.478908930916 6473.250856356019
1669.220335856462 6410.339766333931
1669.9615833098778 6351.997960069721
1670.7026513379296 6331.118655102027
1671.44353998736 6276.106495387732
1672.1842493048916 6187.808964919203
1672.9247793372379 6201.701561845503
1673.6651301310812 6244.706613420462
1674.4053017330934 6178.421539913044
1675.1452941899242 6206.041924392039
1675.885107548207 6092.306567932731
1676.6247418545518 6107.921868938749
1677.3641971555535 6086.812740788177
1678.1034734977893 6027.960558091801
1678.8425709278108 6145.901954774593
1679.5814894921605 6059.503129981177
1680.320229237359 6069.661680211819
1681.0587902098978 5937.758356579728
1681.7971724562685 5964.623139569556
1682.5353760229264 5850.164230081641
1683.2734009563173 6032.567996781365
1684.0112473028657 5851.6169232810025
1684.7489151089794 5957.857274226059
1685.4864044210462 5913.425947289614
1686.2237152854377 5785.356883288555
1686.960847748498 5837.533104358379
1687.6978018565642 5770.646001246507
1688.434577655944 5758.273265128662
1689.1711751929379 5624.961299760145
1689.9075945138156 5722.355683136956
1690.6438356648396 5679.664000417514
1691.3798986922448 5610.5655454902
1692.1157836422499 5728.892056893225
1692.851490561059 5637.952347862031
1693.587019494853 5474.260104562261
1694.3223704897991 5516.373576533228
1695.0575435920364 5538.464133637084
1695.792538847696 5604.107884685402
1696.527356302886 5551.302634754672
1697.2619960036936 5409.937040357397
1697.9964579961907 5381.857578843743
1698.730742326432 5323.871805745851
1699.4648490404488 5323.039805726432
1700.1987781842563 5402.887608568143
1700.9325298038548 5329.773552870627
1701.6661039452174 5461.271388791911
1702.3995006543082 5441.951514578971
1703.1327199770658 5253.946089820101
1703.865761959416 5409.081127855911
1704.598626647261 5232.344372858546
1705.3313140864866 5279.340915356833
1706.0638243229587 5331.764611049243
1706.7961574025303 5199.328213509456
1707.528313371029 5206.065557390788
1708.260292274268 5213.347765659356
1708.9920941580403 5231.395111896744
1709.7237190681226 5110.0460063220335
1710.4551670502697 5087.348757522502
1711.18643815022 5107.319718748259
1711.9175324136959 5153.1517812633965
1712.6484498863938 5033.096599226795
1713.379190614005 5149.0523448686445
1714.109754642188 5133.3968474252715
1714.8401420165883 5106.982522297732
1715.570352782839 5358.95035518009
1716.3003869865497 4979.754821367263
1717.0302446733076 5154.896273971344
1717.7599258886876 5081.275951797142
1718.4894306782444 5154.420515014749
1719.2187590875183 4916.148159966381
1719.9479111620203 5100.478881014444
1720.6768869472544 4978.373930576831
1721.4056864887025 5159.350647912632
1722.1343098318284 5061.145056250267
1722.8627570220742 5033.296999815022
1723.591028104871 4992.585073030698
1724.3191231256242 4859.233187791504
1725.0470421297232 4903.59353363262
1725.7747851625427 5000.337619037101
1726.5023522694337 5031.298891567931
1727.2297434957363 4991.876622759807
1727.9569588867635 4726.058741315289
1728.6839984878152 4944.832805408433
1729.4108623441734 4880.368957178982
1730.1375505011038 5036.752996367498
1730.8640630038426 4829.841954547681
1731.5903998976264 4854.685588891049
1732.316561227657 4883.23266113917
1733.0425470391274 4847.135083640897
1733.7683573772065 4842.31965058945
1734.4939922870508 4795.743697072202
1735.2194518137949 4877.46029796694
1735.9447360025606 4740.552936177137
1736.669844898439 4811.861023188843
1737.3947785465189 4799.770811733684
1738.1195369918605 4629.146815044743
1738.8441202795093 4787.274993488188
1739.5685284544943 4874.902541077132
1740.292761561821 4846.774165497542
1741.0168196464838 4704.263189310837
1741.7407027534518 4837.356442993156
1742.464410927687 4714.530315318434
1743.187944214118 4786.572515087575
1743.9113026576688 4891.979907526257
1744.634486303241 4682.054553941898
1745.3574951957125 4650.536112493846
1746.0803293799509 4889.4329154749075
1746.8029889008048 4761.540092980197
1747.5254738031017 4653.631198583608
1748.2477841316504 4642.851477757459
1748.969919931249 4699.293975939684
1749.6918812466665 4660.68853949244
1750.4136681226646 4638.285271198696
1751.1352806039777 4842.217716928434
1751.856718735331 4519.890623728581
1752.5779825614281 4623.466598394003
1753.2990721269507 4680.777050476585
1754.0199874765676 4475.914751480833
1754.7407286549314 4606.41942524213
1755.4612957066693 4714.335498116131
1756.1816886763954 4649.456262028666
1756.9019076087097 4688.667638298217
1757.6219525481865 4642.126362730888
1758.3418235393856 4512.004263093064
1759.061520626854 4675.786626434936
1759.7810438551096 4518.175020356239
1760.5003932686614 4509.233588900479
1761.2195689119999 4417.952845389363
1761.938570829594 4701.0089451605845
1762.657399065898 4647.850002713979
1763.376053665348 4611.44357885816
1764.0945346723602 4545.485884099091
1764.812842131334 4647.342040007512
1765.5309760866512 4507.174473206481
1766.2489365826787 4538.038431485099
1766.9667236637597 4405.104761456979
1767.684337374223 4486.088518525839
1768.401777758383 4478.0973097453
1769.1190448605284 4558.091823067332
1769.836138724937 4466.506675518095
1770.5530593958665 4513.600745156853
1771.2698069175603 4479.821340938171
1771.9863813342326 4711.359832402274
1772.702782690094 4545.331779187251
1773.4190110293293 4665.396602245262
1774.1350663961111 4440.887957361857
1774.8509488345844 4506.022904043034
1775.5666583888924 4513.425796116843
1776.2821951031437 4557.36337829878
1776.9975590214362 4546.088501153551
1777.7127501878585 4543.6550902910085
1778.4277686464684 4476.521219839438
1779.1426144413108 4539.372111113805
1779.8572876164162 4445.408497672191
1780.571788215797 4324.261135354254
1781.2861162834415 4538.987014752058
1782.0002718633277 4515.351986433978
1782.7142549994132 4487.623743571255
1783.4280657356376 4414.545964643603
1784.141704115922 4498.362294707168
1784.855170184177 4474.62759375072
1785.5684639842839 4335.830385851442
1786.2815855601148 4300.140672219156
1786.9945349555237 4503.865823855567
1787.707312214343 4401.978572733825
1788.4199173803918 4476.080821725012
1789.132350497468 4334.943935958801
1789.8446116093583 4461.049769017178
1790.556700759822 4494.267978003569
1791.2686179926077 4504.958094692818
1791.9803633514493 4352.829049577593
1792.6919368800554 4381.352356993919
1793.4033386221236 4364.129071787714
1794.1145686213295 4546.998670327103
1794.8256269213307 4366.093356562449
1795.536513565774 4375.588738078188
1796.247228598284 4273.5850780123055
1796.9577720624693 4394.568193046331
1797.6681440019165 4381.822752964306
1798.3783444602013 4365.62851255208
1799.0883734808776 4314.645954614433
1799.7982311074884 4287.221433407401
1800.5079173835475 4471.413456954088
1801.2174323525633 4450.96003964143
1801.9267760580187 4458.300969242926
1802.635948543386 4347.262915975904
1803.3449498521113 4226.007975224751
1804.0537800276325 4250.141571091533
1804.7624391133668 4300.784523764947
1805.47092715271 4202.410153470666
1806.1792441890484 4271.470680814219
1806.8873902657433 4246.164552407742
1807.5953654261448 4354.586584462585
1808.3031697135812 4341.103572987927
1809.0108031713662 4224.499483374208
1809.71826584279 4261.545044222889
1810.425557771141 4353.4264156153495
1811.1326789996747 4245.272204032061
1811.839629571632 4260.110605648792
1812.5464095302468 4290.579769463532
1813.2530189187182 4131.518362570846
1813.959457780249 4336.082532687742
1814.6657261580076 4327.020194225248
1815.371824095153 4322.987089180052
1816.0777516348262 4246.340909316748
1816.78350882015 4111.223621384905
1817.4890956942272 4204.482315432046
1818.1945123001533 4223.486243137051
1818.8997586809928 4203.233207924244
1819.6048348798067 4138.563703622041
1820.3097409396287 4236.37856657369
1821.0144769034796 4250.269543073805
1821.7190428143622 4167.452323716932
1822.423438715261 4169.108237833272
1823.1276646491478 4095.789910698147
1823.8317206589727 4222.981149430812
1824.5356067876692 4241.695461718247
1825.2393230781581 4183.83875672483
1825.942869573335 4126.737996967449
1826.646246316086 4167.981592767621
1827.3494533492758 4092.3851459622515
1828.052490715756 4329.730096953033
1828.7553584583547 4216.450051619286
1829.458056619891 4245.4611466777405
1830.1605852431585 4115.530385858705
1830.8629443709433 4226.556264203284
1831.5651340460063 4131.449930683008
1832.2671543110919 3960.6205390987902
1832.9690052089318 4174.457260363843
1833.6706867822395 4156.773201719574
1834.3721990737104 4120.037752892924
1835.0735421260233 4270.583782471155
1835.774715981841 4109.087874944335
1836.4757206838058 4109.9451039688765
1837.1765562745459 4117.843252283812
1837.8772227966747 4143.134107748248
1838.5777202927839 4120.312034940954
1839.2780488054523 4089.840632847413
1839.9782083772352 4164.237156068988
1840.6781990506806 4146.452928222118
1841.378020868313 4002.529585836167
1842.0776738726418 4246.576603366818
1842.777158106157 4164.51942014782
1843.4764736113375 4092.4979847777017
1844.1756204306403 4139.574026330483
1844.8745986065078 3927.6151076265282
1845.5734081813607 3997.9449987727576
1846.2720491976124 4100.602608770028
1846.970521697649 3869.7902939163987
1847.6688257238511 4182.413687363307
1848.3669613185684 4101.079607482332
1849.0649285241452 3965.455655823469
1849.7627273829057 4125.218515193517
1850.460357937156 4022.3890039320927
1851.1578202291857 4007.340791058216
1851.8551143012664 4067.146670714338
1852.5522401956569 4090.758672151484
1853.2491979545957 4052.3748227587776
1853.9459876203055 4020.7824360181244
1854.6426092349902 3882.132349507323
1855.3390628408451 3912.8448246911707
1856.0353484800362 4044.9149878136022
1856.7314661947203 4098.86913402799
1857.4274160270397 4037.250115586094
1858.123198019115 3859.718083427479
1858.8188122130487 3961.4360967014195
1859.5142586509319 3973.211267917559
1860.209537374838 3985.842153008379
1860.9046484268183 4005.386323511182
1861.599591848917 3896.4301485652204
1862.294367683151 4023.5643615128015
1862.988975971528 3919.5565859234475
1863.6834167560355 3831.011498685993
1864.3776900786452 4006.9779573392466
1865.0717959813119 3963.638286340893
1865.7657345059724 3851.4092910607833
1866.4595056945564 4041.87310394843
1867.1531095889586 3995.256903253282
1867.846546231076 3898.894583945543
1868.5398156627743 4008.908843998812
1869.2329179259123 3831.1531095094006
1869.9258530623283 3965.876614821952
1870.618621113843 4009.5495324092562
1871.3112221222636 3982.0863177256115
1872.0036561293764 3842.032929553478
1872.695923176956 4007.552419807019
1873.3880233067594 3910.2763824836998
1874.0799565605212 3772.377296019189
1874.7717229799673 3997.2802432323565
1875.4633226068036 3934.3097115873234
1876.1547554827175 4004.55119681192
1876.8460216493859 3870.052501921042
1877.5371211484617 3983.6821158506064
1878.2280540215852 3900.2176597627085
1878.9188203103804 3783.8060512110374
1879.6094200564548 3961.294001527103
1880.299853301396 3806.530250450488
1880.9901200867826 3905.2390619534863
1881.6802204541673 3984.518140412509
1882.3701544450942 3882.5807130158246
1883.059922101087 3762.6511665211233
1883.7495234636517 4001.092227904251
1884.4389585742792 3815.0544416936305
1885.1282274744517 3969.98273914136
1885.8173302056166 4030.58191529334
1886.506266809225 3840.5515143550074
1887.195037326701 3795.8423884755903
1887.8836417994517 3864.6080945627787
1888.5720802688702 3806.5983355979456
1889.260352776333 3779.0152497208537
1889.9484593632042 3904.6040080020466
1890.63640007082 3875.436991938127
1891.3241749405151 3808.6236119388027
1892.0117840135954 3897.9448450578684
1892.6992273313572 3795.1864467534097
1893.3865049350788 3844.1838578840507
1894.0736168660223 3795.0982357923385
1894.7605631654333 3793.5281292203704
1895.4473438745408 3696.247802817051
1896.133959034556 3971.9890595631464
1896.820408686679 3969.0625885368754
1897.506692872088 3756.522187494702
1898.192811631945 3765.003586548558
1898.8787650073991 3890.1468343899833
1899.5645530395832 3937.779341994031
1900.2501757696118 3825.4769500353104
1900.9356332385796 3781.219715291357
1901.620925487574 3836.003183064291
1902.3060525576602 3818.593217313989
1902.9910144898859 3800.510570146596
1903.6758113252872 3704.4265346265843
1904.3604431048789 3818.5421998952975
1905.0449098696663 3766.255801937436
1905.7292116606295 3765.873274046823
1906.4133485187394 3746.296297763897
1907.0973204849488 3657.131556197624
1907.7811276001976 3632.6725525672214
1908.4647699053967 3650.1780586533846
1909.1482474414588 3240.2375801869207
1909.8315602492694 3604.9599656198757
1910.5147083696957 3640.332787943292
1911.1976918436012 3739.0105222371203
1911.880510711815 3751.1613635374183
1912.5631650151681 3748.438552530503
1913.2456547944657 3713.3543182985895
1913.927980090495 3850.621069280334
1914.6101409440362 3824.7394385607417
1915.2921373958416 3820.0987659098464
1915.9739694866603 3852.482596945699
1916.655637257214 3679.6491022645014
1917.3371407482136 3737.0526246710747
1918.0184800003572 3838.9746521673833
1918.6996550543154 3553.476378992803
1919.3806659507554 3708.0337964375917
1920.0615127303208 3657.470547385567
1920.7421954336423 3667.957776553475
1921.4227141013343 3795.399923787918
1922.103068773993 3770.4402080091504
1922.783259492202 3719.4552859970295
1923.4632862965227 3589.4298374202103
1924.1431492275078 3750.0023813746725
1924.8228483256917 3647.2299867221373
1925.5023836315922 3613.5082283860183
1926.1817551857057 3477.211099375601
1926.8609630285227 3807.9017752223035
1927.5400072005123 3805.5348975693887
1928.218887742125 3588.138649802968
1928.8976046938005 3589.741711585453
1929.5761580959588 3736.9249446394547
1930.2545479890086 3618.088840880876
1930.9327744133352 3449.3559946623805
1931.6108374093164 3636.908020261412
1932.2887370173066 3549.84432038097
1932.9664732776473 3558.6873654150163
1933.6440462306673 3703.3784333165486
1934.3214559166754 3574.1427142053835
1934.9987023759659 3590.226800415475
1935.675785648813 3594.912297491335
1936.3527057754836 3535.126594391494
1937.029462796223 3815.0497020825933
1937.70605675126 3625.323782854937
1938.3824876808085 3655.0084771682464
1939.058755625072 3677.2206932800536
1939.7348606242267 3673.8008177693323
1940.4108027184448 3663.7188806416684
1941.0865819478713 3614.429602102459
1941.7621983526478 3667.370669361172
1942.4376519728921 3421.5711884511984
1943.1129428487038 3561.5707157334364
1943.7880710201734 3584.6929246494446
1944.4630365273733 3601.0360314560153
1945.1378394103576 3556.6906007888683
1945.8124797091714 3636.34946603153
1946.4869574638324 3393.1516587771657
1947.161272714353 3526.6053921157786
1947.8354255007234 3581.037647951126
1948.5094158629272 3635.505488591383
1949.1832438409183 3589.4336173609845
1949.8569094746435 3733.0469472864847
1950.530412804037 3722.8167644408254
1951.2037538690092 3660.1778133600747
1951.8769327094578 3574.0782746543564
1952.5499493652678 3474.1329970353604
1953.222803876306 3629.632096032946
1953.895496282421 3613.9262407126553
1954.5680266234522 3465.556282472443
1955.2403949392155 3616.0182228678373
1955.9126012695142 3643.694856007921
1956.5846456541403 3419.6209053040307
1957.2565281328643 3460.891676874652
1957.9282487454457 3561.9284233730054
1958.5998075316202 3468.6735530225233
1959.27120453112 3371.5099030232705
1959.9424397836501 3683.657492689621
1960.613513328908 3561.1844036638295
1961.2844252065697 3623.87596833235
1961.9551754563017 3328.2566192294507
1962.6257641177453 3452.508350015828
1963.29619123054 3377.208676157442
1963.966456834296 3461.9752187338695
1964.6365609686181 3490.6101465962324
1965.306503673086 3668.8468078221713
1965.976284987275 3559.4641288003004
1966.645904950734 3483.38583285358
1967.315363603002 3289.7425408483396
1967.9846609836077 3527.9551304382344
1968.6537971320486 3482.891039186332
1969.3227720878222 3532.4356347617677
1969.9915858904042 3343.904024114544
1970.660238579252 3416.1635793577916
1971.3287301938108 3546.0168805346016
1971.997060773514 3607.099703172747
1972.665230357772 3497.4965671412356
1973.3332389859843 3424.787361159151
1974.0010866975335 3458.317475276074
1974.6687735317864 3549.606915251862
1975.3362995280932 3564.6072841759146
1976.003664725793 3440.368936030468
1976.6708691642052 3462.862732048847
1977.3379128826364 3375.6552146791714
1978.004795920373 3557.937544750674
1978.6715183166925 3413.52752484425
1979.3380801108524 3348.6861443319335
1980.0044813420973 3429.483386857634
1980.6707220496555 3512.5744383196993
1981.3368022727373 3583.0651894892385
1982.0027220505417 3389.0696279415124
1982.66848142225 3316.0646277088795
1983.3340804270283 3355.2984903518254
1983.999519104027 3339.6052148387766
1984.6647974923835 3409.2177634529676
1985.329915631215 3298.1286486807685
1985.99487355963 3304.355920713408
1986.6596713167146 3539.9068204222385
1987.3243089415428 3322.457477028255
1987.9887864731754 3504.772743387214
1988.6531039506553 3322.0899941151583
1989.3172614130071 3624.8602381846495
1989.9812588992481 3365.2234537046907
1990.645096448372 3222.5385696867957
1991.3087740993633 3310.516221131768
1991.9722918911848 3189.918609055586
1992.635649862792 3451.579441963678
1993.2988480531185 3526.9682827203956
1993.9618865010852 3368.8464201636307
1994.6247652455968 3371.3139074319647
1995.287484325545 3499.2451329590103
1995.9500437798033 3280.923490872744
1996.6124436472292 3335.83718844906
1997.2746839666706 3424.6877321578154
1997.936764776954 3291.7062794989624
1998.598686116895 3314.1082631002173
1999.2604480252903 3286.2179026750587
1999.9220505409212 3523.1041088104403
2000.5834937025593 3185.597365515229
2001.2447775489582 3212.520976502983
2001.9059021188514 3345.3469597441945
2002.5668674509616 3310.0608207705504
2003.2276735839987 3129.981840710996
2003.8883205566508 3393.441640786214
2004.5488084075987 3287.2493880672796
2005.2091371755014 3411.512435349913
2005.8693068990033 3187.3975628799903
2006.5293176167397 3424.0024694526137
2007.1891693673224 3219.7768593901465
2007.848862189354 3163.8203824982434
2008.5083961214223 3233.696772288912
2009.1677712020955 3269.647686304162
2009.8269874699254 3301.736480180613
2010.4860449634598 3370.59082475608
2011.1449437212177 3184.089883207023
2011.8036837817108 3431.0369421184005
2012.4622651834325 3247.588128300606
2013.1206879648653 3322.6741931147617
2013.7789521644736 3386.520680888653
2014.4370578207036 3168.769518770289
2015.0950049719922 3249.4059485443754
2015.7527936567585 3389.2669170515774
2016.4104239134067 3170.299754070197
2017.067895780323 3411.774803751045
2017.725209295886 3248.138828850891
2018.3823644984514 3146.5503870710154
2019.0393614263648 3281.4850811422266
2019.6962001179545 3178.497384028209
2020.3528806115355 3128.474098243892
2021.0094029454067 3347.0854513080035
2021.6657671578487 3259.851244415386
2022.321973287133 3181.04029782185
2022.9780213715148 3229.597151172932
2023.6339114492293 3203.3953852190766
2024.2896435585026 3276.1429613909418
2024.9452177375442 3211.55226125468
2025.600634024544 3261.1458477119186
2026.2558924576842 3310.979984130926
2026.9109930751292 3326.417441274717
2027.565935915025 3318.065043901456
2028.2207210155066 3366.079694375529
2028.8753484146964 3308.7176785183015
2029.529818150695 3017.9926504225464
2030.1841302615903 3188.5845532844824
2030.8382847854573 3108.1953312631463
2031.4922817603601 3217.5751339335125
2032.1461212243357 3250.197294899205
2032.7998032154192 3193.664580497147
2033.4533277716218 3178.322667330979
2034.1066949309443 3265.8745024858717
2034.7599047313688 3177.347872432117
2035.4129572108704 3176.5249816129235
2036.0658524074006 3166.805996254167
2036.7185903589016 3251.89213120497
2037.3711711032956 3296.4478486535068
2038.023594678496 3287.233738209861
2038.675861122394 2967.786111369794
2039.3279704728757 3344.9752081279985
2039.9799227678031 3105.2575395156514
2040.6317180450278 3285.4882723398405
2041.2833563423865 3130.913834562292
2041.9348376977014 3348.3985192061728
2042.5861621487784 3253.4620984276103
2043.2373297334088 3125.745392043494
2043.8883404893695 3273.0653033027493
2044.5391944544208 3232.7375273909274
2045.1898916663158 3175.2387092260533
2045.8404321627804 3362.3464741218436
2046.4908159815368 3167.667830945464
2047.1410431602853 3125.9467440678773
2047.7911137367173 3198.293268627327
2048.441027748504 3197.657518646567
2049.090785233302 3242.9015371994406
2049.7403862287592 3142.2087906948896
2050.389830772503 3323.3146202374746
2051.0391189021466 3127.1889516553306
2051.688250655294 3168.203132555993
2052.337226069527 3114.989960819977
2052.986045182417 3150.8759337552683
2053.634708031521 3062.041669027006
2054.283214654375 3249.4687646525617
2054.931565088511 3028.8948903433075
2055.579759371436 3113.977432542212
2056.2277975406523 3202.4430653649547
2056.8756796336384 3149.3758567854766
2057.5234056878617 2960.022852742695
2058.1709757407752 3261.4578456207864
2058.8183898298194 3141.331463274569
2059.465647992416 3154.469152905638
2060.1127502659747 3244.417347588628
2060.759696687888 3039.6504391751905
2061.4064872955405 3180.5232738122127
2062.053122126292 3239.9495367326263
2062.699601217497 2976.4842563203997
2063.345924606485 3083.907650990108
2063.992092330587 3103.0950075598726
2064.638104427102 3247.2629502335194
2065.283960933324 3212.249706532547
2065.92966188653 2950.0976903625015
2066.5752073239855 3243.379128450697
2067.2205972829397 3050.4052342671994
2067.86583180062 3090.420078394157
2068.5109109142522 3199.9115282577677
2069.15583466104 3215.0577744879047
2069.8006030781708 3029.787230899873
2070.445216202821 2744.067636547613
2071.089674072153 3146.545947351145
2071.7339767233116 3118.324258220129
2072.3781241934303 3091.2425416300966
2073.0221165196253 3181.771105075869
2073.6659537390024 3100.0500674168775
2074.3096358886505 3033.2149442843292
2074.953163005637 3273.991521889858
2075.596535127028 2828.692696764211
2076.2397522898664 3019.40030938563
2076.882814531182 2977.8146853835633
2077.5257218879924 3187.2077496537436
2078.1684743973 3058.4714504809435
2078.8110720960885 2911.162861882724
2079.453515021336 3219.5341424401518
2080.095803209997 3080.035314505647
2080.7379366990135 3139.1767908989577
2081.37991552532 3195.998018546813
2082.0217397258275 3003.0993905273344
2082.6634093374414 2996.579119728218
2083.3049243970418 2931.4180536802487
2083.9462849415067 2926.3243715270632
2084.587491007689 3213.3205146296705
2085.2285426324324 2999.93099295685
2085.869439852564 3093.7257978431708
2086.510182704902 2878.994881364023
2087.1507712262483 2920.8640595787538
2087.791205453381 2931.4703495940103
2088.4314854230743 2913.041986724772
2089.0716111720867 3166.0745892390632
2089.7115827371617 2920.1687198460354
2090.351400155023 3063.3347244858023
2090.991063462385 3108.0197286819084
2091.6305726959527 2941.017595738594
2092.2699278924047 3061.7668421225885
2092.9091290884153 3004.3373882226306
2093.548176320641 2971.386833506213
2094.187069625721 3000.3748871985604
2094.8258090402887 2873.706366129402
2095.464394600951 2985.8727505784227
2096.102826344313 3033.755545804731
2096.741104306955 3191.0115767862126
2097.379228525453 2920.5555383918063
2098.017199036358 2933.2232835391474
2098.6550158762147 3112.07286964005
2099.2926790815527 2998.6652358187857
2099.9301886888825 2886.142480042038
2100.5675447347076 3151.7191818985516
2101.2047472555114 2986.975785559351
2101.841796287761 2947.493092671018
2102.47869186792 2961.3187563644733
2103.1154340324265 3015.581902059943
2103.752022817709 2905.9320456553423
2104.388458260184 2976.9575889053467
2105.024740396251 2980.261601748794
2105.660869262292 2989.576258732341
2106.296844894685 2945.2278786622437
2106.93266732978 3006.053831866539
2107.5683366039284 2992.888033701968
2108.2038527534532 2966.579572463014
2108.8392158146726 2949.864338524231
2109.4744258238843 3085.742612806039
2110.1094828173755 2833.458329391271
2110.744386831422 2928.673124928038
2111.3791379022787 2959.055630673841
2112.01373606619 3039.0622040315675
2112.648181359389 3228.1021980974438
2113.28247381809 2961.0805754304006
2113.916613478492 3095.7757021637494
2114.550600376786 2990.301818661647
2115.1844345491445 2801.7674135949796
2115.818116031729 2980.0606451768463
2116.451644860679 2867.4808005060445
2117.085021072133 2861.7992494432956
2117.718244702204 2720.511222646128
2118.3513157869984 2827.9832225836985
2118.984234362604 2898.8387060766977
2119.617000465092 3105.493451638084
2120.249614130529 3011.2155966501355
2120.8820753949585 3000.115836647358
2121.5143842944162 2882.407395736597
2122.14654086492 2871.4752975966207
2122.7785451424734 2984.8950933356473
2123.4103971630702 2771.7178140021524
2124.042096962681 2845.287669657735
2124.6736445772767 2988.354983946935
2125.305040042802 2740.5270056686786
2125.936283395191 2818.444091335959
2126.567374670365 2895.185271054611
2127.198313904233 2599.977537550584
2127.8291011326855 3100.476458827971
2128.4597363916037 2833.980271435555
2129.0902197168507 2722.0779556773678
2129.720551144279 2879.738757299385
2130.3507307097225 2896.7181563445347
2130.980758449008 2854.970056187535
2131.6106343979427 2886.57041546572
2132.2403585923203 2984.1655729040767
2132.8699310679276 2734.8213462216145
2133.499351860526 2913.439980501945
2134.1286210058715 2803.679457512027
2134.7577385397053 2702.635401762148
2135.3867044977487 2930.492071816752
2136.0155189157176 2916.04733470876
2136.644181829308 2836.66295869605
2137.2726932742025 2866.355635490174
2137.901053286074 2857.3712876361415
2138.5292619005777 2817.1153676522504
2139.1573191533535 2687.6812515823976
2139.7852250800315 2940.3237161462266
2140.4129797162295 2876.330148961508
2141.0405830975433 2739.1999711671124
2141.6680352595613 2801.069580556788
2142.2953362378576 2898.429572193293
2142.9224860679915 2729.434036893467
2143.549484785508 2866.1528244782016
2144.1763324259373 2813.244530239238
2144.803029024799 2685.39897597164
2145.429574617594 2587.6202523134657
2146.0559692398165 2984.4920147467315
2146.682212926942 2693.312931456016
2147.308305714432 2845.0931476870205
2147.9342476377333 2878.6222218516214
2148.5600387322847 2926.1152594747264
2149.185679033506 2972.4511709586654
2149.8111685768017 2699.215655404899
2150.4365073975678 2705.0848036177426
2151.061695531187 2895.0323193612653
2151.686733013021 2918.258655976576
2152.311619878423 3075.9939417700543
2152.9363561627342 2499.318786913708
2153.560941901278 2510.804210691933
2154.1853771293663 2642.6527351083764
2154.809661882293 2658.8861165248636
2155.433796195348 2983.0559593501193
2156.0577801037944 2700.6531620747132
2156.681613642895 2605.4140577913263
2157.3052968478896 2504.7939757062986
2157.928829754006 2911.015094178281
2158.552212396462 2858.1176892967105
2159.1754448104566 2747.4269511668344
2159.7985270311783 2657.506679794723
2160.4214590938027 2569.0372094971412
2161.0442410334927 2581.3436647260824
2161.6668728853874 2808.267348904879
2162.289354684628 2680.2360369977496
2162.911686466332 2768.078473993405
2163.533868265602 2871.5705687470977
2164.1559001175337 2631.669392572844
2164.7777820572046 2823.2105676632973
2165.399514119681 2848.7947392952965
2166.021096340013 2711.9877821358186
2166.6425287532384 2941.6854933535815
2167.263811394385 2653.9988835174554
2167.8849442984574 2872.71003297113
2168.505927500455 2704.8876817697
2169.126761035366 2795.4653789566632
2169.7474449381552 2699.6278185459764
2170.367979243778 2755.557908043614
2170.9883639871823 2759.333734812349
2171.608599203293 2465.23336483163
2172.2286849270276 2707.7796341410995
2172.8486211932886 2642.956169649742
2173.4684080369625 2846.656629683336
2174.0880454929265 2653.671413167223
2174.7075335960417 2490.5373090866146
2175.3268723811543 2709.2245052727258
2175.9460618831 2629.2197222772825
2176.565102136701 2827.520948019166
2177.1839931767627 2657.3036519422826
2177.802735038078 2682.105509959442
2178.421327755432 2697.6488611327522
2179.0397713635866 2722.5120843677732
2179.658065897298 2764.690494787808
2180.276211391305 2434.007224525777
2180.8942078803357 2514.4711339409773
2181.5120553991 2550.813579895049
2182.129753982299 2495.9956943514635
2182.7473036646206 2616.9212048181926
2183.3647044807367 2683.0854806427096
2183.9819564653044 2481.745873071933
2184.599059652968 2711.103100208363
2185.216014078367 2632.1730093776077
2185.832819776113 2509.774399552933
2186.4494767808137 2773.625011486287
2187.065985127063 2652.0801714006693
2187.682344849436 2637.060048512476
2188.298555982501 2712.6331353960636
2188.9146185608097 2499.0925689796245
2189.530532618901 2867.8254390679417
2190.1462981912937 2785.8646684636774
2190.761915312507 2683.4505248284177
2191.377384017036 2593.2288176401335
2191.9927043393654 2497.511815813458
2192.6078763139667 2448.0984841620657
2193.2228999753006 2735.9658957677293
2193.837775357808 2711.413639360385
2194.452502495922 2478.813654654916
2195.0670814240602 2727.903902450923
2195.6815121766285 2285.0190354422675
2196.2957947880186 2723.7996327043275
2196.9099292926057 2369.321968044415
2197.523915724758 2633.0815821108454
2198.137754118825 2473.4098963781435
2198.7514445091456 2680.1336101600627
2199.3649869300443 2509.331342317443
2199.9783814158327 2842.511744204132
2200.5916280008096 2711.809794859232
2201.2047267192593 2758.124909814571
2201.8176776054515 2604.9017879642647
2202.430480693649 2447.1551023494826
2203.0431360180955 2835.424988468373
2203.6556436130195 2634.5140336530862
2204.268003512645 2462.428574600805
2204.8802157511727 2560.797090634361
2205.492280362796 2764.405753308344
2206.1041973816937 2559.8671236294663
2206.715966842032 2490.7184667757824
2207.3275887779655 2571.479803718765
2207.93906322363 2581.911536727921
2208.550390213153 2473.7622692403047
2209.1615697806465 2579.124247617264
2209.7726019602105 2663.134940533266
2210.3834867859277 2601.4771687046773
2210.9942242918787 2423.603073873516
2211.6048145121167 2676.169829506028
2212.2152574806914 2730.984609608021
2212.825553231638 2669.9445823450765
2213.435701798975 2753.304236373645
2214.045703216707 2538.4087343384135
2214.655557518832 2391.559983325858
2215.2652647393297 2483.01084928694
2215.874824912169 2352.1882231928835
2216.4842380713 2427.3733437837295
2217.09350425067 2359.2451541992627
2217.7026234842033 2642.844339508608
2218.311595805819 2472.1760217735236
2218.9204212494133 2458.0261712643596
2219.52909984888 2452.250820171494
2220.137631638092 2356.1224391130154
2220.7460166509154 2680.794420602599
2221.354254921198 2582.990978878185
2221.9623464827764 2667.2056520513624
2222.5702913694713 2580.61372658315
2223.178089615096 2634.777499550864
2223.7857412534486 2566.7115768678173
2224.39324631831 2247.8505882139552
2225.000604843457 2582.9396081181435
2225.607816862641 2527.4367682039688
2226.214882409611 2311.3859880397254
2226.8218015180973 2671.514525002024
2227.4285742218217 2524.3090798712915
2228.0352005544864 2395.5748050319035
2228.6416805497847 2538.7844341111027
2229.248014241399 2487.9669323002863
2229.8542016629945 2463.190474950136
2230.460242848223 2479.0379052357757
2231.0661378307304 2600.9057430510175
2231.671886644139 2571.9912383788464
2232.277489322065 2367.299602645451
2232.8829458981127 2396.435958810893
2233.48825640587 2400.8925984806347
2234.0934208789095 2628.0862392268155
2234.6984393507955 2522.0571293625726
2235.3033118550793 2322.659003661648
2235.9080384252975 2563.5846427022707
2236.5126190949723 2584.532887249332
2237.1170538976166 2462.4134139378884
2237.721342866729 2369.3824047857524
2238.32548603579 2380.103066475427
2238.9294834382763 2361.5220553687986
2239.533335107646 2600.8464917982374
2240.1370410773434 2318.312118434803
2240.740601380803 2311.3159625372373
2241.3440160514474 2589.354566906336
2241.9472851226783 2716.436354314493
2242.550408627896 2431.725846257922
2243.1533866004793 2613.4705304085755
2243.756219073799 2288.4741613004517
2244.3589060812064 2123.760325796069
2244.961447656049 2434.297067603845
2245.5638438316564 2560.691815391826
2246.166094641343 2418.1247489011703
2246.7682001184166 2444.1706399809163
2247.3701602961664 2322.0664605220823
2247.971975207871 2533.5891367881354
2248.5736448867974 2132.0492563491052
2249.175169366197 2178.633564310265
2249.7765486793123 2454.325614330411
2250.3777828593684 2487.578060721128
2250.9788719395783 2408.9444149475103
2251.579815953146 2424.0143556519847
2252.1806149332606 2316.6298001178525
2252.781268913097 2524.107033048942
2253.381777925817 2379.2111783439846
2253.9821420045737 2533.1418654022914
2254.5823611825035 2263.965039134814
2255.1824354927303 2448.0459997053485
2255.782364968365 2292.422653008157
2256.38214964251 2136.6553444029314
2256.9817895482483 2240.245514161957
2257.5812847186553 2381.5999253736854
2258.180635186791 2502.226080925347
2258.779840985704 2459.2311962306785
2259.37890214843 2270.2387762766
2259.97781870799 2267.738426494157
2260.5765906973957 2295.4065636161763
2261.175218149645 2496.6569628563334
2261.773701097718 2251.1462331533817
2262.3720395745895 2151.7839279489517
2262.970233613216 2152.032662469078
2263.568283246548 2476.215646752792
2264.1661885075137 2282.5851738875494
2264.763949429038 2241.748067232834
2265.3615660440246 2291.8572043924887
2265.959038385374 2158.3193277630353
2266.5563664859637 2396.925312821734
2267.153550378669 2410.9425885098253
2267.7505900963424 2326.213918316028
2268.3474856718312 2337.472200228244
2268.9442371379664 2425.1492140940804
2269.5408445275643 2354.3814588576097
2270.1373078734377 2459.2598986627795
2270.7336272083758 2036.6377217148681
2271.32980256516 2234.7964036964277
2271.925833976562 2298.421475876642
2272.5217214753357 2402.017473186873
2273.117465094223 2143.2939695484356
2273.7130648659586 2242.2565557265248
2274.308520823257 2315.2385026237635
2274.903832998827 2363.7090298839184
2275.4990014253563 2022.1455124087759
2276.094026135528 2471.650508206626
2276.6889071620117 2334.882165338099
2277.2836445374614 2295.1710177703744
2277.878238294519 2264.551328679391
2278.472688465812 2207.4520091935346
2279.066995083962 2041.7091690942423
2279.6611581815705 2134.7036599991425
2280.255177791232 2383.0809756801536
2280.8490539455233 2341.4784679514323
2281.442786677013 2472.511321284027
2282.0363760182554 2596.1654973710124
2282.6298220017943 2190.654687068803
2283.223124660155 2375.39974851044
2283.816284025859 2301.5527312320473
2284.4093001314086 2308.8972890775767
2285.002173009292 2356.9878329020926
2285.5949026919952 2474.112469303879
2286.1874892119777 2375.0342407017406
2286.7799326016993 2449.899734362087
2287.3722328936 2342.45975469196
2287.964390120109 2168.562909343748
2288.556404313642 2250.8449188535624
2289.1482755066027 2213.355113420406
2289.7400037313873 2431.2205633019944
2290.3315890203703 2131.640336513165
2290.9230314059205 2181.5157919713906
2291.5143309203904 2231.539954685965
2292.1054875961236 2284.12943080482
2292.6965014654506 2457.3260265980257
2293.287372560684 2286.957642788165
2293.878100914131 2354.4332237022204
2294.468686558086 2210.8093795180403
2295.059129524827 2154.3949222559922
2295.649429846617 2459.3033528907754
2296.239587555716 1966.176359827617
2296.8296026843636 2355.9253079604996
2297.419475264791 2286.3155907129485
2298.0092053292137 2230.8222348451327
2298.598792909839 2362.2890173349765
2299.1882380388597 2234.4132456297743
2299.777540748455 2120.6192685550095
2300.3667010707904 2417.002767827299
2300.9557190380256 2206.6474940917096
2301.544594682302 2191.798791762997
2302.1333280357503 1993.8103540985564
2302.721919130485 2330.7518195571934
2303.3103679986198 2332.1703996597726
2303.898674672242 2454.4902921095213
2304.486839183437 2218.177491027179
2305.0748615642697 2229.941168350065
2305.6627418468015 2167.721703553723
2306.2504800630704 2000.5184528634768
2306.8380762451143 2274.494441798998
2307.425530424949 1906.3452014580257
2308.012842634582 2438.564592828304
2308.6000129060103 2356.9525429601917
2309.187041271214 2047.716085380362
2309.773927762164 2152.559178214298
2310.3606724108213 2205.5948047362845
2310.9472752491274 1989.7966521406056
2311.5337363090184 2178.3496225397585
2312.120055622414 2107.5107868421173
2312.706233221221 2254.1522904497037
2313.2922691373424 2001.3367120255275
2313.8781634026564 2084.1797064380426
2314.463916049037 2303.521683532018
2315.049527108342 2002.0561323666384
2315.6349966124235 2267.849087464342
2316.2203245931123 2148.508618993594
2316.8055110822315 2231.8151070796384
2317.3905561115935 2292.137821582507
2317.9754597129977 2031.7197446248542
2318.560221918229 2355.219201351674
2319.1448427590603 1978.3140678614818
2319.729322267256 2226.2849276624643
2320.313660474563 1929.939556743643
2320.8978574127195 2285.1746917862793
2321.481913113452 2471.523818615041
2322.0658276084705 2303.114823557607
2322.6496009294806 1932.1265861572501
2323.233233108165 2122.2679880864043
2323.8167241762058 1805.2351418822273
2324.4000741652617 2004.003357966899
2324.983283106987 2018.365855824226
2325.5663510330232 2229.3657293116567
2326.1492779749933 2066.7815766196973
2326.7320639645204 2375.524679926109
2327.3147090332004 2256.055864697846
2327.897213212629 2434.9431218539457
2328.4795765343843 2203.422033271705
2329.0617990300307 2012.0944747304468
2329.643880731124 2307.6409986109297
2330.22582166921 2180.5842032715104
2330.807621875816 2261.826166329087
2331.3892813824623 1889.0978919022994
2331.9708002206517 2163.986161719819
2332.5521784218818 1994.5806553037096
2333.133416017634 2008.5332915168242
2333.7145130393765 2228.4944712709525
2334.295469518571 2258.1570998258185
2334.876285486658 2173.638275945478
2335.456960975076 1822.602664500952
2336.037496015242 2270.8034255153298
2336.6178906385667 2194.686195871129
2337.198144876451 2222.94987833966
2337.778258760278 2282.1691011271137
2338.3582323214214 1927.6349219847302
2338.938065591243 2230.735259567365
2339.517758601087 2188.479717883348
2340.0973113822965 2068.5029062775056
2340.676723966193 2036.1685524106142
2341.255996384094 2209.1957589685157
2341.835128667295 2168.232340563189
2342.4141208470883 2424.7760301908197
2342.992972954751 1949.2270512600728
2343.5716850215467 2204.3233105386757
2344.1502570787306 2038.153365939236
2344.7286891575386 1899.3561009170662
2345.3069812892045 2114.8497270808184
2345.885133504944 1892.0800573301847
2346.4631458359618 1870.813469861745
2347.04101831345 1899.930857263771
2347.6187509685915 2101.6113999347917
2348.196343832553 1865.6307752096272
2348.7737969364935 2215.875513850375
2349.351110311558 1969.2430382947518
2349.9282839888765 2094.633796839549
2350.5053179995757 1996.415053195527
2351.0822123747585 1779.1289992277011
2351.658967145526 2031.075532426689
2352.2355823429643 2066.155152484672
2352.812057998144 2066.312243155756
2353.3883941421263 1801.325322381824
2353.9645908059647 2042.3182069686998
2354.540648020693 1857.9001808344826
2355.116565817336 1932.1778467522352
2355.6923442269126 2285.3816000750267
2356.2679832804224 2335.5768498681346
2356.8434830088518 1901.3840075131807
2357.41884344318 1967.062267705897
2357.994064614377 2247.1469851828065
