#exp_cfg={"servo_angle": 0.0, "laser_lim": 100.0, "servo_angle_to": 18.0, "laser_wup": 0.0, "bt_dev": "EnSpectr-25AE3", "laser_wdn_max": 0.0, "frames": 10.0, "servo_used": 0, "servo_calib_use": 0, "laser_wdn_min": 0.0, "servo_pix_from": 90.0, "cooler_tout": 300.0, "servo_angle_from": 0.0, "servo_calib": "[-1.9174921013161362e-09, 3.9322238269163779e-05, -0.27385609119055809, 653.59552119713567]", "laser_autoctl": 0, "servo_pix_to": 3682.0, "laser_pw": 100.0, "cooler_on": 0, "laser_volt": 4.0, "cooler_autoctl": 0, "cooler_curr": 70.0, "cooler_startup": 10.0, "laser_fixed_pw": 0, "gain": 1.3, "offset": 2.53059635486, "servo_calib_degree": 3.0, "laser_curr": 55.0, "shutter": 8200.0, "servo_calib_step": 1.0, "laser_fixed_curr": 0, "exp": 2000.0, "ccd_volt": 4.7, "bt_addr": "00:06:66:62:5A:E3", "servo_delay": 500.0, "laser_autooff": 1}
#proc_cfg={"flat_auto_wnd": 200.0, "flat_auto_fr": 200.0, "flat_auto_shift": 5.0, "yconv": 1, "flatten": 1, "flatten_strength": 100.0, "xfrom": 300.0, "auto_max_frame": 2000.0, "auto_signal": 48000.0, "flat_auto_tol": 0.1, "autoclip": 1, "xrel_range": 0.0, "flat_auto_to": 4000.0, "intensity_adj": 1.0, "xrel": 7852.0, "rmhot": 1, "flat_auto_slit": 4.999999999999997, "auto_ini_exp": 300.0, "auto_off": 0, "xto": 2860.0, "flat_auto_ref": "", "flat_auto_rank": 1, "autobackg": 0, "xrel_adj": 0.0, "auto_black_lvl": 1, "base_wnd": 100.0, "sub_baseline": 0, "xconv": 2, "auto_max_exp": 1000.0, "auto_total_exp": 10000.0, "auto_exp": 0, "rmripple": 0, "black_lvl": 8261.1375, "shutter_clip_adj": 0.0, "auto_bckg": 0, "flat_auto_thr": 0.9, "subbackg": 1}
316.8218498245369 9552.02602959497
317.89969571804795 9414.786813617831
318.977263876126 9473.727399324795
320.05455438786703 9348.29545099784
321.1315673423287 9283.201804570823
322.2083028285215 9376.124539653702
323.2847609354267 9264.530441971812
324.3609417519747 9203.451177265559
325.43684536705587 9187.72846783881
326.5124718695279 9132.787176751486
327.58782134820103 9066.742414806038
328.66289389184385 9125.813408585505
329.7376895891921 8986.839437454251
330.8122085289342 8964.203856036842
331.88645079971866 9012.674658999895
332.9604164901575 8916.253344520263
334.03410568881554 8883.717282960093
335.1075184842266 8999.55178073482
336.18065496487543 8833.551329189233
337.2535152192122 8863.13425052
338.32609933564163 8814.664804251384
339.39840740253203 8764.043265605853
340.4704395082099 8742.63664297729
341.5421957409617 8714.7280564085
342.6136761890357 8782.425095857696
343.6848809406365 8679.762578068949
344.75581008392874 8637.778806452323
345.82646370703696 8681.428065763586
346.8968418980512 8585.180679795656
347.96694474501055 8633.097364499934
349.0367723359268 8623.070600200188
350.106324758759 8586.884674027164
351.1756021014353 8463.903987835462
352.2446044518383 8544.385571826842
353.31333189781435 8555.056244981444
354.38178452716966 8474.764799434148
355.449962427665 8474.509596369347
356.51786568702846 8497.634359027617
357.58549439294256 8431.472904775826
358.6528486330535 8509.942127547058
359.71992849496564 8471.727468014727
360.7867340662433 8448.616829995042
361.8532654344144 8520.503983364886
362.9195226869597 8541.854881523144
363.9855059113288 8452.129523732827
365.05121519492604 8396.140114410508
366.11665062511565 8499.650939311288
367.1818122892273 8429.765748757596
368.2467002745434 8497.915402214738
369.31131466831175 8436.381032414309
370.375655557742 8339.361835315183
371.4397230299983 8465.206190766594
372.5035171722102 8420.606226173575
373.5670380714637 8392.584830349077
374.6302858148101 8507.968874117
375.6932604892554 8471.287951971364
376.7559621817709 8450.39442115908
377.81839097928605 8346.76501418971
378.8805469686886 8421.247524644414
379.94243023683157 8393.01758857077
381.0040408705263 8401.00115317199
382.0653789565458 8283.751587363298
383.1264445816196 8332.9908989304
384.1872378324406 8308.314480895164
385.2477587956637 8321.898646379466
386.3080075579037 8263.086874426524
387.3679842057336 8219.209510227047
388.4276888256918 8315.334048690967
389.48712150426945 8199.810692074301
390.54628232792857 8227.367287111443
391.6051713830857 8166.969076259988
392.66378875611736 8184.0577583096365
393.7221345333637 8161.580278172223
394.7802088011249 8143.702387802138
395.838011645661 8143.60609625237
396.89554315319765 8108.709518762089
397.9528034099112 8044.4314836994
399.00979250194723 8035.877831972399
400.06651051541485 8027.4465769214
401.1229575363741 8058.541869135586
402.17913365085224 7936.92792937686
403.23503894483656 8063.044981974956
404.2906735042761 7927.378744031024
405.3460374150818 7908.495290179817
406.401130763119 7947.072071795017
407.455953634224 7945.275086611555
408.5105061141876 7843.505391107147
409.56478828876243 7758.669367987769
410.6188002436629 7775.378930499132
411.6725420645689 7826.737554491777
412.72601383711117 7781.939823808461
413.77921564689314 7824.916766405596
414.8321475794728 7712.284472168998
415.88480972036814 7708.550929838118
416.93720215506437 7694.741183880242
417.9893249690049 7699.031662051045
419.04117824759123 7665.905436157892
420.09276207619223 7663.310758891266
421.144076540133 7631.622259831836
422.1951217247042 7585.655672962358
423.24589771515275 7654.699369422937
424.2964045966928 7569.809824844988
425.34664245449494 7602.510477649057
426.3966113736933 7539.111004066186
427.4463114393875 7511.363145009777
428.49574273662984 7559.203963244516
429.5449053504417 7497.753946129975
430.5937993658026 7529.069430917986
431.6424248676558 7433.4039190316125
432.6907819409007 7460.914686714986
433.73887067040596 7497.724703440547
434.7866911409965 7524.727877716321
435.8342434374608 7452.214016950779
436.88152764455117 7402.370044976558
437.9285438469724 7422.82960913885
438.9752921294057 7347.998902967212
440.02177257648145 7427.908005478732
441.06798527279716 7379.486591954733
442.1139303029122 7461.849721945388
443.1596077513459 7458.382903980237
444.2050177025794 7330.50772539358
445.25016024105753 7445.280562968027
446.2950354511886 7392.182147806241
447.33964341733736 7458.5846141615275
448.383984223834 7421.649692851383
449.4280579549686 7321.204467474658
450.471864694995 7397.948240136761
451.5154045281306 7403.532447812648
452.5586775385509 7365.040431253246
453.60168381039693 7431.668346500769
454.64442342776783 7466.8506997007935
455.6868964747264 7460.5964401882975
456.7291030353008 7380.3203859934365
457.77104319347563 7444.7541881647485
458.8127170332027 7404.244760630378
459.854124638392 7472.803038211823
460.895266092919 7562.377753741818
461.93614148061897 7535.298451840958
462.97675088529104 7569.544518946628
464.01709439069236 7606.506168975038
465.0571720805492 7555.026283383064
466.0969840385442 7672.881919877375
467.1365303483253 7790.807014418077
468.17581109350067 7704.381690494246
469.2148263576437 7657.122488547642
470.2535762242878 7746.395968682429
471.29206077693016 7789.940504157365
472.33028009902773 7826.168993458692
473.3682342740012 7732.438351124334
474.40592338523857 7785.819699139919
475.4433475160804 7802.325671693475
476.4805067498364 7810.974838459106
477.51740116978 7751.120926510365
478.5540308591426 7885.863558713041
479.59039590112116 7916.130117533872
480.6264963788726 7883.013210267674
481.6623323755193 7910.901132703261
482.6979039741436 7972.183840507578
483.7332112577915 8122.650738419138
484.76825430947247 8261.402002552153
485.80303321215797 8139.560932991206
486.837548048783 8209.96744515624
487.8717989022425 8386.512475713309
488.90578585539697 8269.665292564376
489.9395089910686 8388.486892450488
490.97296839203955 8371.293178874967
492.00616414106116 8189.158338426033
493.0390963208429 8274.18072428182
494.0717650140559 8151.612357845974
495.10417030333883 8063.994691235918
496.1363122712901 8029.808743489875
497.16819100046814 7897.980935232078
498.1998065734024 7810.99801195872
499.2311590725767 7750.076010127278
500.26224858044407 7627.500219701632
501.2930751794156 7593.027950478873
502.3236389518679 7613.787605824994
503.35393998014115 7512.982470813792
504.38397834653733 7498.759762417869
505.4137541333221 7485.840892874653
506.4432674227228 7467.135831282534
507.4725182969323 7370.481797120037
508.5015068381035 7361.135092093295
509.53023312835467 7410.5918467221545
510.55869724976765 7337.832179161325
511.58689928438434 7300.105871922669
512.6148393142121 7285.076286063214
513.6425174212218 7367.276656110019
514.6699336873462 7265.769287308702
515.6970881944835 7278.36008536496
516.7239810244901 7218.5788663832745
517.7506122591931 7298.758335310277
518.7769819803761 7180.135646398378
519.8030902697901 7303.696465296754
520.8289372091476 7295.963449819824
521.8545228801249 7389.106646410224
522.8798473643619 7309.238044723965
523.9049107434621 7307.559513559254
524.9297130989908 7352.933034013765
525.9542545124805 7312.440050670249
526.9785350654201 7262.107954613147
528.0025548392696 7298.796958621267
529.0263139154504 7174.093941259891
530.0498123753423 7295.1000854093745
531.073050300296 7219.368992633458
532.0960277716204 7123.947464376176
533.1187448705896 7122.93791952583
534.1412016784416 7183.050607981097
535.1633982763833 7171.670117998414
536.1853347455726 7138.159072498718
537.2070111671401 7115.289242312533
538.2284276221817 7044.229751383697
539.2495841917516 6896.231641786716
540.2704809568677 6948.057687352676
541.2911179985167 6893.575507892083
542.3114953976419 6911.188774837098
543.3316132351592 6822.740638823978
544.3514715919409 6846.232950335687
545.3710705488247 6884.230285419489
546.3904101866156 6807.934240717832
547.4094905860784 6873.654513355966
548.4283118279418 6821.505736294607
549.4468739929034 6823.331102864101
550.4651771616191 6717.713102524581
551.4832214147063 6739.523361778423
552.501006832761 6790.951584421785
553.5185334963226 6729.5531069456
554.5358014859103 6826.321571493967
555.5528108820035 6762.554492813991
556.5695617650363 6733.933276035068
557.5860542154242 6707.086554850143
558.6022883135283 6792.574020302656
559.6182641396881 6734.003561452535
560.6339817741991 6805.015255377033
561.6494412973225 6757.312082497488
562.6646427892883 6816.201718973207
563.6795863302796 6690.886100681947
564.694272000459 6655.177468965783
565.7086998799423 6851.054480484655
566.7228700488104 6701.586180528677
567.7367825871115 6674.765325045014
568.7504375748576 6781.404837324085
569.7638350920224 6764.003931853481
570.7769752185486 6712.696464033138
571.7898580343353 6751.741697423209
572.802483619258 6731.7251775810855
573.8148520531431 6840.8470990792175
574.8269634157932 6862.185083556568
575.8388177869692 6746.7328670605475
576.8504152463938 6890.166304157212
577.8617558737587 6983.433360648567
578.8728397487175 6863.808270452498
579.883666950891 6955.713416727025
580.8942375598654 7026.567504386818
581.9045516551851 7101.014376669094
582.9146093163617 7202.17543974336
583.924410622878 7051.665117611752
584.9339556541727 7143.057499396164
585.9432444896538 7197.658656896028
586.9522772086875 7194.103525117745
587.9610538906127 7248.515738264175
588.9695746147318 7176.239204952777
589.9778394603054 7153.72292983793
590.985848506567 7129.222971802778
591.9936018327098 7073.781599999505
593.0010995178891 6856.509797097517
594.0083416412344 6989.721015776106
595.0153282818283 6838.324683261113
596.0220595187293 6789.196894345505
597.0285354309508 6779.900904040629
598.0347560974806 6825.017276098379
599.0407215972609 6768.241224524817
600.0464320092051 6763.7719203374245
601.0518874121954 6786.429287971393
602.0570878850685 6711.812331427858
603.062033506636 6766.373899958149
604.0667243556636 6753.325679596883
605.0711605108936 6636.146571597329
606.0753420510264 6889.896348291691
607.0792690547278 6778.4252833753735
608.082941600629 6669.138126796832
609.0863597673306 6793.948488680224
610.0895236333909 6788.707641338941
611.0924332773357 6946.728020042896
612.0950887776617 6822.2008190286415
613.0974902128219 6896.030129804339
614.0996376612384 7101.6232407363805
615.1015312013005 7046.138053498353
616.1031709113595 7126.105663846189
617.1045568697336 7087.182634167728
618.1056891547069 7167.011302148273
619.1065678445229 7274.119547047553
620.1071930173985 7483.466322001463
621.1075647515099 7461.761555081345
622.1076831250048 7545.217686782739
623.1075482159849 7656.638651927415
624.1071601025305 7688.435705237594
625.1065188626781 7795.01863691234
626.105624574433 8072.729153847622
627.1044773157682 8110.00354740662
628.1030771646128 8129.118002050591
629.1014241988742 8175.513735982697
630.0995184964158 8325.108034100465
631.0973601350688 8397.752562945203
632.0949491926294 8520.27625768871
633.0922857468631 8379.235859772616
634.089369875499 8446.101040589954
635.0862016562278 8428.755182295452
636.0827811667077 8223.060083216928
637.0791084845641 8285.767135926926
638.0751836873878 8124.328446061947
639.0710068527369 8145.656400818421
640.0665780581294 7969.28752580046
641.0618973810506 7925.4444838369545
642.0569648989604 7957.108832208209
643.0517806892676 7707.430465362924
644.0463448293649 7691.950180402389
645.040657396592 7498.036053337413
646.0347184682723 7446.119108926563
647.0285281216875 7364.643119430335
648.0220864340772 7292.785551988342
649.0153934826558 7122.371523791508
650.0084493446047 7125.376300700593
651.0012540970674 7150.778580109104
651.9938078171526 6972.825634900815
652.9861105819346 6988.001331556321
653.9781624684565 7068.2398592416575
654.9699635537254 6895.989672680126
655.9615139147136 6903.8056436798015
656.9528136283589 6722.59817975761
657.9438627715699 6881.411023033342
658.9346614212154 6825.895377112867
659.925209654135 6638.4189156697485
660.9155075471263 6646.863824442987
661.9055551769616 6695.018108366775
662.895352620375 6805.847421680628
663.8848999540678 6636.633012456184
664.8741972547068 6524.9270078193595
665.863244598926 6545.700028196907
666.8520420633213 6593.408494148364
667.8405897244611 6434.33533485618
668.8288876588758 6401.535169635536
669.8169359430613 6488.357205683609
670.8047346534822 6509.228236352227
671.7922838665672 6349.352595991796
672.7795836587156 6534.917792942609
673.766634106285 6628.807178255076
674.7534352856092 6387.564995157499
675.7399872729766 6314.945819276376
676.7262901446538 6435.987991085205
677.712343976862 6430.701401219787
678.6981488457986 6434.21046691516
679.6837048276229 6282.101057784231
680.6690119984596 6385.201789491569
681.6540704344043 6338.724564332351
682.6388802115107 6353.074879089067
683.6234414058108 6387.095777348246
684.6077540932874 6294.231848733492
685.591818349907 6290.156556335406
686.575634251587 6336.43649305934
687.5592018742263 6254.17446034015
688.5425212936734 6174.009036039428
689.5255925857564 6331.072816708343
690.5084158262707 6260.236260149933
691.4909910909646 6182.44182421426
692.4733184555644 6196.260437224768
693.4553979957618 6179.9900546597255
694.4372297872123 6220.377153745458
695.4188139055404 6220.706411045334
696.4001504263324 6074.665872106379
697.3812394251509 6222.976630247858
698.3620809775111 6138.745646474496
699.3426751589104 6102.322570965004
700.3230220448004 6100.749043801174
701.3031217106054 6133.019532057981
702.2829742317172 6265.2874510764705
703.2625796834873 6062.589526890196
704.2419381412474 6040.380152108433
705.22104968028 6152.532515332341
706.1999143758458 6052.681876830238
707.178532303169 6057.9984512465935
708.1569035374378 6103.459403302311
709.1350281538107 6220.042924330427
710.1129062274158 6182.817471937741
711.0905378333373 6234.519780535848
712.0679230466376 6299.925706825654
713.0450619423427 6401.994899300453
714.0219545954424 6480.450880647611
714.9986010808989 6349.035314337659
715.9750014736292 6472.510294252932
716.9511558485392 6587.607538317645
717.9270642804786 6630.423823153625
718.9027268442787 6738.790010511644
719.8781436147328 6722.007541554823
720.8533146666014 6691.243368237282
721.828240074612 6648.122427753197
722.8029199134635 6712.643725477033
723.7773542578125 6604.411307889852
724.751543182294 6514.853383158994
725.7254867615029 6554.182418814514
726.6991850700015 6354.3393951528815
727.6726381823228 6400.840913054326
728.6458461729599 6360.377849100124
729.6188091163858 6302.307226656999
730.5915270870246 6284.543940314238
731.5640001592856 6176.116012379781
732.536228407529 6221.210920546264
733.5082119060917 6300.522025567855
734.4799507292755 6179.027776417218
735.4514449513481 6121.64527645985
736.4226946465496 6168.018971229813
737.3936998890786 6263.823723576001
738.3644607531078 6092.037389610404
739.3349773127793 6126.011409035302
740.3052496421951 6154.172300560655
741.27527781543 6019.081446946393
742.2450619065221 6020.156409639183
743.2146019894826 6044.772380317148
744.183898138288 6051.879543571002
745.1529504268801 5967.736289260553
746.1217589291682 5852.104163343659
747.0903237190341 5904.438222897339
748.058644870318 5880.408611885861
749.0267224568397 5812.1521416018495
749.994556552374 5774.0478253432775
750.9621472306771 5775.869526961062
751.9294945654583 5794.490529943061
752.8965986304011 5798.366519866757
753.8634594991636 5769.718905872667
754.8300772453586 5805.383967791429
755.7964519425768 5806.577770463476
756.762583664371 5872.2651807786915
757.7284724842611 5856.001626308045
758.6941184757416 5785.291732120037
759.6595217122667 5766.141803895878
760.6246822672638 5847.708667007438
761.5896002141235 5677.460392631249
762.5542756262093 5819.691081700248
763.5187085768503 5792.328855899536
764.4828991393406 5671.706212902474
765.4468473869474 5697.346894641314
766.4105533929032 5815.975075441738
767.3740172304078 5694.541947914042
768.3372389726283 5803.20998044282
769.3002186926988 5663.7016059859
770.2629564637282 5619.63364597435
771.2254523587872 5609.251321696418
772.1877064509154 5632.935780019475
773.1497188131179 5513.803015214945
774.1114895183728 5541.605022323419
775.0730186396268 5445.374625322718
776.0343062497905 5451.66541695998
776.9953524217381 5423.497706112561
777.9561572283274 5509.867218566985
778.9167207423689 5510.218358751827
779.8770430366476 5380.219474565827
780.8371241839159 5415.0531501924615
781.7969642568951 5413.379213675082
782.7565633282757 5599.062556903775
783.7159214707099 5424.84522072814
784.6750387568281 5423.4915056636255
785.6339152592227 5453.46515459435
786.5925510504512 5432.189415473267
787.5509462030477 5465.694247313163
788.5091007895098 5458.954729116858
789.4670148823006 5421.7335763394185
790.4246885538596 5418.297867818104
791.3821218765861 5472.765320424503
792.3393149228505 5368.132975408681
793.2962677649975 5480.727211163313
794.2529804753303 5399.2435749823135
795.20945312613 5493.07961583239
796.1656857896378 5381.153220717896
797.1216785380675 5423.9159186071
798.0774314435985 5465.851103055511
799.0329445783846 5621.48337511946
799.9882180145414 5577.898636009329
800.9432518241574 5537.456456435333
801.89804607929 5634.363672136757
802.852600851962 5644.7461043356025
803.8069162141637 5677.358074044091
804.760992237856 5796.331673259067
805.714828994971 5733.195279048948
806.6684265574077 5864.99305996759
807.6217849970271 5761.744109027564
808.574904385674 5719.493683354611
809.527784795142 5812.633593472894
810.4804262972102 5829.255126108104
811.4328289636178 5691.155796500982
812.3849928660748 5549.460040960126
813.3369180762638 5571.860109236673
814.2886046658241 5634.234500290477
815.2400527063783 5487.079201388266
816.1912622695108 5473.741903641332
817.1422334267718 5493.92173009368
818.0929662496856 5361.879692870759
819.0434608097457 5242.848839442163
819.9937171784059 5353.601688498546
820.9437354271013 5253.765274974304
821.8935156272255 5351.32153315239
822.8430578501484 5201.487859639534
823.7923621672016 5108.775979794015
824.7414286496896 5133.07924883284
825.6902573688876 5256.179271626032
826.6388483960363 5191.472724910981
827.5872018023492 5105.067531775365
828.5353176590033 5226.976979576988
829.4831960371503 5079.154274032145
830.4308370079016 5066.084637419037
831.3782406423525 5114.94728997365
832.3254070115545 5109.688487574476
833.2723361865319 5084.972242517845
834.2190282382799 4968.707159294193
835.1654832377644 5096.036107288217
836.1117012559116 4975.654460104857
837.0576823636256 5125.099235883665
838.003426631778 4967.836151669778
838.9489341312074 4933.150797178754
839.8942049327197 5113.847547691708
840.8392391070975 5122.6867600845035
841.7840367250865 4996.943641015284
842.7285978573982 4995.077557566665
843.672922574724 5069.990122205323
844.6170109477152 5026.73600769078
845.560863046996 4983.717235089419
846.5044789431595 5050.525877520555
847.4478587067697 4978.102711800679
848.3910024083561 5170.7462702306075
849.333910118421 4986.559128013758
850.2765819074339 4984.716694320707
851.2190178458332 5107.8958066195755
852.161218004032 5117.908837417236
853.1031824524016 5067.098263585854
854.0449112612987 5047.69872647654
854.9864045010327 5117.964111283731
855.9276622418947 5034.868366135508
856.8686845541379 5005.232206551214
857.8094715079915 5045.555609548113
858.7500231736467 5145.103401979977
859.690339621271 5081.315363153731
860.6304209209939 5075.98335487582
861.5702671429244 4976.521271306258
862.5098783571284 5112.025842290246
863.4492546336569 5102.582412620044
864.3883960425155 4989.999844590257
865.3273026536863 4994.123526810875
866.2659745371238 4939.272591443544
867.2044117627465 5177.591524800295
868.1426144004472 5022.150811842368
869.0805825200823 5116.830001237068
870.0183161914847 5095.279685734837
870.9558154844526 5185.4752052587555
871.8930804687552 5187.440163823958
872.8301112141307 5080.0640596271705
873.7669077902865 5209.693340386611
874.7034702669062 5274.394242170173
875.6397987136315 5202.24909307817
876.5758932000863 5199.943929661435
877.5117537958522 5256.167732212357
878.4473805704911 5246.853672993367
879.3827735935283 5266.018960697641
880.3179329344603 5357.8011473165225
881.2528586627541 5311.249261450602
882.1875508478479 5435.226753085108
883.1220095591489 5308.805143395178
884.0562348660296 5257.846975486521
884.9902268378391 5356.127722798376
885.9239855438955 5323.846491362426
886.8575110534839 5189.8245855043815
887.7908034358588 5289.582093267318
888.7238627602474 5205.728010363
889.6566890958475 5301.565270659141
890.5892825118208 5064.297228171252
891.5216430773125 5193.145360480267
892.4537708614189 5146.929087715471
893.3856659332196 5064.6250534324845
894.3173283617652 5076.682710845815
895.2487582160684 5054.427030339799
896.179955565116 5019.945771144905
897.110920477864 4961.9069554268
898.0416530232451 5022.976850431608
898.9721532701478 4866.108195245592
899.9024212874428 5014.462654786688
900.8324571439662 4853.810309351579
901.7622609085302 4893.720730332884
902.6918326499072 4828.372416253633
903.6211724368477 4855.515781395058
904.5502803380696 4947.531276263171
905.4791564222614 4962.099421828486
906.4078007580792 4855.29423905841
907.3362134141571 4823.430800698428
908.2643944590909 4936.6469160334755
909.1923439614493 4740.293639882138
910.1200619897754 4813.134194629118
911.0475486125779 5004.280576218811
911.9748038983344 4877.44394593959
912.9018279155007 4766.669483905052
913.8286207324982 4675.663295365875
914.7551824177117 4794.875224754216
915.6815130395116 4706.993142336209
916.6076126662283 4705.101117713784
917.533481366163 4764.686591598291
918.4591192075914 4760.753720336668
919.3845262587565 4789.598127376165
920.3097025878706 4665.22977481336
921.2346482631237 4673.675425524903
922.1593633526682 4714.838451518947
923.0838479246304 4734.568235878986
924.0081020471061 4850.336902362402
924.9321257881656 4612.9411919915
925.8559192158464 4700.137675112763
926.7794823981512 4595.494464659829
927.7028154030686 4574.18485639149
928.6259182985414 4603.874101149726
929.5487911524906 4678.035040603381
930.4714340328119 4765.146794096568
931.3938470073608 4581.63871882792
932.3160301439748 4650.333230029516
933.2379835104548 4655.401916085165
934.1597071745709 4731.548026995547
935.0812012040769 4619.583857421153
936.002465666681 4718.169328348207
936.9235006300696 4689.355590793422
937.8443061619055 4698.822028619076
938.7648823298077 4589.039414404059
939.6852292013809 4662.062992231721
940.6053468441951 4715.288448968835
941.5252353257874 4582.643185673188
942.4448947136698 4599.939637106511
943.364325075323 4614.563429947607
944.2835264782043 4611.594651296098
945.2024989897309 4648.739101193188
946.1212426773054 4642.789795086395
947.0397576082851 4700.15967162181
947.9580438500125 4771.285145744785
948.8761014697939 4804.645462209091
949.7939305349064 4715.006667946536
950.7115311125999 4627.49355982903
951.6289032700952 4660.294960122951
952.5460470745875 4811.759354805015
953.4629625932339 4609.508922049326
954.3796498931715 4623.532767356187
955.2961090415029 4649.410278630457
956.2123401053068 4687.446219777237
957.1283431516276 4676.955615556337
958.0441182474842 4546.372322859393
958.9596654598663 4736.402903945645
959.8749848557309 4646.933445870902
960.7900765020167 4539.56501070316
961.7049404656209 4584.935646709883
962.6195768134185 4605.455872266299
963.5339856122537 4677.313279301662
964.4481669289453 4639.721704910199
965.3621208302793 4587.479877091293
966.2758473830145 4626.0883018232935
967.1893466538822 4780.71365246321
968.1026187095813 4656.552569288495
969.0156636167867 4577.690736537256
969.9284814421426 4701.930702452621
970.8410722522622 4621.403901851598
971.753436113735 4593.144863959348
972.6655730931161 4555.445125066503
973.5774832569368 4648.942451918611
974.4891666716958 4547.3615857583045
975.4006234038698 4579.559053080027
976.3118535198955 4549.586828144513
977.2228570861935 4660.32611009906
978.1336341691494 4654.954583842684
979.0441848351202 4490.106601070979
979.9545091504333 4678.629025577558
980.864607181391 4606.629518759971
981.7744789942699 4619.559983854916
982.6841246553086 4521.088529412165
983.5935442307236 4669.137083475289
984.5027377867027 4731.15968968071
985.4117053894024 4701.673196181827
986.3204471049557 4604.103388319159
987.2289629994648 4635.9497939412195
988.1372531390007 4727.267049091625
989.0453175896091 4710.649775674767
989.9531564173067 4734.820990189714
990.860769688079 4612.560770087502
991.7681574678918 4629.8721494268775
992.6753198226706 4726.090455824159
993.582256818323 4628.679166430303
994.4889685207218 4649.858967857714
995.3954549957143 4793.149088603206
996.301716309119 4748.283379047148
997.2077525267232 4701.516752636302
998.1135637142943 4687.799912413485
999.0191499375615 4828.679611073813
999.924511262232 4815.374594094397
1000.8296477539861 4811.380855641117
1001.7345594784656 4743.695939173214
1002.6392465012996 4717.944296429339
1003.5437088880753 4800.6707480740315
1004.4479467043584 4756.180146062094
1005.3519600156869 4638.7202766251485
1006.2557488875718 4755.959262662109
1007.1593133854858 4787.826271658199
1008.0626535748888 4649.92304827343
1008.9657695212009 4514.015012704174
1009.8686612898182 4789.70656876637
1010.7713289461135 4731.076826960041
1011.6737725554212 4675.671416708188
1012.5759921830577 4628.910756793611
1013.4779878943027 4720.330453406493
1014.379759754418 4708.57846396507
1015.2813078286254 4582.2811236848265
1016.18263218213 4568.532963118929
1017.0837328801026 4518.571209301357
1017.9846099876886 4690.134581126051
1018.8852635700023 4527.6581104139195
1019.7856936921362 4468.334805185364
1020.6859004191447 4574.775015292139
1021.5858838160675 4484.761063430034
1022.4856439479063 4446.453636618625
1023.3851808796389 4433.43874592969
1024.2844946762143 4576.401034113211
1025.183585402554 4531.796152570986
1026.082453123554 4327.805149389789
1026.9810979040776 4526.91674044871
1027.8795198089647 4316.630655353184
1028.777718903024 4445.355121539694
1029.6756952510368 4302.575259263276
1030.5734489177648 4365.836209341451
1031.4709799679313 4379.506968234823
1032.3682884662358 4516.677421527895
1033.2653744773506 4240.128402538333
1034.1622380659192 4283.3125253218695
1035.058879296559 4422.834860052856
1035.9552982338591 4475.565123066015
1036.8514949423825 4382.811526555139
1037.7474694866614 4344.584024326577
1038.6432219312028 4317.980283060033
1039.5387523404825 4453.059170850505
1040.4340607789582 4361.850988237025
1041.3291473110476 4339.83926797844
1042.2240120011465 4487.814532695074
1043.1186549136273 4483.756350427988
1044.0130761128294 4399.140237390062
1044.9072756630649 4443.169449086576
1045.8012536286205 4525.647650353285
1046.6950100737577 4492.705355773274
1047.588545062701 4587.206247902138
1048.481858659663 4506.571620797614
1049.3749509288118 4646.057763027375
1050.2678219343034 4458.9496217398455
1051.1604717402515 4574.823893494556
1052.0529004107575 4517.1493585743765
1052.9451080098825 4593.969488593577
1053.8370946016694 4563.292890975082
1054.7288602501267 4553.612578884933
1055.6204050192446 4537.249690977619
1056.511728972977 4544.577214848299
1057.402832175254 4590.235234863652
1058.2937146899785 4451.074500382066
1059.1843765810263 4421.442203613069
1060.0748179122456 4479.972087059997
1060.9650387474576 4416.004764212061
1061.855039150456 4477.467105871949
1062.7448191850071 4527.719970505825
1063.6343789148505 4500.996303483153
1064.5237184037014 4636.661316842149
1065.412837715241 4430.040342699058
1066.3017369131267 4444.516811688279
1067.190416060992 4437.417787630636
1068.0788752224398 4346.346318110767
1068.9671144610438 4406.202085550687
1069.8551338403558 4508.654481981505
1070.7429334239023 4428.565229892861
1071.6305132751695 4293.127998326285
1072.517873457633 4427.09371378411
1073.4050140347335 4401.488847838662
1074.2919350698776 4433.564837156581
1075.1786366264623 4348.551947618816
1076.0651187678395 4340.1658677262685
1076.95138155735 4287.557457321339
1077.8374250582929 4265.72828199504
1078.7232493339507 4335.065355072589
1079.608854447577 4298.291411236068
1080.4942404623907 4171.595942514306
1081.3794074415982 4335.449040109678
1082.2643554483657 4337.334448160146
1083.149084545841 4187.830241124265
1084.033594797138 4210.159426249558
1084.9178862653516 4246.647036128185
1085.8019590135427 4332.889932802287
1086.6858131047484 4113.670024945365
1087.5694486019802 4235.517633708126
1088.4528655682225 4176.9994874976865
1089.3360640664287 4377.0263556099635
1090.2190441595321 4263.753617076729
1091.1018059104317 4202.150307142716
1091.98434938201 4300.144442038447
1092.866674637111 4333.324979683651
1093.748781738559 4243.299904568425
1094.6306707491512 4195.852206762414
1095.5123417316554 4251.474400982022
1096.3937947488157 4212.277337436172
1097.2750298633455 4157.503731137279
1098.156047137938 4093.0488213885133
1099.0368466352556 4229.500967026509
1099.9174284179317 4322.102883117757
1100.7977925485757 4035.736635996311
1101.6779390897755 4141.713983259904
1102.5578681040806 4208.5821101898355
1103.4375796540226 4178.404614074446
1104.3170738021054 4118.592285555215
1105.1963506108077 4040.219931214581
1106.0754101425773 4086.67872892638
1106.9542524598382 4200.800462052508
1107.8328776249855 4148.160547320846
1108.7112857003904 4149.510671575088
1109.5894767483987 4119.970360871273
1110.4674508313292 4220.560056376084
1111.3452080114657 4129.580598830058
1112.2227483510815 4231.781611292779
1113.1000719124077 4267.02548322586
1113.9771787576592 4339.214505548731
1114.854068949022 4208.82682058813
1115.7307425486542 4363.886956213952
1116.6071996186893 4367.053956768248
1117.483440221229 4462.343026197339
1118.3594644183577 4388.484585584987
1119.235272272128 4461.67936067884
1120.1108638445658 4502.081530747191
1120.9862391976712 4690.64307419318
1121.8613983934229 4582.427183369346
1122.7363414937627 4635.8173774618035
1123.6110685606182 4661.436899026261
1124.485579655884 4756.255908429892
1125.359874841426 4713.634643350544
1126.2339541790916 4778.326051325727
1127.1078177306936 4905.854912263452
1127.9814655580267 4703.951940786034
1128.854897722851 4836.099930344716
1129.7281142869106 4763.229693977544
1130.6011153119125 4856.468786647958
1131.473900859548 4981.950433253402
1132.3464709914697 4782.739080919244
1133.2188257693178 4824.916047560265
1134.0909652546961 4696.403698742439
1134.96288950919 4616.681873503216
1135.8345985943506 4769.90437770528
1136.7060925717087 4616.157967994821
1137.57737150277 4627.177496051945
1138.4484354490069 4658.128227487305
1139.3192844718778 4484.3324021459875
1140.1899186327992 4360.862506579955
1141.060337993178 4521.047991680092
1141.930542614382 4403.7835553476425
1142.8005325577597 4345.272390183297
1143.670307884635 4226.086516081175
1144.5398686563003 4353.893733187845
1145.409214934025 4274.475151570759
1146.2783467790541 4137.4195796247095
1147.1472642526023 4250.243804246658
1148.0159674158622 4238.616945382482
1148.8844563300026 4111.007841402117
1149.7527310561618 4079.720095851303
1150.6207916554504 4013.8394996550464
1151.4886381889592 3992.891202943857
1152.3562707177498 4145.389552765945
1153.2236893028585 3987.4344212086426
1154.090894005296 3971.206501064224
1154.9578848860474 3965.4173137389216
1155.8246620060709 3975.229756880183
1156.6912254262988 3911.9054167240092
1157.5575752076438 3893.163185745422
1158.42371141098 4014.8752909935065
1159.2896340971656 4024.442149564637
1160.1553433270346 3875.30519613156
1161.0208391613887 3943.5704796803266
1161.8861216610057 4007.9127667727407
1162.75119088664 4016.2500605302967
1163.6160468990201 3861.191966274163
1164.4806897588442 3848.0586483939596
1165.3451195267917 3999.8759255563955
1166.2093362635114 3932.672146896194
1167.0733400296285 3856.337903764276
1167.9371308857444 3866.5174789610146
1168.8007088924278 3803.0873589869816
1169.6640741102328 3921.7399419747126
1170.5272265996773 3815.666703870253
1171.390166421259 3808.353096644418
1172.252893635452 3936.7689060161733
1173.1154083026995 3993.3587487455443
1173.977710483421 3983.6749314475283
1174.8398002380145 3749.8693380104696
1175.7016776268483 3924.3178239370254
1176.563342710264 3946.012727158555
1177.4247955485826 3724.6615144556504
1178.2860362020947 3893.464765826684
1179.147064731069 3744.0769117568425
1180.0078811957483 3926.903508568206
1180.8684856563486 3902.2689243242107
1181.7288781730604 3961.5176952263987
1182.589058806052 3949.7010053645
1183.4490276154593 4139.900787928689
1184.3087846614017 3893.6622252168613
1185.1683300039676 4005.078084575308
1186.027663703222 4122.829372203187
1186.8867858192025 4012.119447024577
1187.7456964119228 4021.194698139134
1188.6043955413716 4070.8799620558552
1189.4628832675116 4141.438887224458
1190.3211596502842 4257.512018445939
1191.179224749596 4123.386110383183
1192.0370786253388 4041.275115287585
1192.8947213373758 4211.600115980726
1193.7521529455407 4331.098501697854
1194.6093735096438 4125.765643739718
1195.466383089477 4153.997257842031
1196.3231817447977 4239.36515881768
1197.1797695353398 4418.161585442025
1198.0361465208189 4147.125897296283
1198.8923127609214 4199.755101680485
1199.7482683153048 4330.693653452605
1200.6040132436028 4415.175395444308
1201.459547605431 4246.584609396239
1202.3148714603722 4341.328263193364
1203.1699848679855 4239.93069411569
1204.0248878878065 4361.4917912710935
1204.8795805793507 4156.772253489006
1205.7340630020935 4261.976710427867
1206.5883352155033 4336.786262015428
1207.4423972790064 4330.575947554056
1208.2962492520237 4115.969863178135
1209.1498911939307 4135.669256793463
1210.0033231640937 4196.726329540848
1210.8565452218427 4167.987369524351
1211.7095574264913 3899.4939709389937
1212.5623598373222 4065.0632154353602
1213.4149525135963 3935.563513199312
1214.2673355145507 4123.7429904068285
1215.1195088993936 3882.6917675325794
1215.9714727273113 3980.3190506181686
1216.8232270574663 4070.3966629487795
1217.6747719489904 3864.811443531965
1218.5261074609934 3800.064302137015
1219.3772336525653 3899.458271366194
1220.2281505827668 3990.3860991981064
1221.0788583106296 3998.407157506077
1221.9293568951707 3763.5955600860643
1222.7796463953746 3733.326796836706
1223.629726870202 3899.903990450965
1224.4795983785934 3906.0679745875486
1225.3292609794553 3864.1695456403077
1226.1787147316809 3731.5843189998063
1227.0279596941327 3774.5498463376853
1227.8769959256424 3720.601176894083
1228.7258234850306 3744.71840280373
1229.5744424310833 3612.126353227868
1230.422852822563 3808.132740396772
1231.2710547182105 3895.5329954408153
1232.119048176739 3724.4578132168763
1232.9668332568417 3647.710408829235
1233.8144100171812 3776.6319682471535
1234.6617785163999 3745.8264257348696
1235.508938813111 3545.9160301466
1236.3558909659114 3682.6671735812924
1237.2026350333617 3797.367728671411
1238.049171074008 3855.3194317092793
1238.8954991463652 3666.320765534001
1239.741619308932 3711.739914126857
1240.587531620169 3769.202576369432
1241.4332361385277 3825.8138711339357
1242.2787329224248 3693.255755476685
1243.1240220302534 3586.9421844034478
1243.9691035203869 3624.3148160382434
1244.813977451171 3866.66218701333
1245.6586438809263 3651.279646636568
1246.5031028679496 3560.324268176111
1247.3473544705157 3726.668814486039
1248.1913987468706 3687.511084064177
1249.0352357552383 3575.971863484164
1249.8788655538228 3558.98602354358
1250.7222882007918 3729.151538561665
1251.565503754302 3761.6737537326576
1252.4085122724755 3471.152041867654
1253.2513138134182 3723.6530687868153
1254.0939084352049 3656.3162487319955
1254.9362961958905 3624.882764762552
1255.7784771535007 3629.320934633904
1256.6204513660432 3704.3243661126353
1257.4622188915 3842.0213935244633
1258.3037797878242 3625.464019535232
1259.1451341129468 3572.654973206843
1259.9862819247755 3635.1643051722704
1260.8272232811978 3615.263490151072
1261.6679582400666 3789.073302554344
1262.5084868592203 3546.742960320103
1263.34880919647 3504.7150507875676
1264.1889253095997 3627.189290265293
1265.0288352563712 3689.695757079281
1265.8685390945266 3507.035398524566
1266.7080368817751 3631.2637388147186
1267.5473286758115 3825.2514670462892
1268.386414534294 3690.9327790002485
1269.2252945148703 3481.772426470955
1270.0639686751547 3639.412339820393
1270.9024370727402 3542.3641685384055
1271.7406997651997 3590.92715294363
1272.5787568100714 3438.6002997363257
1273.4166082648808 3525.723475641372
1274.2542541871244 3556.2314293120603
1275.091694634275 3826.618242889404
1275.9289296637817 3444.2849548555378
1276.7659593330663 3669.317452131853
1277.6027836995308 3562.9650588811846
1278.4394028205552 3650.2548509020853
1279.2758167534867 3597.1008535736196
1280.112025555658 3557.3331035286947
1280.9480292843746 3610.1301883319998
1281.7838279969128 3540.5844518218173
1282.6194217505326 3576.4064546103473
1283.4548106024686 3494.0428380821113
1284.289994609926 3496.29903570668
1285.1249738300921 3640.9610461421335
1285.959748320127 3515.111982098567
1286.7943181371702 3621.107547800875
1287.6286833383328 3575.78533612088
1288.4628439807038 3689.4655424294056
1289.2968001213521 3544.6830563202675
1290.1305518173194 3643.314084714026
1290.9640991256183 3653.232134591649
1291.7974421032523 3505.386334626977
1292.630580807183 3435.406299969937
1293.463515294361 3634.5291589744425
1294.29624562171 3719.6789960892665
1295.12877184613 3553.453681566095
1295.961094024493 3457.997455788593
1296.79321221365 3655.3565438372075
1297.6251264704333 3689.382701425608
1298.4568368516466 3820.4852543989764
1299.2883434140658 3653.577610318688
1300.1196462144526 3601.921515518611
1300.9507453095375 3693.653644415275
1301.7816407560313 3754.7807268867364
1302.6123326106172 3684.2519555865133
1303.4428209299622 3629.031228842364
1304.2731057707024 3861.7066117496747
1305.1031871894502 3668.3658650374905
1305.933065242798 3763.170731539668
1306.7627399873181 3764.65068941331
1307.5922114795467 4023.1375566194934
1308.4214797760123 3908.070593635787
1309.2505449332057 3764.6405413984876
1310.0794070076026 3791.359150520408
1310.9080660556538 3952.508359384091
1311.736522133786 3940.5298828161986
1312.5647752983987 3781.1653014934977
1313.3928256058734 3646.6356087306376
1314.2206731125661 3858.670135019507
1315.048317874809 3889.6517117823337
1315.8757599489109 3843.5692124649263
1316.7029993911547 3836.7752043073633
1317.5300362578055 3857.7662451671686
1318.356870605101 3754.0538309568983
1319.183502489257 3788.7707624957534
1320.0099319664623 3942.0111144569637
1320.836159092889 3952.3051062029117
1321.66218392468 3932.829337392062
1322.4880065179532 3728.3022070069696
1323.3136269288134 3919.522976523093
1324.1390452133292 3966.8620430578894
1324.9642614275563 4033.669955315476
1325.7892756275214 3867.4176780781445
1326.6140878692295 3782.339734091331
1327.4386982086617 4195.8453595746405
1328.2631067017755 3851.306845278893
1329.0873134045069 3922.921819125325
1329.911318372764 3852.8023689040506
1330.735121662441 3941.513875950498
1331.558723329399 3765.451219553135
1332.3821234294774 3886.6874072488354
1333.2053220185007 3870.5916089227185
1334.0283191522612 3789.8002364972963
1334.851114886529 3960.9395308318876
1335.6737092770582 3749.204097853298
1336.4961023795695 3815.3074760729824
1337.3182942497697 3656.8804287393677
1338.1402849433325 3861.1382252852322
1338.962074515921 3669.779511538095
1339.7836630231632 3578.7194776082442
1340.6050505206676 4034.2904374901386
1341.426237064028 3876.371888460806
1342.2472227088037 3767.2952311837735
1343.0680075105338 3628.5838518761716
1343.888591524741 3826.968623878998
1344.7089748069138 3923.6510677576907
1345.5291574125276 3585.735223889586
1346.3491393970307 3596.8005509201234
1347.168920815846 3801.4428314146194
1347.9885017243778 3853.155979476657
1348.8078821780036 3678.812540750531
1349.6270622320844 3762.13985099247
1350.4460419419447 3637.3391472730827
1351.2648213629054 3852.9784771043915
1352.0834005502438 3558.611913241145
1352.90177955923 3601.871581537939
1353.7199584451064 3708.414723402971
1354.5379372630887 3732.662686982649
1355.355716068374 3617.9892083316095
1356.1732949161305 3606.8585299870583
1356.9906738615155 3686.431421355501
1357.8078529596478 3678.7338233737682
1358.6248322656375 3814.904668949525
1359.441611834567 3677.298763618083
1360.2581917214866 3709.3002667817236
1361.0745719814367 3631.41708544731
1361.890752669433 3555.4803076090852
1362.7067338404577 3514.6620676889565
1363.5225155494845 3695.86215665922
1364.3380978514506 3767.94267728961
1365.1534808012839 3509.595358259361
1365.9686644538815 3283.503966670299
1366.783648864117 3739.609909708278
1367.5984340868417 3779.2216876234043
1368.413020176893 3577.952095917625
1369.2274071890715 3418.179103946324
1370.0415951781652 3713.827247135267
1370.8555841989346 3617.943422755253
1371.6693743061223 3499.979546282455
1372.48296555444 3447.747526607234
1373.2963579985844 3577.5027130810427
1374.1095516932255 3638.10420589946
1374.9225466930166 3381.0317927494857
1375.7353430525782 3521.0930294027576
1376.5479408265164 3468.143710336188
1377.36034006941 3645.86750564081
1378.1725408358216 3614.36541778648
1378.9845431802805 3386.0809688069653
1379.796347157304 3773.8304425805377
1380.6079528213813 3633.156572189228
1381.4193602269788 3363.757168015755
1382.230569428546 3440.782346559294
1383.0415804805016 3511.9986025526428
1383.852393437246 3541.9669624263815
1384.6630083531563 3606.8734421370564
1385.4734252825892 3386.0337751837405
1386.2836442798798 3529.3374740160084
1387.0936653993322 3556.035707750298
1387.9034886952395 3483.148348294412
1388.713114221864 3574.8462464507816
1389.5225420334482 3577.1592733057573
1390.331772184214 3508.810312232317
1391.1408047283585 3394.5175042340925
1391.9496397200564 3404.1206726383366
1392.758277213461 3585.2845425857363
1393.5667172627054 3637.5174275374325
1394.3749599218918 3474.7791561837666
1395.1830052451114 3374.5207209884925
1395.9908532864265 3477.8941508605667
1396.7985040998774 3642.3990860258587
1397.6059577394808 3378.1306955997266
1398.4132142592352 3478.3558134163295
1399.2202737131156 3382.261521509835
1400.027136155073 3601.376862688491
1400.8338016390353 3437.3807187623
1401.6402702189134 3412.282756003094
1402.446541948586 3458.5720225175196
1403.2526168819204 3396.7331544087588
1404.058495072757 3429.1213064348376
1404.8641765749107 3425.364429978662
1405.6696614421799 3402.669328090702
1406.4749497283356 3760.863135649239
1407.280041487129 3411.6345062757528
1408.084936772295 3234.7080669354136
1408.8896356375335 3524.646738562123
1409.6941381365323 3536.0730241047036
1410.498444322955 3222.2869592546263
1411.3025542504402 3371.070206859121
1412.106467972606 3379.230602645217
1412.9101855430508 3420.987677953294
1413.7137070153458 3184.2111128739025
1414.5170324430437 3366.7772774877863
1415.320161879672 3476.9590443744264
1416.1230953787435 3562.997512934827
1416.925832993742 3292.6040654053113
1417.7283747781275 3199.965701381597
1418.5307207853439 3358.575664205075
1419.3328710688093 3396.8153256606433
1420.134825681922 3181.580782120324
1420.9365846780584 3217.143539937527
1421.7381481105713 3557.4894929023526
1422.539516032788 3383.974577511656
1423.3406884980232 3209.152618240193
1424.1416655595604 3236.624571885178
1424.942447270665 3248.598276611371
1425.7430336845828 3469.729797784364
1426.5434248545298 3146.332762000926
1427.3436208337116 3331.3667816010193
1428.143621675301 3291.240355089085
1428.9434274324558 3565.225684922246
1429.7430381583108 3096.840333487738
1430.5424539059713 3270.1838651927633
1431.3416747285337 3581.04154790049
1432.1407006790632 3384.649491034663
1432.9395318106053 3281.310700177614
1433.7381681761835 3130.364466867008
1434.5366098288014 3406.7622091107796
1435.3348568214424 3363.3300527491074
1436.1329092070573 3325.3567032990736
1436.9307670385879 3269.693762795035
1437.7284303689503 3411.0487797255723
1438.5258992510335 3480.127698121396
1439.3231737377118 3308.7776741152034
1440.1202538818306 3165.0438019552626
1440.9171397362225 3250.9497724309276
1441.7138313536925 3211.867208333482
1442.5103287870243 3171.6233789758517
1443.3066320889775 3119.3064141061996
1444.1027413122956 3355.95490196379
1444.8986565096966 3202.3218133506816
1445.694377733882 3175.9176857738003
1446.4899050375207 3045.5468346747243
1447.2852384732687 3183.2759825920393
1448.0803780937622 3288.933895157111
1448.8753239516063 3027.345388805711
1449.6700760993954 2959.051843551916
1450.464634589689 3142.1313104567607
1451.2589994750397 3412.4148905222537
1452.0531708079689 3055.1802900897515
1452.8471486409799 3022.789969002408
1453.6409330265524 3288.2467812555333
1454.4345240171442 3138.0354850232925
1455.2279216651987 2995.6939532847973
1456.0211260231263 3085.18992187628
1456.8141371433194 3468.9970962483467
1457.6069550781594 3191.6686494384057
1458.3995798799897 2894.8362702255613
1459.1920116011424 2967.248504782915
1459.98425029393 2934.0681400145822
1460.7762960106338 2937.4181401719775
1461.5681488035225 3006.4473862474215
1462.3598087248392 3079.5774882043133
1463.1512758268036 3205.7527303517004
1463.942550161617 2970.117958901861
1464.7336317814625 2903.281958329343
1465.524520738496 3064.546977163878
1466.3152170848552 2904.250514201377
1467.1057208726506 3047.0229026246157
1467.8960321539817 2911.583965460347
1468.6861509809169 2856.0321960096776
1469.4760774055085 2951.911841894739
1470.265811479785 2914.181861589303
1471.055353255755 2853.4232557522164
1471.844702785409 2813.638909929031
1472.6338601207044 2807.837070484283
1473.4228253135934 2972.879780817931
1474.2115984159936 2802.4154968252715
1475.0001794798063 2662.5017263364307
1475.7885685569145 2939.3931701182532
1476.576765699172 2912.075583560298
1477.3647709584238 2800.587910543252
1478.1525843864802 3081.2697342100355
1478.9402060351367 2908.86037819654
1479.7276359561693 2960.8165191445846
1480.514874201328 2788.9649801808846
1481.3019208223468 2688.2451981865743
1482.0887758709323 2714.385213711108
1482.8754393987747 3018.348463343397
1483.6619114575406 2725.3070060348746
1484.4481920988783 2775.8236234135948
1485.2342813744108 2897.5239282288117
1486.0201793357446 3012.9327582053497
1486.8058860344572 2820.933423909323
1487.591401522117 2837.552956082992
1488.3767258502594 2803.210600430954
1489.1618590704056 2838.3417000414
1489.9468012340494 2618.5801009738093
1490.7315523926754 2799.3357956794152
1491.5161125977356 2923.1640892080304
1492.3004819006637 2819.0243144270025
1493.084660352877 2715.2883427006946
1493.8686480057622 2894.576252155933
1494.6524449106964 3086.567027640528
1495.4360511190262 3104.4644973854583
1496.219466682087 2922.9076623286937
1497.0026916511779 2879.772144157346
1497.7857260775945 2885.6148602519015
1498.5685700125996 2985.3845870847426
1499.3512235074395 2687.2037704501136
1500.133686613337 2723.5154424817188
1500.9159593814966 2786.8919257312054
1501.698041863101 3220.445149830555
1502.4799341093094 2653.7325870870104
1503.2616361712662 2711.527169339662
1504.043148100087 2913.833347716753
1504.8244699468742 2911.519246286483
1505.6056017626997 2644.462104246489
1506.3865435986281 2659.7067861157584
1507.1672955056893 2838.5944962706026
1507.9478575348967 2628.9833371445748
1508.7282297372512 2960.0220143946594
1509.5084121637192 2807.4997405074187
1510.2884048652577 2747.801302292263
1511.0682078927948 2764.1230004832532
1511.8478212972423 2713.4303927134347
1512.6272451294917 2738.8513612594006
1513.4064794404076 2826.5795346135938
1514.1855242808433 2871.614728756865
1514.9643797016215 2775.4808294910586
1515.743045753552 2885.4200078994336
1516.5215224874191 2870.7698965022946
1517.2998099539836 2577.4381711003184
1518.077908203999 2747.498584494815
1518.8558172881785 2676.0189193260967
1519.633537257234 2830.8859393841803
1520.4110681618404 2904.354477985535
1521.1884100526604 2803.9907452038806
1521.9655629803365 2753.033542081597
1522.7425269954856 2979.7168041908544
1523.5193021487103 3109.993360914695
1524.2958884905856 2704.3340613416794
1525.0722860716687 2817.317443061979
1525.848494942502 2727.9439264500666
1526.624515153595 2767.9459204743
1527.4003467554485 2790.1579708264694
1528.175989798534 2857.8817881453033
1528.9514443333064 2800.1573500768855
1529.726710410203 3002.1405473683435
1530.5017880796331 2585.805419558399
1531.276677391992 2838.388495838785
1532.0513783976457 3053.6094389201944
1532.825891146953 2744.3497324727623
1533.6002156902414 2863.908453291735
1534.3743520778207 2879.758310161917
1535.1483003599806 2898.7309745923603
1535.9220605869923 2914.0889412256256
1536.6956328091019 2926.4980538186765
1537.4690170765407 2817.6686639169
1538.242213439511 2943.830114538251
1539.015221948208 2912.7146122548766
1539.78804265279 2785.3612828446885
1540.560675603405 2780.23683225311
1541.3331208501804 3047.4638622541465
1542.1053784432224 3064.0636024734094
1542.8774484326168 2870.588236097887
1543.649330868422 2996.519444120112
1544.4210258006842 2941.0618157591043
1545.1925332794308 2972.989890854293
1545.9638533546604 2868.3377452661707
1546.7349860763552 2853.12848945525
1547.5059314944829 3159.7091488967344
1548.27668965898 2937.206807191447
1549.0472606197673 2982.665386722145
1549.817644426752 2762.1797197085803
1550.5878411298072 3017.317423921096
1551.3578507787988 2987.4528777694823
1552.1276734235635 2839.2020013976626
1552.8973091139233 2979.7586102954087
1553.6667578996767 3097.2564623645017
1554.436019830604 2924.072040564165
1555.20509495646 2869.8726657517864
1555.9739833269869 2862.8574199414993
1556.7426849919011 2951.175804560504
1557.511200000903 3102.0775966856845
1558.2795284036674 2985.655675301916
1559.0476702498509 2834.735225398333
1559.8156255890954 3066.7157984056603
1560.5833944710157 3358.753678511377
1561.3509769452048 2861.9449254017104
1562.1183730612447 2925.2669837135018
1562.8855828686865 2952.0573176084595
1563.6526064170703 3270.1577594695905
1564.4194437559127 3075.282768358469
1565.1860949347047 2947.102695312058
1565.9525600029283 3210.9090504489172
1566.7188390100328 3410.6041025697714
1567.4849320054564 2889.726168485065
1568.250839038612 2939.217653759347
1569.0165601588997 3044.4060904946614
1569.7820954156887 3180.385865955546
1570.5474448583373 2968.9007028926217
1571.31260853618 2995.4737227440064
1572.0775864985299 2904.338738879668
1572.8423787946813 3131.757479367822
1573.6069854739108 2946.7224662143676
1574.371406585471 3102.053351964969
1575.1356421785986 3094.685018554673
1575.899692302506 2980.392704436084
1576.6635570063845 3102.909322894347
1577.4272363394157 2990.9019983004973
1578.190730350747 2937.149640862857
1578.9540390895163 3048.8873409176767
1579.7171626048384 2709.5563068653564
1580.480100945806 2805.3331046456615
1581.2428541614918 2918.611157878441
1582.0054223009538 3085.878927441446
1582.767805413223 2935.065405728591
1583.5300035473156 2993.43611571183
1584.292016752228 3115.059427709781
1585.0538450769309 3064.599630308466
1585.8154885703807 2849.704783935157
1586.5769472815136 2848.7524641029772
1587.3382212592405 2933.7110798516305
1588.099310552463 3142.7904850975638
1588.8602152100484 3159.2518744064782
1589.6209352808564 3081.1939918871803
1590.3814708137234 2907.7790339948438
1591.14182185746 3008.3259260681816
1591.9019884608679 2903.037358492268
1592.6619706727215 2710.018559621251
1593.4217685417734 3031.2661713776456
1594.1813821167616 3175.549064469814
1594.9408114464022 2869.44784356774
1595.7000565793933 2904.8617191649273
1596.459117564409 3057.8837559040658
1597.2179944501113 2870.7868136369834
1597.9766872851324 2864.0726933465244
1598.735196118092 3085.112972689568
1599.4935209975883 3043.0680679062248
1600.2516619721973 3119.105806233698
1601.0096190904787 2931.39698470408
1601.7673924009723 2916.050388712632
1602.524981952196 2848.8291503158466
1603.2823877926476 2942.3480867401295
1604.0396099708087 2792.2534119787074
1604.7966485351371 2745.0177325321138
1605.5535035340745 2820.889529206316
1606.3101750160404 3000.1304427803325
1607.0666630294363 2698.994644424899
1607.822967622642 2764.0406004853257
1608.5790888440224 2868.4984549573555
1609.3350267419137 3013.7217719468645
1610.0907813646445 2920.811645988407
1610.8463527605145 2786.1575840987953
1611.601740977805 2987.9427641582306
1612.356946064785 2830.2215675153043
1613.1119680696902 2624.165351583556
1613.8668070407512 2781.7997667858294
1614.6214630261748 2824.30962638943
1615.375936074137 2940.609028438254
1616.1302262328118 2902.02524011464
1616.8843335503425 2934.4452188190216
1617.638258074854 2773.516221919993
1618.391999854457 2948.7187746211303
1619.1455589372363 2980.3628653940464
1619.8989353712623 2848.303259988675
1620.65212920458 2608.2557904110954
1621.4051404852235 2727.2972336547646
1622.1579692611976 2844.861650093969
1622.9106155804966 2606.172858293256
1623.663079491087 2744.038158581386
1624.4153610409248 2893.8006876742907
1625.1674602779385 2675.3687175986133
1625.9193772500403 2609.122540797314
1626.6711120051277 2930.8439807567456
1627.4226645910676 2780.8204788914345
1628.174035055721 2671.5643856898387
1628.9252234469168 2824.944309549117
1629.676229812474 2675.8295495952225
1630.4270542001905 3121.6986692494675
1631.1776966578382 2785.9557948753127
1631.9281572331747 2764.560854724322
1632.678435973945 2945.924174047934
1633.4285329278573 2900.436790473964
1634.1784481426203 2586.692949565778
1634.9281816659113 2715.377448173053
1635.677733545388 2982.656977905617
1636.4271038286934 2800.6277708569096
1637.176292563452 3007.6497106240736
1637.9252997972635 2860.4143649117623
1638.674125577716 2977.160750427825
1639.4227699523672 3134.043542060427
1640.171232968767 2719.076558924973
1640.9195146744423 2890.637860288381
1641.6676151168977 2965.663294634148
1642.4155343436178 3024.861162997768
1643.1632724020765 2927.0222639442627
1643.9108293397167 2863.1326070780547
1644.658205203974 2859.4627334172433
1645.4054000422566 3314.6149545131566
1646.1524139019566 2822.2942938330802
1646.8992468304423 2777.875538969139
1647.6458988750728 2855.5476827758985
1648.3923700831765 2904.33864729289
1649.1386605020743 2766.1225323496374
1649.8847701790564 3205.1405833004087
1650.6306991614038 2914.6023065269146
1651.3764474963682 3044.064972483682
1652.1220152311944 2630.2061090104203
1652.867402413096 3000.6322290259423
1653.6126090892776 2965.898220083515
1654.3576353069184 3077.0425038916305
1655.1024811131829 2881.1745387611763
1655.8471465552066 2886.153501100775
1656.5916316801213 3105.8645642505658
1657.3359365350298 2998.4401183848045
1658.0800611670165 2884.702309315072
1658.824005623148 2982.738495143957
1659.5677699504722 2771.0361446094844
1660.3113541960192 3009.6274577553786
1661.054758406799 2932.978164213287
1661.7979826297997 2691.5692396258214
1662.5410269119966 2823.8720050611446
1663.283891300338 3035.2972756658987
1664.0265758417645 2798.3364292464157
1664.7690805831826 2930.088122876615
1665.5114055714948 3035.0835524401073
1666.2535508535748 3148.5785499222675
1666.9955164762814 2660.5283136222147
1667.7373024864555 2861.361754981338
1668.478908930916 2911.128820534144
1669.220335856462 2920.9893831499803
1669.9615833098778 2674.887789009537
1670.7026513379296 2650.97677623236
1671.44353998736 2807.0753158174484
1672.1842493048916 2861.6730708978216
1672.9247793372379 2701.3508429633603
1673.6651301310812 2813.445294859589
1674.4053017330934 2656.167605781069
1675.1452941899242 2866.7557711722793
1675.885107548207 2392.6381894666656
1676.6247418545518 2466.7166934416664
1677.3641971555535 2535.1304722541763
1678.1034734977893 2807.2552055695865
1678.8425709278108 2661.7686810869973
1679.5814894921605 2718.487870163807
1680.320229237359 2630.574751613272
1681.0587902098978 2716.545923784281
1681.7971724562685 2546.919057891575
1682.5353760229264 2430.337025604268
1683.2734009563173 2775.0110180220972
1684.0112473028657 2439.1092878014256
1684.7489151089794 2587.9266298654425
1685.4864044210462 2776.014048180993
1686.2237152854377 2305.2425517925776
1686.960847748498 2652.0759602384724
1687.6978018565642 2408.089802538563
1688.434577655944 2425.4013840119806
1689.1711751929379 2260.782313239402
1689.9075945138156 2614.963051453248
1690.6438356648396 2465.5036175260984
1691.3798986922448 2160.0706895936987
1692.1157836422499 2450.8850507119896
1692.851490561059 2313.6680190041657
1693.587019494853 2496.8159065685386
1694.3223704897991 2224.8493533698465
1695.0575435920364 2183.0439240906803
1695.792538847696 2510.5778976363026
1696.527356302886 2269.24192506192
1697.2619960036936 2079.543196964348
1697.9964579961907 2156.609709112806
1698.730742326432 1962.3554692798818
1699.4648490404488 1990.483714087899
1700.1987781842563 2203.2618871980562
1700.9325298038548 2387.7462468532117
1701.6661039452174 2534.36101331856
1702.3995006543082 2280.5997393332177
1703.1327199770658 2362.1578614280234
1703.865761959416 2123.5774299617533
1704.598626647261 2359.787450037524
1705.3313140864866 2022.455593180785
1706.0638243229587 2133.2122504182425
1706.7961574025303 2256.7330259312175
1707.528313371029 2238.7737514818873
1708.260292274268 2064.8736088419105
1708.9920941580403 2141.1050957728116
1709.7237190681226 2149.25065495523
1710.4551670502697 2101.755733565292
1711.18643815022 1926.7394761700111
1711.9175324136959 2033.0238837992704
1712.6484498863938 2139.4749349862905
1713.379190614005 2024.376890941982
1714.109754642188 2075.5445223391903
1714.8401420165883 2109.867105451639
1715.570352782839 2137.325190868789
1716.3003869865497 2164.9186755512105
1717.0302446733076 2013.4575031653226
1717.7599258886876 2064.4853232493547
1718.4894306782444 2012.9565400388315
1719.2187590875183 1961.2966059049882
1719.9479111620203 2270.9336196677914
1720.6768869472544 2041.6892644817588
1721.4056864887025 2318.2377120978167
1722.1343098318284 2328.487383104618
1722.8627570220742 2139.996225512084
1723.591028104871 2044.2446366016757
1724.3191231256242 1901.6840750876268
1725.0470421297232 2067.0726505547163
1725.7747851625427 2123.4516586791897
1726.5023522694337 2206.837176908325
1727.2297434957363 2158.329949764978
1727.9569588867635 1897.1220477936215
1728.6839984878152 2096.3896721982915
1729.4108623441734 1698.403292243252
1730.1375505011038 2094.341378299011
1730.8640630038426 1891.9584461028444
1731.5903998976264 1973.8540650726707
1732.316561227657 2008.4717435125197
1733.0425470391274 1856.9150118131759
1733.7683573772065 2008.6262319561126
1734.4939922870508 1985.220133178464
1735.2194518137949 2081.8781745325605
1735.9447360025606 1973.045097986041
1736.669844898439 1943.8681730227825
1737.3947785465189 1862.5954930984778
1738.1195369918605 1801.62653798979
1738.8441202795093 2029.3192535885016
1739.5685284544943 2111.8761417716546
1740.292761561821 1983.9345529039915
1741.0168196464838 2044.1351611180344
1741.7407027534518 2042.2946374287978
1742.464410927687 2106.4066170184615
1743.187944214118 1990.3490681632004
1743.9113026576688 1977.8968232101247
1744.634486303241 2010.1211084091083
1745.3574951957125 2027.1567669844972
1746.0803293799509 2151.3427858691384
1746.8029889008048 2034.7305480908938
1747.5254738031017 2002.0287629912414
1748.2477841316504 1891.3283742200558
1748.969919931249 1992.912509554187
1749.6918812466665 1902.0899995470252
1750.4136681226646 2140.9368961271766
1751.1352806039777 1937.729978239621
1751.856718735331 1751.2290932516894
1752.5779825614281 1819.9386733081276
1753.2990721269507 2044.3862760047928
1754.0199874765676 2045.1579475056672
1754.7407286549314 1882.227976046413
1755.4612957066693 1902.1867566484154
1756.1816886763954 1800.1847294092618
1756.9019076087097 1975.273754824817
1757.6219525481865 2015.869199002461
1758.3418235393856 2039.0633267554508
1759.061520626854 1980.6516046634947
1759.7810438551096 2172.776817122638
1760.5003932686614 1838.252843785079
1761.2195689119999 2084.55224453946
1761.938570829594 1980.4329746649928
1762.657399065898 1950.9027411182713
1763.376053665348 1775.361836906214
1764.0945346723602 1760.8789499669851
1764.812842131334 2111.53423024072
1765.5309760866512 1855.061699473362
1766.2489365826787 1807.0884247328027
1766.9667236637597 1861.6597564367155
1767.684337374223 1637.689047526264
1768.401777758383 1714.4788810960167
1769.1190448605284 1811.2785814862266
1769.836138724937 1690.5045772384346
1770.5530593958665 1963.644078504761
1771.2698069175603 2114.342289082007
1771.9863813342326 1966.4819216318606
1772.702782690094 1856.3954746253337
1773.4190110293293 1886.140610361514
1774.1350663961111 1863.960164674562
1774.8509488345844 1811.255745390576
1775.5666583888924 1906.848663119102
1776.2821951031437 2087.9820884696037
1776.9975590214362 1916.6965194492743
1777.7127501878585 1945.2374888233928
1778.4277686464684 1999.5131451725053
1779.1426144413108 2026.7424223082621
1779.8572876164162 2119.9142971623414
1780.571788215797 1748.560346077073
1781.2861162834415 1906.9521213070086
1782.0002718633277 1819.5639308022596
1782.7142549994132 2013.0018207635967
1783.4280657356376 1914.9898325843042
1784.141704115922 1834.4251156419346
1784.855170184177 1839.169376792927
1785.5684639842839 1906.0121113164303
1786.2815855601148 1967.6194530136586
1786.9945349555237 2029.3009627510867
1787.707312214343 1731.2266189330262
1788.4199173803918 1731.831757139953
1789.132350497468 1732.5885429858608
1789.8446116093583 1828.4970746208778
1790.556700759822 1809.3199192114148
1791.2686179926077 1933.384417844698
1791.9803633514493 1825.5967159565323
1792.6919368800554 1773.8159282418983
1793.4033386221236 1951.2979507551295
1794.1145686213295 1968.9273015532012
1794.8256269213307 2097.829543972154
1795.536513565774 1940.3209105962135
1796.247228598284 1586.5234307406445
1796.9577720624693 1854.0891006018326
1797.6681440019165 1919.2522298886372
1798.3783444602013 1724.6121561389289
1799.0883734808776 1861.2611843135394
1799.7982311074884 1906.6046912727045
1800.5079173835475 1936.2432965376288
1801.2174323525633 1861.8263462649825
1801.9267760580187 1733.5112943794345
1802.635948543386 1853.682782937009
1803.3449498521113 1654.7518845349696
1804.0537800276325 1849.4008824672287
1804.7624391133668 1778.5090216370572
1805.47092715271 1646.2404170738046
1806.1792441890484 1745.9666848384472
1806.8873902657433 1899.7950468865263
1807.5953654261448 1870.417050332929
1808.3031697135812 1776.224623875321
1809.0108031713662 1771.6782761350798
1809.71826584279 1780.3970748695806
1810.425557771141 1838.1781242876823
1811.1326789996747 2121.6729594314484
1811.839629571632 1774.4600684913262
1812.5464095302468 1777.0099529850238
1813.2530189187182 1769.473853412673
1813.959457780249 1803.6104482628275
1814.6657261580076 1876.9954939891697
1815.371824095153 1766.6888799852927
1816.0777516348262 1685.1553994207454
1816.78350882015 1603.5961529338365
1817.4890956942272 1576.8050323383354
1818.1945123001533 1749.2241241562256
1818.8997586809928 1868.2722892663737
1819.6048348798067 1594.5024890433824
1820.3097409396287 1729.4987335851947
1821.0144769034796 2154.7790373345592
1821.7190428143622 1880.5272639029238
1822.423438715261 1976.9725219258714
1823.1276646491478 1737.4790168205916
1823.8317206589727 1776.6245860576103
1824.5356067876692 1735.9050062274232
1825.2393230781581 1895.1363527887593
1825.942869573335 1588.7345007230035
1826.646246316086 1728.641188835921
1827.3494533492758 1821.530020723755
1828.052490715756 1874.9599182582347
1828.7553584583547 1776.174917295993
1829.458056619891 1878.531475651425
1830.1605852431585 1787.3867119764031
1830.8629443709433 1590.9790533102216
1831.5651340460063 1774.4881564492425
1832.2671543110919 1583.1418234702967
1832.9690052089318 1575.5622868130833
1833.6706867822395 1568.0930693202533
1834.3721990737104 1797.2348401543932
1835.0735421260233 1879.0484117655656
1835.774715981841 1786.194370255908
1836.4757206838058 1934.9670049410947
1837.1765562745459 1740.2003993329195
1837.8772227966747 1667.697670815104
1838.5777202927839 1750.409953886917
1839.2780488054523 1632.4252023001668
1839.9782083772352 1672.4456264788228
1840.6781990506806 1959.8303426308842
1841.378020868313 1728.0412804607295
1842.0776738726418 1843.8664380983894
1842.777158106157 1759.1490488585634
1843.4764736113375 1706.2569352665419
1844.1756204306403 1829.0210046682173
1844.8745986065078 1902.6203905135303
1845.5734081813607 1592.6719953006022
1846.2720491976124 1707.3263675827125
1846.970521697649 1685.5670659327297
1847.6688257238511 1718.8645458124709
1848.3669613185684 1660.3760077002614
1849.0649285241452 1582.9780062866741
1849.7627273829057 1741.2319087127012
1850.460357937156 1677.974860931406
1851.1578202291857 1478.9784058456232
1851.8551143012664 1834.104210183465
1852.5522401956569 1733.1497845563467
1853.2491979545957 1852.1252045056485
1853.9459876203055 1584.7895535017014
1854.6426092349902 1580.3289607875538
1855.3390628408451 1635.5653647848394
1856.0353484800362 1967.1071608402053
1856.7314661947203 1760.497182659898
1857.4274160270397 1623.6162164434504
1858.123198019115 1686.299291759725
1858.8188122130487 1511.9543304946105
1859.5142586509319 1607.5485364016915
1860.209537374838 1713.6818868652947
1860.9046484268183 1694.1799052965112
1861.599591848917 1818.7319502896996
1862.294367683151 1667.1868037765078
1862.988975971528 1728.3867116051701
1863.6834167560355 1804.4442067120103
1864.3776900786452 1912.8083778208086
1865.0717959813119 1577.8646621601579
1865.7657345059724 1547.6149248775068
1866.4595056945564 1709.3122201225535
1867.1531095889586 1767.4046855062704
1867.846546231076 1584.4533430323222
1868.5398156627743 1807.0839252208184
1869.2329179259123 1582.7860603658432
1869.9258530623283 1818.0836127846626
1870.618621113843 1530.2373254746353
1871.3112221222636 1574.4815734419712
1872.0036561293764 1638.069246771804
1872.695923176956 1772.9124925557146
1873.3880233067594 1887.7101543062804
1874.0799565605212 1431.3874037150704
1874.7717229799673 1621.8940222991437
1875.4633226068036 1918.5263270961193
1876.1547554827175 1724.1932544009458
1876.8460216493859 1593.135462113705
1877.5371211484617 1647.4620988261672
1878.2280540215852 1836.310328759874
1878.9188203103804 1555.382133872818
1879.6094200564548 1638.9900303202799
1880.299853301396 1583.5099347423188
1880.9901200867826 1808.3004213288448
1881.6802204541673 1746.608440691415
1882.3701544450942 1668.8027326946049
1883.059922101087 1471.7038468110109
1883.7495234636517 1545.7008505364367
1884.4389585742792 1619.7744675569008
1885.1282274744517 1587.001811232221
1885.8173302056166 1663.401490309164
1886.506266809225 1739.9057338994728
1887.195037326701 1534.8432867562606
1887.8836417994517 1696.737569224067
1888.5720802688702 1961.7233748464582
1889.260352776333 1805.7065985680597
1889.9484593632042 1899.3298582362072
1890.63640007082 1623.0223253803401
1891.3241749405151 1557.0719289525648
1892.0117840135954 1737.886807025973
1892.6992273313572 1661.1766511399394
1893.3865049350788 1435.0713111053692
1894.0736168660223 1572.5594891890748
1894.7605631654333 1710.2086411721386
1895.4473438745408 1546.5290511245717
1896.133959034556 1648.574704533247
1896.820408686679 1750.6738445580554
1897.506692872088 2008.1397996304324
1898.192811631945 1675.9260254705046
1898.8787650073991 1662.4438399814867
1899.5645530395832 1766.5877059503478
1900.2501757696118 1718.8991486154548
1900.9356332385796 1854.2361895305926
1901.620925487574 1583.7968328758864
1902.3060525576602 1707.7195745596814
1902.9910144898859 1702.1151206979084
1903.6758113252872 1507.489247551175
1904.3604431048789 1833.1300727222424
1905.0449098696663 1723.9867224926588
1905.7292116606295 1605.4917458244277
1906.4133485187394 1707.7184528312978
1907.0973204849488 1372.2456697735925
1907.7811276001976 1493.5991932923093
1908.4647699053967 1623.4019622750925
1909.1482474414588 1058.2999366436984
1909.8315602492694 1413.6096773156694
1910.5147083696957 1844.8280279472867
1911.1976918436012 1565.0135030982815
1911.880510711815 1501.8333515179093
1912.5631650151681 1514.0061130455092
1913.2456547944657 1526.1551608003244
1913.927980090495 1664.6427335741064
1914.6101409440362 1543.0811509374844
1915.2921373958416 1667.9418285435356
1915.9739694866603 1547.173646588058
1916.655637257214 1541.862862378463
1917.3371407482136 1536.5540451692505
1918.0184800003572 1859.133371613325
1918.6996550543154 1749.2477755103887
1919.3806659507554 1666.960017338765
1920.0615127303208 1673.5826894463848
1920.7421954336423 1758.1423477081894
1921.4227141013343 1902.2009411305976
1922.103068773993 1689.367795821197
1922.783259492202 1779.5827565311931
1923.4632862965227 1650.301201850379
1924.1431492275078 1459.4758037999964
1924.8228483256917 1545.274523959939
1925.5023836315922 1513.7551448267734
1926.1817551857057 1675.9239296384926
1926.8609630285227 1499.3288485577784
1927.5400072005123 1686.6547640508609
1928.218887742125 1569.3391206363879
1928.8976046938005 1471.572227272518
1929.5761580959588 1708.4475184825071
1930.2545479890086 1644.6285041010135
1930.9327744133352 1663.916188001951
1931.6108374093164 1683.2908965670595
1932.2887370173066 1894.408171438734
1932.9664732776473 1799.001193868848
1933.6440462306673 1703.3097799149477
1934.3214559166754 1591.7438050057694
1934.9987023759659 1895.260804903816
1935.675785648813 1669.9142226675624
1936.3527057754836 1280.0648657354902
1937.029462796223 1367.3101115408203
1937.70605675126 1454.773481229174
1938.3824876808085 1459.232958767947
1939.058755625072 1524.680939736742
1939.7348606242267 1557.8869901967269
1940.4108027184448 1606.4525887291295
1941.0865819478713 1842.422029366955
1941.7621983526478 1554.6638097996222
1942.4376519728921 1473.1091407581575
1943.1129428487038 1548.5949902452883
1943.7880710201734 1626.1334826634397
1944.4630365273733 1742.231428751439
1945.1378394103576 1380.435316430521
1945.8124797091714 1392.420396133451
1946.4869574638324 1404.3805745214918
1947.161272714353 1521.4805659250337
1947.8354255007234 1666.7652603600952
1948.5094158629272 1421.8116857746436
1949.1832438409183 1645.5878647011625
1949.8569094746435 1667.3957647248935
1950.530412804037 1819.1002047809466
1951.2037538690092 1794.532893635968
1951.8769327094578 1442.7254831919704
1952.5499493652678 1600.395526262046
1953.222803876306 1800.0772582964848
1953.895496282421 1672.0225268189884
1954.5680266234522 1606.0191887772971
1955.2403949392155 1636.3354988014291
1955.9126012695142 1473.5562038322519
1956.5846456541403 1618.908828651094
1957.2565281328643 1536.9603230782056
1957.9282487454457 1836.0172484219897
1958.5998075316202 1767.917990369608
1959.27120453112 1527.5673054548993
1959.9424397836501 1725.6261019124752
1960.613513328908 1568.2442920477802
1961.2844252065697 1808.8420166406588
1961.9551754563017 1525.560875940426
1962.6257641177453 1406.8276186429669
1963.29619123054 1341.925422452648
1963.966456834296 1420.4851170969446
1964.6365609686181 1432.157179262762
1965.306503673086 1699.8430099086502
1965.976284987275 1436.681234290943
1966.645904950734 1680.910036368241
1967.315363603002 1425.2653753621987
1967.9846609836077 1614.3353339535663
1968.6537971320486 1457.008903949404
1969.3227720878222 1624.3686707064148
1969.9915858904042 1607.1012509419745
1970.660238579252 1621.4719554438354
1971.3287301938108 1622.1147621421462
1971.997060773514 1544.787314405601
1972.665230357772 1490.321564223486
1973.3332389859843 1428.0314228612106
1974.0010866975335 1321.1737821311349
1974.6687735317864 1453.2588542558537
1975.3362995280932 1623.2995832911397
1976.003664725793 1657.4307574814916
1976.6708691642052 1310.653675697305
1977.3379128826364 1516.5230090818104
1978.004795920373 1747.4498328665268
1978.6715183166925 1499.3917940604194
1979.3380801108524 1704.5897117275222
1980.0044813420973 1501.143132580545
1980.6707220496555 1520.0924595090257
1981.3368022727373 1539.1842780751608
1982.0027220505417 1710.3721718095894
1982.66848142225 1539.8180584437623
1983.3340804270283 1369.045905935148
1983.999519104027 1578.924094687954
1984.6647974923835 1507.2707465013184
1985.329915631215 1639.3648691919848
1985.99487355963 1494.1648579731607
1986.6596713167146 1799.4846074994196
1987.3243089415428 1771.8723958495546
1987.9887864731754 1744.163642912131
1988.6531039506553 1398.5457164997792
1989.3172614130071 1397.216330774209
1989.9812588992481 1395.9066406959234
1990.645096448372 1186.7252617272247
1991.3087740993633 1601.9402631474918
1991.9722918911848 1483.8230190656504
1992.635649862792 1594.7680468728743
1993.2988480531185 1592.2286503854612
1993.9618865010852 1494.70286096868
1994.6247652455968 1397.0460290931403
1995.287484325545 1413.8434907833184
1995.9500437798033 1421.5699307274142
1996.6124436472292 1405.8895689109993
1997.2746839666706 1602.8128884680625
1997.936764776954 1441.0129757463058
1998.598686116895 1425.327193905848
1999.2604480252903 1595.2470517307215
1999.9220505409212 1689.5006695210081
2000.5834937025593 1411.6871109027547
2001.2447775489582 1404.8949932483363
2001.9059021188514 1570.012617898
2002.5668674509616 1306.3808090696625
2003.2276735839987 1518.91340876205
2003.8883205566508 1713.0804319774463
2004.5488084075987 1450.7604169288927
2005.2091371755014 1468.2990290690718
2005.8693068990033 1343.1342947116789
2006.5293176167397 1535.7948433480346
2007.1891693673224 1289.452515666275
2007.848862189354 1371.6524062016629
2008.5083961214223 1376.244208959093
2009.1677712020955 1446.4540270332877
2009.8269874699254 1438.8447428459865
2010.4860449634598 1341.6560714062423
2011.1449437212177 1244.2917274654772
2011.8036837817108 1692.3591840205863
2012.4622651834325 1530.4665501991594
2013.1206879648653 1472.9947848674442
2013.7789521644736 1319.842084498488
2014.4370578207036 1620.4988079294621
2015.0950049719922 1471.3061593334094
2015.7527936567585 1654.916774337836
2016.4104239134067 1361.5857490722742
2017.067895780323 1841.645720698604
2017.725209295886 1836.8141329814316
2018.3823644984514 1831.9243799577223
2019.0393614263648 1539.1400458473938
2019.6962001179545 1472.0866792702016
2020.3528806115355 1598.6842787617516
2021.0094029454067 1583.7916441009552
2021.6657671578487 1269.8595369479867
2022.321973287133 1466.2957494761179
2022.9780213715148 1512.3487146651619
2023.6339114492293 1574.713898319714
2024.2896435585026 1420.3490820500215
2024.9452177375442 1514.1395166096338
2025.600634024544 1677.2935354490805
2026.2558924576842 1507.3957953148501
2026.9109930751292 1740.3746829844854
2027.565935915025 1752.041814748513
2028.2207210155066 1763.7272662567382
2028.8753484146964 1690.6089857113432
2029.529818150695 1173.9700793166564
2030.1841302615903 1697.1927231025923
2030.8382847854573 1259.540397269176
2031.4922817603601 1608.0697092248718
2032.1461212243357 1515.946399366939
2032.7998032154192 1306.0723601479458
2033.4533277716218 1298.6480836209578
2034.1066949309443 1353.6908696041548
2034.7599047313688 1299.8459975191674
2035.4129572108704 1551.7740317902512
2036.0658524074006 1449.4193027827068
2036.7185903589016 1709.538988288045
2037.3711711032956 1510.168150679809
2038.023594678496 1489.4296739910544
2038.675861122394 1332.8686804082881
2039.3279704728757 1325.47451709779
2039.9799227678031 1318.185460036061
2040.6317180450278 1449.5963256491293
2041.2833563423865 1482.5530451571706
2041.9348376977014 1836.9179598235223
2042.5861621487784 1712.2788934794382
2043.2373297334088 1506.9699820836822
2043.8883404893695 1534.2646157017957
2044.5391944544208 1686.5576515145906
2045.1898916663158 1721.589038529258
2045.8404321627804 1826.9958829273953
2046.4908159815368 1429.7222678913358
2047.1410431602853 1320.8274985293635
2047.7911137367173 1301.3841649608992
2048.441027748504 1259.4241490599074
2049.090785233302 1217.3765560429756
2049.7403862287592 1440.1644139263553
2050.389830772503 1357.1610908224122
2051.0391189021466 1274.1179640234866
2051.688250655294 1488.3775000154942
2052.337226069527 1312.6809942991906
2052.986045182417 1607.3399613845218
2053.634708031521 1191.7991358767256
2054.283214654375 1612.1575663829499
2054.931565088511 1210.7540306932144
2055.579759371436 1298.7669425011727
2056.2277975406523 1513.45191740254
2056.8756796336384 1348.2984830075507
2057.5234056878617 1182.7500686001529
2058.1709757407752 1398.4348837483967
2058.8183898298194 1750.013636137704
2059.465647992416 1546.469456771162
2060.1127502659747 1712.1090955505892
2060.759696687888 1625.0327204006323
2061.4064872955405 1537.9529618128984
2062.053122126292 1649.2678509822294
2062.699601217497 1493.1666801590159
2063.345924606485 1337.0852850067429
2063.992092330587 1397.6583244002964
2064.638104427102 1273.3571794234188
2065.283960933324 1374.914681882025
2065.92966188653 1476.575039275016
2066.5752073239855 1410.1679261160361
2067.2205972829397 1343.712919429266
2067.86583180062 1530.8166523695338
2068.5109109142522 1373.3614379262267
2069.15583466104 1348.3877320676518
2069.8006030781708 1323.3921578716222
2070.445216202821 1372.9951498708845
2071.089674072153 1552.5771691675573
2071.7339767233116 1463.7614063922379
2072.3781241934303 1726.8487608280327
2073.0221165196253 1633.5122534792745
2073.6659537390024 1371.6852512157245
2074.3096358886505 1533.569364945902
2074.953163005637 1448.7314225313346
2075.596535127028 1322.6403299387653
2076.2397522898664 1436.8249866767658
2076.882814531182 1467.5354669593635
2077.5257218879924 1555.5969579479788
2078.1684743973 1312.2687082730627
2078.8110720960885 1307.3440395686036
2079.453515021336 1359.231257505053
2080.095803209997 1411.1412291538568
2080.7379366990135 1463.636597931212
2081.37991552532 1585.1661300402359
2082.0217397258275 1634.2942983921716
2082.6634093374414 1559.1365457602692
2083.3049243970418 1483.9624344353183
2083.9462849415067 1528.6919657931726
2084.587491007689 1520.5357401894926
2085.2285426324324 1566.7468827437663
2085.869439852564 1540.3272145054036
2086.510182704902 1256.0140105310595
2087.1507712262483 1450.4124713435153
2087.791205453381 1327.694613098164
2088.4314854230743 1538.6606757413638
2089.0716111720867 1393.7110384012617
2089.7115827371617 1238.0830169375315
2090.351400155023 1268.7917319976414
2090.991063462385 1299.619507538819
2091.6305726959527 1304.3773686052255
2092.2699278924047 1630.955685241752
2092.9091290884153 1445.9709334930847
2093.548176320641 1229.0786231333109
2094.187069625721 1188.907777432811
2094.8258090402887 1148.6483366640325
2095.464394600951 1509.748804354148
2096.102826344313 1598.2458145314504
2096.741104306955 1597.6716499653674
2097.379228525453 1397.1773053803913
2098.017199036358 1561.2020772859566
2098.6550158762147 1389.0775227306656
2099.2926790815527 1610.6496671548607
2099.9301886888825 1430.484277676802
2100.5675447347076 1345.69030842007
2101.2047472555114 1517.5686511251756
2101.841796287761 1387.6524052709078
2102.47869186792 1370.1557703820904
2103.1154340324265 1328.886661819381
2103.752022817709 1518.1639305790088
2104.388458260184 1436.5235468238004
2105.024740396251 1486.9660926297797
2105.660869262292 1372.940327583311
2106.296844894685 1572.7336261067192
2106.93266732978 1477.7342505238382
2107.5683366039284 1380.1532565242985
2108.2038527534532 1414.1941805154179
2108.8392158146726 1591.1344011813549
2109.4744258238843 1315.6173821383286
2110.1094828173755 1363.010217144754
2110.744386831422 1661.0845565004536
2111.3791379022787 1533.0101735069136
2112.01373606619 1807.9789626497811
2112.648181359389 1587.8625899611154
2113.28247381809 1508.8062829339303
2113.916613478492 1565.2781466062065
2114.550600376786 1615.7416676909068
2115.1844345491445 1319.8772561075707
2115.818116031729 1314.0371005920001
2116.451644860679 1248.4285686363419
2117.085021072133 1182.618976826044
2117.718244702204 1343.5913265497697
2118.3513157869984 1275.1763903490344
2118.984234362604 1275.0367436869517
2119.617000465092 1394.73854613641
2120.249614130529 1586.8358574809754
2120.8820753949585 1317.2940014338533
2121.5143842944162 1341.6795134514618
2122.14654086492 1398.1095161416583
2122.7785451424734 1599.7612482174768
2123.4103971630702 1580.6209949715228
2124.042096962681 1561.6101260498767
2124.6736445772767 1485.969631089126
2125.305040042802 1411.4358482350387
2125.936283395191 1467.7609231099743
2126.567374670365 1552.6364416333226
2127.198313904233 1502.4692149860985
2127.8291011326855 1375.0680960240422
2128.4597363916037 1247.2370232751332
2129.0902197168507 1381.3587913013207
2129.720551144279 1599.5610839267383
2130.3507307097225 1817.9682682847883
2130.980758449008 1758.0846891565336
2131.6106343979427 1693.0463615854085
2132.2403585923203 1627.8471571308037
2132.8699310679276 1639.894441556896
2133.499351860526 1533.311428334879
2134.1286210058715 1425.3787378741076
2134.7577385397053 1557.9659264182792
2135.3867044977487 1690.767702083259
2136.0155189157176 1749.378143323417
2136.644181829308 1541.4724059214857
2137.2726932742025 1360.9295849043076
2137.901053286074 1595.2839889523627
2138.5292619005777 1310.4595309690858
2139.1573191533535 1340.5036957221896
2139.7852250800315 1516.4887545228846
2140.4129797162295 1684.0143342116367
2141.0405830975433 1708.2700058754515
2141.6680352595613 1732.5919232631175
2142.2953362378576 1305.1334205682178
2142.9224860679915 1248.2894867720315
2143.549484785508 1316.5349694546344
2144.1763324259373 1277.3090621421438
2144.803029024799 1338.0668956088823
2145.429574617594 1241.6170322691346
2146.0559692398165 1430.490511174755
2146.682212926942 1336.2966538508892
2147.308305714432 1524.0293742391593
2147.9342476377333 1685.204189575486
2148.5600387322847 1808.3521147747238
2149.185679033506 1480.9334111635512
2149.8111685768017 1397.826593872907
2150.4365073975678 1208.892301389905
2151.061695531187 1406.47761089123
2151.686733013021 1602.0043208713848
2152.311619878423 1471.9406663439365
2152.9363561627342 1386.4302717253322
2153.560941901278 1307.0981953590967
2154.1853771293663 1495.5553152824637
2154.809661882293 1427.437488197414
2155.433796195348 1357.7444344704802
2156.0577801037944 1287.796215315227
2156.681613642895 1449.0772508451096
2157.3052968478896 1483.7120064703986
2157.928829754006 1518.3534349893675
2158.552212396462 1494.5042450548876
2159.1754448104566 1577.6275280451478
2159.7985270311783 1271.8568136609613
2160.4214590938027 1000.6504291328462
2161.0442410334927 1064.6520360561444
2161.6668728853874 1120.4495148213223
2162.289354684628 1176.3953861258246
2162.911686466332 1330.1429353135322
2163.533868265602 1595.5148291020473
2164.1559001175337 1800.3771431628488
2164.7777820572046 1570.9545751259718
2165.399514119681 1406.019880870616
2166.021096340013 1346.0469314789502
2166.6425287532384 1577.2583148843798
2167.263811394385 1611.1386069564915
2167.8849442984574 1645.212034355813
2168.505927500455 1387.4457769313713
2169.126761035366 1486.9496696577996
2169.7474449381552 1377.711234295939
2170.367979243778 1439.7415839782602
2170.9883639871823 1502.0008518198133
2171.608599203293 1342.6519696865398
2172.2286849270276 1741.3667007439394
2172.8486211932886 1821.3245488375148
2173.4684080369625 1531.1680711575282
2174.0880454929265 1219.10734995735
2174.7075335960417 1076.6432541452098
2175.3268723811543 1094.5184339989676
2175.9460618831 1112.4545058434524
2176.565102136701 1413.55329319039
2177.1839931767627 1406.77852828834
2177.802735038078 1400.006063921021
2178.421327755432 1317.9981990933577
2179.0397713635866 1247.7451417600337
2179.658065897298 1269.3568855923145
2180.276211391305 1504.7698646083422
2180.8942078803357 1273.7500842447175
2181.5120553991 1437.265542752719
2182.129753982299 1178.732143875813
2182.7473036646206 1325.0308290113724
2183.3647044807367 1575.1777233977
2183.9819564653044 1251.4269369788703
2184.599059652968 1518.3490855634464
2185.216014078367 1494.596780682689
2185.832819776113 1570.0122282187356
2186.4494767808137 1645.5168585648012
2187.065985127063 1433.4311028159977
2187.682344849436 1331.8664708940287
2188.298555982501 1320.8481711859172
2188.9146185608097 1309.7270596210292
2189.530532618901 1495.5001261006994
2190.1462981912937 1474.9594861150285
2190.761915312507 1625.8518167636544
2191.377384017036 1368.5705298963273
2191.9927043393654 1525.2208145618868
2192.6078763139667 1671.9989960619255
2193.2228999753006 1819.112186445098
2193.837775357808 1439.5654138831928
2194.452502495922 1012.7189209111845
2195.0670814240602 1328.8075972112097
2195.6815121766285 1267.0744642018499
2196.2957947880186 1168.1515416375807
2196.9099292926057 1069.0329882999863
2197.523915724758 1396.0980044746252
2198.137754118825 1197.938251660583
2198.7514445091456 1656.8740871141551
2199.3649869300443 1776.7566586383105
2199.9783814158327 1896.9938487931158
2200.5916280008096 1849.515316779531
2201.2047267192593 1693.9317189266967
2201.8176776054515 1356.3170214557572
2202.430480693649 1301.1169349808783
2203.0431360180955 1635.076829027899
2203.6556436130195 1684.5611217529445
2204.268003512645 1176.630148957431
2204.8802157511727 1213.174458971442
2205.492280362796 1302.2999384639484
2206.1041973816937 1391.7171971056798
2206.715966842032 1440.0301363165897
2207.3275887779655 1474.368910428249
2207.93906322363 1324.4785281659447
2208.550390213153 1575.188073215536
2209.1615697806465 1454.197381121449
2209.7726019602105 1331.347121520933
2210.3834867859277 1216.5510963873069
2210.9942242918787 1337.248566376776
2211.6048145121167 1343.5147733691801
2212.2152574806914 2006.879307704125
2212.825553231638 1327.6821893011675
2213.435701798975 2027.1172602450406
2214.045703216707 1439.5373874852417
2214.655557518832 951.9320562910586
2215.2652647393297 1189.5379028539833
2215.874824912169 1009.1197034301986
2216.4842380713 1419.4828205737301
2217.09350425067 1106.8491774873423
2217.7026234842033 1611.0605319529518
2218.311595805819 1695.804896853841
2218.9204212494133 1279.4801298848029
2219.52909984888 1662.620159309627
2220.137631638092 1726.6425117517658
2220.7460166509154 1790.6879473156525
2221.354254921198 1167.2434340592013
2221.9623464827764 1455.3694872888298
2222.5702913694713 1370.5273818422497
2223.178089615096 1330.1047706556274
2223.7857412534486 1289.607285002765
2224.39324631831 1133.783893033938
2225.000604843457 1385.684064962938
2225.607816862641 1519.6368021792337
2226.214882409611 1554.0724237934921
2226.8218015180973 1663.610583498302
2227.4285742218217 1556.236954493645
2228.0352005544864 1428.372895981759
2228.6416805497847 1380.653506014368
2229.248014241399 1332.8491288035414
2229.8542016629945 1136.432073415816
2230.460242848223 1618.5214388430131
2231.0661378307304 1797.9342500082435
2231.671886644139 1119.5235475383631
2232.277489322065 1155.0925643532194
2232.8829458981127 879.6169295639149
2233.48825640587 1357.3266786351119
2234.0934208789095 1800.730810849737
2234.6984393507955 1568.8773963218862
2235.3033118550793 1443.155178544976
2235.9080384252975 1355.2290520206714
2236.5126190949723 1129.9975221019868
2237.1170538976166 1389.4962331699057
2237.721342866729 1184.4627356974636
2238.32548603579 1172.262268109578
2238.9294834382763 1303.5557808638732
2239.533335107646 1512.7250931303686
2240.1370410773434 1444.968454093049
2240.740601380803 1420.4073842260716
2241.3440160514474 1395.8217940899754
2241.9472851226783 1517.5247308364703
2242.550408627896 1356.9065172602263
2243.1533866004793 1615.8024803727144
2243.756219073799 1469.7865572376547
2244.3589060812064 1202.551274747364
2244.961447656049 1243.4989342872645
2245.5638438316564 1262.377923349663
2246.166094641343 1454.4256118491267
2246.7682001184166 1131.517630695145
2247.3701602961664 1354.99429378508
2247.971975207871 1475.0442995942492
2248.5736448867974 1532.918072455818
2249.175169366197 1207.2753828243815
2249.7765486793123 1361.592259460102
2250.3777828593684 1453.5303840416755
2250.9788719395783 1479.9411440707183
2251.579815953146 1370.59757372486
2252.1806149332606 1195.388065063429
2252.781268913097 1381.2736420363585
2253.381777925817 1268.5577871110731
2253.9821420045737 1517.4931590866663
2254.5823611825035 1534.8963059044495
2255.1824354927303 1384.7032079198557
2255.782364968365 1202.8969930371954
2256.38214964251 1020.8766294540599
2256.9817895482483 1215.1421681964061
2257.5812847186553 1346.6928152262738
2258.180635186791 1086.3606983985192
2258.779840985704 1327.8739470150672
2259.37890214843 1240.23609965639
2259.97781870799 1334.7335771332114
2260.5765906973957 1429.4109841739717
2261.175218149645 1433.7079253665947
2261.773701097718 1243.902961138177
2262.3720395745895 1415.0282278327752
2262.970233613216 1257.3302127884058
2263.568283246548 1184.1207011815527
2264.1661885075137 1104.6905386631647
2264.763949429038 1278.3318401565714
2265.3615660440246 1728.3526110006665
2265.959038385374 1226.9670047332488
2266.5563664859637 1644.2001640668284
2267.153550378669 1113.2325674780457
2267.7505900963424 1563.143460220294
2268.3474856718312 1188.3015164778915
2268.9442371379664 1238.258487787338
2269.5408445275643 1407.4391046041703
2270.1373078734377 1494.5034427468386
2270.7336272083758 1278.8857345622584
2271.32980256516 1150.0812977268629
2271.925833976562 1209.5190335101747
2272.5217214753357 1159.3400101152276
2273.117465094223 1109.0372746089074
2273.7130648659586 1308.455432583162
2274.308520823257 1275.8771441695076
2274.903832998827 1230.907903835522
2275.4990014253563 1185.8409441066572
2276.094026135528 1429.2801615773942
2276.6889071620117 1481.5683259774692
2277.2836445374614 1533.882765570677
2277.878238294519 1412.8904702403256
2278.472688465812 1235.1161963133557
2279.066995083962 1057.0317454492845
2279.6611581815705 1247.0127859914166
2280.255177791232 1190.521952803457
2280.8490539455233 1481.9299644793987
2281.442786677013 1773.9080910395128
2282.0363760182554 1679.070886387358
2282.6298220017943 1322.4922865320043
2283.223124660155 1721.4948331256176
2283.816284025859 1222.337084888573
2284.4093001314086 1614.4406823961785
2285.002173009292 1527.9398784008295
2285.5949026919952 1441.23341619336
2286.1874892119777 1180.9990329006346
2286.7799326016993 1424.0955999838575
2287.3722328936 1048.394890838566
2287.964390120109 950.3133311633335
2288.556404313642 1486.5555725277889
2289.1482755066027 1810.8910934197036
2289.7400037313873 1552.1050873450067
2290.3315890203703 1273.9330617575092
2290.9230314059205 1393.4253166821559
2291.5143309203904 1091.0168108616099
2292.1054875961236 1357.8182704273381
2292.6965014654506 1633.1026653018423
2293.287372560684 1102.0085768641268
2293.878100914131 1173.7943263563673
2294.468686558086 1245.7711748665415
2295.059129524827 1348.9448894878667
2295.649429846617 1328.9254854579144
2296.239587555716 1308.824871500147
2296.8296026843636 1345.2599787952072
2297.419475264791 1258.7064263764385
2298.0092053292137 1171.9135572400485
2298.598792909839 1440.0933047725098
2299.1882380388597 1341.928929576282
2299.777540748455 1495.9003548716023
2300.3667010707904 1649.9834392916987
2300.9557190380256 1517.79084464335
2301.544594682302 1340.441417894695
2302.1333280357503 1162.8803782022744
2302.721919130485 1365.9911017278143
2303.3103679986198 1755.9362861746545
2303.898674672242 1599.4865446798844
2304.486839183437 1286.7824866274552
2305.0748615642697 1389.5449981952763
2305.6627418468015 1379.6976332318438
2306.2504800630704 1248.771776102364
2306.8380762451143 1410.3017796036715
2307.425530424949 1373.8759382236644
2308.012842634582 1337.3557887053485
2308.6000129060103 1754.3013096769414
2309.187041271214 1871.6492587799974
2309.773927762164 1286.656033939002
2310.3606724108213 1494.992482431419
2310.9472752491274 1579.955809465872
2311.5337363090184 1665.1606102511075
2312.120055622414 1458.024403111703
2312.706233221221 1538.3957802374878
2313.2922691373424 1030.7247611184023
2313.8781634026564 1114.8367170807712
2314.463916049037 1199.1370731912075
2315.049527108342 1422.5811863076465
2315.6349966124235 1776.5966920038052
2316.2203245931123 1542.949584592043
2316.8055110822315 1140.4029594241676
2317.3905561115935 1204.4591057597163
2317.9754597129977 1109.8740726551546
2318.560221918229 1129.3337644163107
2319.1448427590603 1148.8622518206846
2319.729322267256 1063.9241719719469
2320.313660474563 1311.1707960979652
2320.8978574127195 1447.6412689127096
2321.481913113452 1584.5450999732495
2322.0658276084705 1211.3589398863007
2322.6496009294806 1478.7247790397673
2323.233233108165 1582.8908862115745
2323.8167241762058 1363.9531134645867
2324.4000741652617 1338.9733074082642
2324.983283106987 1727.1029476383858
2325.5663510330232 1508.8454903008537
2326.1492779749933 1225.924873264568
2326.7320639645204 1623.1856588613105
2327.3147090332004 1207.889716428021
2327.897213212629 1321.8684680318943
2328.4795765343843 1435.9035539518213
2329.0617990300307 1112.266641698791
2329.643880731124 1757.3419267054512
2330.22582166921 1194.9580278611813
2330.807621875816 1753.0820021798104
2331.3892813824623 1012.088618773073
2331.9708002206517 1194.5559911684109
2332.5521784218818 1220.3551590669335
2333.133416017634 1246.2618090356468
2333.7145130393765 1347.988660895269
2334.295469518571 1637.3688746178907
2334.876285486658 1625.5117488054825
2335.456960975076 1086.0487918863041
2336.037496015242 1670.1703105660386
2336.6178906385667 1194.622063535486
2337.198144876451 1494.1384292342248
2337.778258760278 1636.5533578571612
2338.3582323214214 1507.0951578366055
2338.938065591243 1377.2982235114853
2339.517758601087 1729.9779945574458
2340.0973113822965 1631.9063122207033
2340.676723966193 1633.6137065006637
2341.255996384094 1569.6718437886307
2341.835128667295 1496.9456202074691
2342.4141208470883 1693.9801325843637
2342.992972954751 1539.8319988990136
2343.5716850215467 1451.2364006313958
2344.1502570787306 944.1820579267229
2344.7286891575386 1023.2312804311716
2345.3069812892045 1210.1465041616952
2345.885133504944 1397.2835597813405
2346.4631458359618 1097.066522580202
2347.04101831345 1122.1864781396894
2347.6187509685915 1365.2247228590763
2348.196343832553 1335.52167410103
2348.7737969364935 1305.7857331138366
2349.351110311558 1131.9408539319409
2349.9282839888765 1155.4076489789784
2350.5053179995757 946.3376835959962
2351.0822123747585 1039.821751070485
2351.658967145526 1056.4308022416647
2352.2355823429643 1073.1295363713812
2352.812057998144 1416.3326076686808
2353.3883941421263 1068.14737986547
2353.9645908059647 1303.113974063815
2354.540648020693 1107.3467945815758
2355.116565817336 1106.7921781914845
2355.6923442269126 1199.7509138040414
2356.2679832804224 1292.9066422092471
2356.8434830088518 1186.445056585635
2357.41884344318 1053.163124941115
2357.994064614377 1044.4610747095053
