#exp_cfg={"servo_angle": 0.0, "laser_lim": 100.0, "servo_angle_to": 18.0, "laser_wup": 0.0, "bt_dev": "EnSpectr-25AE3", "laser_wdn_max": 0.0, "frames": 10.0, "servo_used": 0, "servo_calib_use": 0, "laser_wdn_min": 0.0, "servo_pix_from": 90.0, "cooler_tout": 300.0, "servo_angle_from": 0.0, "servo_calib": "[-1.9174921013161362e-09, 3.9322238269163779e-05, -0.27385609119055809, 653.59552119713567]", "laser_autoctl": 0, "servo_pix_to": 3682.0, "laser_pw": 100.0, "cooler_on": 0, "laser_volt": 4.0, "cooler_autoctl": 0, "cooler_curr": 70.0, "cooler_startup": 10.0, "laser_fixed_pw": 0, "gain": 1.3, "offset": 2.53059635486, "servo_calib_degree": 3.0, "laser_curr": 55.0, "shutter": 8200.0, "servo_calib_step": 1.0, "laser_fixed_curr": 0, "exp": 2000.0, "ccd_volt": 4.7, "bt_addr": "00:06:66:62:5A:E3", "servo_delay": 500.0, "laser_autooff": 1}
#proc_cfg={"flat_auto_wnd": 200.0, "flat_auto_fr": 200.0, "flat_auto_shift": 5.0, "yconv": 1, "flatten": 1, "flatten_strength": 100.0, "xfrom": 300.0, "auto_max_frame": 2000.0, "auto_signal": 48000.0, "flat_auto_tol": 0.1, "autoclip": 1, "xrel_range": 0.0, "flat_auto_to": 4000.0, "intensity_adj": 1.0, "xrel": 7852.0, "rmhot": 1, "flat_auto_slit": 4.999999999999997, "auto_ini_exp": 300.0, "auto_off": 0, "xto": 2860.0, "flat_auto_ref": "", "flat_auto_rank": 1, "autobackg": 0, "xrel_adj": 0.0, "auto_black_lvl": 1, "base_wnd": 100.0, "sub_baseline": 0, "xconv": 2, "auto_max_exp": 1000.0, "auto_total_exp": 10000.0, "auto_exp": 0, "rmripple": 0, "black_lvl": 8267.0375, "shutter_clip_adj": 0.0, "auto_bckg": 0, "flat_auto_thr": 0.9, "subbackg": 1}
316.8218498245369 14811.493927953275
317.89969571804795 14688.671857714126
318.977263876126 14642.06236183608
320.05455438786703 14534.11725129726
321.1315673423287 14487.658263333968
322.2083028285215 14572.639251059745
323.2847609354267 14363.600829866322
324.3609417519747 14339.80187590007
325.43684536705587 14219.130106873858
326.5124718695279 14233.751368488596
327.58782134820103 14206.144119495579
328.66289389184385 14162.037833433686
329.7376895891921 13942.316996163077
330.8122085289342 13942.772536974566
331.88645079971866 13990.647829573834
332.9604164901575 13922.187777205743
334.03410568881554 13780.722956902191
335.1075184842266 13957.4350332987
336.18065496487543 13766.212920997215
337.2535152192122 13822.64625630614
338.32609933564163 13702.16128112665
339.39840740253203 13678.626080193437
340.4704395082099 13582.56086658356
341.5421957409617 13496.980032885276
342.6136761890357 13552.603689496658
343.6848809406365 13442.531636697138
344.75581008392874 13338.797443530193
345.82646370703696 13325.135189431783
346.8968418980512 13412.179545315481
347.96694474501055 13404.345580904555
349.0367723359268 13374.428031966268
350.106324758759 13360.125524220066
351.1756021014353 13224.48993129239
352.2446044518383 13196.249700513601
353.31333189781435 13330.702847335206
354.38178452716966 13195.528116525831
355.449962427665 13211.818193805933
356.51786568702846 13183.900269299274
357.58549439294256 13256.666372140258
358.6528486330535 13221.743747252593
359.71992849496564 13192.962794763042
360.7867340662433 13185.769881381799
361.8532654344144 13257.025832916359
362.9195226869597 13334.699306610511
363.9855059113288 13258.622486858174
365.05121519492604 13182.528104799974
366.11665062511565 13292.38726978585
367.1818122892273 13191.241000885824
368.2467002745434 13254.277680737572
369.31131466831175 13241.30503700544
370.375655557742 13181.236214885954
371.4397230299983 13257.570039730645
372.5035171722102 13216.982430580587
373.5670380714637 13157.48905382724
374.6302858148101 13248.733650735245
375.6932604892554 13193.747189773674
376.7559621817709 13155.427087721608
377.81839097928605 13103.84487029757
378.8805469686886 13172.511038955965
379.94243023683157 13221.35886914706
381.0040408705263 13083.696674192484
382.0653789565458 12926.183766695845
383.1264445816196 13076.583959248122
384.1872378324406 12959.812626922096
385.2477587956637 12989.818713420884
386.3080075579037 12850.358117264166
387.3679842057336 12800.276364188368
388.4276888256918 12922.936814891482
389.48712150426945 12830.952662795089
390.54628232792857 12798.9207138774
391.6051713830857 12707.09866186538
392.66378875611736 12713.140236824827
393.7221345333637 12681.559144414061
394.7802088011249 12682.910455965426
395.838011645661 12586.022680779626
396.89554315319765 12582.346581258967
397.9528034099112 12565.797290899482
399.00979250194723 12517.86260026778
400.06651051541485 12474.362070135445
401.1229575363741 12482.116341737028
402.17913365085224 12430.602796034003
403.23503894483656 12444.407726112016
404.2906735042761 12383.981344062277
405.3460374150818 12240.643647722438
406.401130763119 12263.232581044926
407.455953634224 12338.233851944758
408.5105061141876 12269.397135259185
409.56478828876243 12108.163628059583
410.6188002436629 12108.071156353968
411.6725420645689 12083.29566048561
412.72601383711117 12121.864160665968
413.77921564689314 12099.951436465075
414.8321475794728 12060.747818913407
415.88480972036814 11985.317411779428
416.93720215506437 12061.672621469605
417.9893249690049 11941.992745777754
419.04117824759123 11849.678462845575
420.09276207619223 11860.025499247053
421.144076540133 11882.796063191698
422.1951217247042 11839.906278169543
423.24589771515275 11921.530814016198
424.2964045966928 11778.548697413797
425.34664245449494 11797.325473938748
426.3966113736933 11685.190301759694
427.4463114393875 11618.134547107702
428.49574273662984 11670.545584496605
429.5449053504417 11614.047669248404
430.5937993658026 11667.006083541917
431.6424248676558 11507.07350230755
432.6907819409007 11585.973486169667
433.73887067040596 11563.188769156168
434.7866911409965 11584.722381462107
435.8342434374608 11499.429175897913
436.88152764455117 11410.055695415213
437.9285438469724 11445.899537566778
438.9752921294057 11399.486727663476
440.02177257648145 11395.66031478678
441.06798527279716 11328.393792220284
442.1139303029122 11470.962620785444
443.1596077513459 11413.781449482462
444.2050177025794 11378.870404969504
445.25016024105753 11389.889458193462
446.2950354511886 11363.9428313962
447.33964341733736 11325.715469853738
448.383984223834 11356.698806482662
449.4280579549686 11239.002187159369
450.471864694995 11299.057596998875
451.5154045281306 11332.686493549994
452.5586775385509 11236.281952326997
453.60168381039693 11326.094529990098
454.64442342776783 11410.881143090559
455.6868964747264 11260.352879819291
456.7291030353008 11205.62351338008
457.77104319347563 11403.846839735355
458.8127170332027 11270.087607317986
459.854124638392 11296.323447905652
460.895266092919 11418.472711768592
461.93614148061897 11464.130089604343
462.97675088529104 11419.322796914019
464.01709439069236 11478.668132236835
465.0571720805492 11502.497914184472
466.0969840385442 11519.277742247792
467.1365303483253 11703.30234930857
468.17581109350067 11606.933356284044
469.2148263576437 11537.413380798269
470.2535762242878 11616.982456203168
471.29206077693016 11740.47451501755
472.33028009902773 11728.632983168536
473.3682342740012 11736.230414593318
474.40592338523857 11710.726567170534
475.4433475160804 11712.778636321817
476.4805067498364 11725.028373236699
477.51740116978 11746.955856900388
478.5540308591426 11823.857095513598
479.59039590112116 11932.713123872805
480.6264963788726 11908.896298007156
481.6623323755193 12046.45832646143
482.6979039741436 12010.159797431725
483.7332112577915 12261.868968332294
484.76825430947247 12450.500220614234
485.80303321215797 12362.279953085794
486.837548048783 12501.066893683952
487.8717989022425 12718.668240053257
488.90578585539697 12736.53575849983
489.9395089910686 12875.399270982512
490.97296839203955 12635.441150666062
492.00616414106116 12639.351019388843
493.0390963208429 12597.887227572914
494.0717650140559 12506.055529554502
495.10417030333883 12397.236962088642
496.1363122712901 12326.399836156572
497.16819100046814 12149.735039483245
498.1998065734024 11980.65289162582
499.2311590725767 11790.096748631002
500.26224858044407 11687.10193901895
501.2930751794156 11606.137831437958
502.3236389518679 11509.978489694615
503.35393998014115 11372.154396942133
504.38397834653733 11268.930230745891
505.4137541333221 11353.068616490124
506.4432674227228 11240.430525498408
507.4725182969323 11120.703389775286
508.5015068381035 11075.911660833317
509.53023312835467 11154.825058811304
510.55869724976765 11098.99607190159
511.58689928438434 11025.979242851039
512.6148393142121 10865.9940156661
513.6425174212218 11063.63637537746
514.6699336873462 10923.191788997856
515.6970881944835 10920.952746015671
516.7239810244901 10793.81656442751
517.7506122591931 10819.00961346279
518.7769819803761 10751.307842653656
519.8030902697901 10781.66647308108
520.8289372091476 10808.760162337667
521.8545228801249 10861.374522503855
522.8798473643619 10793.289885054506
523.9049107434621 10786.486758147004
524.9297130989908 10768.917935495707
525.9542545124805 10727.124976630093
526.9785350654201 10693.835767605666
528.0025548392696 10762.381459293103
529.0263139154504 10636.038882088305
530.0498123753423 10697.84034903334
531.073050300296 10701.978042072424
532.0960277716204 10497.721378653529
533.1187448705896 10574.305997875173
534.1412016784416 10584.221637996285
535.1633982763833 10442.695011791406
536.1853347455726 10434.695142193954
537.2070111671401 10365.395421125857
538.2284276221817 10350.87453552853
539.2495841917516 10253.910041041194
540.2704809568677 10177.685639333216
541.2911179985167 10209.882062076143
542.3114953976419 10194.358143510703
543.3316132351592 10134.678091050495
544.3514715919409 9999.585286934021
545.3710705488247 10083.89516571539
546.3904101866156 10029.727443064241
547.4094905860784 9992.299410197586
548.4283118279418 9952.841484455961
549.4468739929034 9985.331824264362
550.4651771616191 9881.1059189213
551.4832214147063 9841.514652475362
552.501006832761 9963.068680974704
553.5185334963226 9867.577481292295
554.5358014859103 9955.727403718476
555.5528108820035 9882.01791629762
556.5695617650363 9805.855744598794
557.5860542154242 9850.145420084456
558.6022883135283 9806.627508268792
559.6182641396881 9724.50154937303
560.6339817741991 9813.394775075021
561.6494412973225 9799.622070867525
562.6646427892883 9837.323450770233
563.6795863302796 9752.664915684723
564.694272000459 9699.473690080018
565.7086998799423 9888.253897341148
566.7228700488104 9827.232122388643
567.7367825871115 9774.050130198379
568.7504375748576 9773.167492403945
569.7638350920224 9777.180643470949
570.7769752185486 9692.224411558911
571.7898580343353 9796.899051132985
572.802483619258 9683.841290462771
573.8148520531431 9873.514042782892
574.8269634157932 9856.81951216811
575.8388177869692 9789.803934469017
576.8504152463938 9842.967871762337
577.8617558737587 9973.474546433637
578.8728397487175 9896.464770638724
579.883666950891 9967.309970900413
580.8942375598654 10034.093439378257
581.9045516551851 10138.078385013196
582.9146093163617 10326.791985817656
583.924410622878 10266.749267998686
584.9339556541727 10294.776466518451
585.9432444896538 10433.422713507503
586.9522772086875 10307.794848623442
587.9610538906127 10370.975232617206
588.9695746147318 10300.416613750527
589.9778394603054 10274.159624019543
590.985848506567 10228.310924689478
591.9936018327098 10165.892198372549
593.0010995178891 10005.942811840028
594.0083416412344 10129.357405809382
595.0153282818283 9864.521234752774
596.0220595187293 9808.583327397024
597.0285354309508 9783.906722467966
598.0347560974806 9698.520301313942
599.0407215972609 9667.932005499102
600.0464320092051 9645.347657490329
601.0518874121954 9635.791668097472
602.0570878850685 9589.218936428442
603.062033506636 9583.36170427506
604.0667243556636 9543.000103687507
605.0711605108936 9490.16080209146
606.0753420510264 9634.880702000166
607.0792690547278 9628.89584944017
608.082941600629 9503.364433629222
609.0863597673306 9562.30963473621
610.0895236333909 9619.336127736942
611.0924332773357 9773.608635932884
612.0950887776617 9695.357801360613
613.0974902128219 9794.040545352656
614.0996376612384 9862.609427367544
615.1015312013005 9977.587344113403
616.1031709113595 10048.565382348635
617.1045568697336 9954.538970314487
618.1056891547069 10127.037930785827
619.1065678445229 10200.943826610675
620.1071930173985 10547.092272085125
621.1075647515099 10502.128388781613
622.1076831250048 10683.092291438334
623.1075482159849 10880.130002192716
624.1071601025305 10929.05533390778
625.1065188626781 11038.656570539637
626.105624574433 11368.500478712931
627.1044773157682 11411.921201959256
628.1030771646128 11478.46351827951
629.1014241988742 11675.478484145238
630.0995184964158 11769.647684948455
631.0973601350688 11945.610222204425
632.0949491926294 11990.922052065014
633.0922857468631 11838.56177238247
634.089369875499 12023.753695552852
635.0862016562278 11961.099446369048
636.0827811667077 11746.832632903348
637.0791084845641 11768.400726718175
638.0751836873878 11547.033978152609
639.0710068527369 11603.852914428768
640.0665780581294 11423.04228767403
641.0618973810506 11194.803429325364
642.0569648989604 11206.710567443599
643.0517806892676 10871.840710529108
644.0463448293649 10809.776252114887
645.040657396592 10646.45285114833
646.0347184682723 10538.449656232693
647.0285281216875 10252.993091006472
648.0220864340772 10185.094391142096
649.0153934826558 10056.277026806829
650.0084493446047 9970.649286823194
651.0012540970674 9993.369563319231
651.9938078171526 9758.037598822371
652.9861105819346 9745.159339992666
653.9781624684565 9784.40966489461
654.9699635537254 9533.608959334379
655.9615139147136 9559.55013442886
656.9528136283589 9377.503247330262
657.9438627715699 9506.167492414885
658.9346614212154 9348.09386067881
659.925209654135 9193.176120945584
660.9155075471263 9234.134750138252
661.9055551769616 9233.437695880919
662.895352620375 9316.754112920931
663.8848999540678 9236.223213442625
664.8741972547068 9067.72882027217
665.863244598926 9004.240516839
666.8520420633213 9065.079759701748
667.8405897244611 8866.374725693477
668.8288876588758 8825.516178885944
669.8169359430613 8863.845492225451
670.8047346534822 8848.330937322671
671.7922838665672 8723.180491295905
672.7795836587156 8818.37342065538
673.766634106285 8938.419355302656
674.7534352856092 8670.640532871703
675.7399872729766 8685.782323589452
676.7262901446538 8719.531816120105
677.712343976862 8809.358544095598
678.6981488457986 8767.15724450841
679.6837048276229 8684.812356647282
680.6690119984596 8784.550218584267
681.6540704344043 8710.902025251675
682.6388802115107 8639.354542988836
683.6234414058108 8585.521858690308
684.6077540932874 8572.984422548929
685.591818349907 8592.951575972922
686.575634251587 8633.02729031357
687.5592018742263 8488.106894943372
688.5425212936734 8405.817130957481
689.5255925857564 8524.919052983154
690.5084158262707 8435.662370942697
691.4909910909646 8406.759870075608
692.4733184555644 8349.443900112794
693.4553979957618 8447.863008854978
694.4372297872123 8381.970867440066
695.4188139055404 8409.188315983833
696.4001504263324 8257.690829217307
697.3812394251509 8349.869524533711
698.3620809775111 8271.194849711439
699.3426751589104 8290.19894061844
700.3230220448004 8220.714499096746
701.3031217106054 8282.926821357669
702.2829742317172 8475.436833571745
703.2625796834873 8159.789081648547
704.2419381412474 8231.53981296797
705.22104968028 8278.223577176295
706.1999143758458 8238.319915083237
707.178532303169 8201.254533061732
708.1569035374378 8218.776210312644
709.1350281538107 8251.653182101878
710.1129062274158 8232.66678529183
711.0905378333373 8338.053984362976
712.0679230466376 8281.314694061171
713.0450619423427 8495.738743003722
714.0219545954424 8537.991982603546
714.9986010808989 8431.323540894122
715.9750014736292 8613.752968121647
716.9511558485392 8735.561222796288
717.9270642804786 8860.805523655685
718.9027268442787 8888.559664603505
719.8781436147328 8836.555223289435
720.8533146666014 8767.73627522439
721.828240074612 8864.133962785323
722.8029199134635 8793.886881659542
723.7773542578125 8809.323584452486
724.751543182294 8706.438957220103
725.7254867615029 8716.332446592707
726.6991850700015 8454.27788046544
727.6726381823228 8557.005000927806
728.6458461729599 8483.016375035637
729.6188091163858 8404.931122159493
730.5915270870246 8391.995619861334
731.5640001592856 8350.076018226717
732.536228407529 8309.645122016682
733.5082119060917 8321.979876409676
734.4799507292755 8264.383413606378
735.4514449513481 8193.184630535809
736.4226946465496 8286.166859334266
737.3936998890786 8361.582341598223
738.3644607531078 8205.202256804085
739.3349773127793 8198.034486170254
740.3052496421951 8186.753410679968
741.27527781543 8093.6511031530945
742.2450619065221 8014.59442450907
743.2146019894826 8089.602627597557
744.183898138288 8081.601266427984
745.1529504268801 7962.091148478741
746.1217589291682 7854.7765556828845
747.0903237190341 7862.261092524673
748.058644870318 7821.630002516475
749.0267224568397 7776.231451007981
749.994556552374 7685.9018827979
750.9621472306771 7752.358262375
751.9294945654583 7699.657229712107
752.8965986304011 7746.915382453366
753.8634594991636 7716.867299049508
754.8300772453586 7771.812653628942
755.7964519425768 7675.827547400108
756.762583664371 7755.312544349872
757.7284724842611 7749.707976542182
758.6941184757416 7714.74880803106
759.6595217122667 7706.8998778043
760.6246822672638 7734.597940223473
761.5896002141235 7612.355032395198
762.5542756262093 7750.409858163373
763.5187085768503 7719.79861521458
764.4828991393406 7628.40100738258
765.4468473869474 7651.252422042227
766.4105533929032 7660.230387246576
767.3740172304078 7542.129824528953
768.3372389726283 7668.106942115557
769.3002186926988 7505.858737906658
770.2629564637282 7486.416745124481
771.2254523587872 7511.4743932118845
772.1877064509154 7409.5553601477395
773.1497188131179 7304.857255487512
774.1114895183728 7274.171753684175
775.0730186396268 7300.491270691027
776.0343062497905 7258.232620987159
776.9953524217381 7193.7383623971955
777.9561572283274 7263.06088731294
778.9167207423689 7238.130872313474
779.8770430366476 7150.014752803654
780.8371241839159 7155.400670548266
781.7969642568951 7182.713277395065
782.7565633282757 7358.23860743703
783.7159214707099 7134.595189110129
784.6750387568281 7203.377296899428
785.6339152592227 7178.102921903742
786.5925510504512 7183.233215161068
787.5509462030477 7200.574923491807
788.5091007895098 7160.473038272631
789.4670148823006 7123.289087914828
790.4246885538596 7170.856822853197
791.3821218765861 7186.926006316084
792.3393149228505 7036.751295089993
793.2962677649975 7220.72307383743
794.2529804753303 7192.622320556264
795.20945312613 7156.474477729731
796.1656857896378 7131.889285794736
797.1216785380675 7147.772363525272
798.0774314435985 7202.425781496987
799.0329445783846 7361.542231274254
799.9882180145414 7330.987144748035
800.9432518241574 7294.010955563489
801.89804607929 7428.135915253995
802.852600851962 7539.163298716738
803.8069162141637 7453.603863790739
804.760992237856 7576.107750281313
805.714828994971 7626.741416606955
806.6684265574077 7670.483093879664
807.6217849970271 7580.158315066285
808.574904385674 7570.914346444219
809.527784795142 7677.852123918032
810.4804262972102 7698.677035744348
811.4328289636178 7432.820524573964
812.3849928660748 7378.0890773176625
813.3369180762638 7357.272517914927
814.2886046658241 7414.6930382560195
815.2400527063783 7230.37970201162
816.1912622695108 7184.393451696858
817.1422334267718 7175.816493280821
818.0929662496856 7093.477485390589
819.0434608097457 6969.181513994107
819.9937171784059 6962.14061940447
820.9437354271013 6876.521591782682
821.8935156272255 7014.599004883933
822.8430578501484 6766.00165055423
823.7923621672016 6722.286948417617
824.7414286496896 6820.832022487239
825.6902573688876 6805.0751972807575
826.6388483960363 6711.287201840688
827.5872018023492 6637.447719241331
828.5353176590033 6767.146941729623
829.4831960371503 6626.57497512067
830.4308370079016 6650.333643471504
831.3782406423525 6660.256409620376
832.3254070115545 6637.0552136731785
833.2723361865319 6558.381901152732
834.2190282382799 6551.201323494328
835.1654832377644 6631.643029933859
836.1117012559116 6488.21883957965
837.0576823636256 6630.876741849059
838.003426631778 6399.115029661666
838.9489341312074 6407.059295683733
839.8942049327197 6542.625501310506
840.8392391070975 6638.802578451835
841.7840367250865 6477.408348197952
842.7285978573982 6468.45947834835
843.672922574724 6515.58900670704
844.6170109477152 6486.1825886388315
845.560863046996 6438.184689581229
846.5044789431595 6482.684007001735
847.4478587067697 6426.33860436874
848.3910024083561 6513.519311264787
849.333910118421 6507.1277241612115
850.2765819074339 6324.138450331293
851.2190178458332 6533.984642215149
852.161218004032 6580.374302987906
853.1031824524016 6493.977794000235
854.0449112612987 6419.2523009707975
854.9864045010327 6479.0780362018895
855.9276622418947 6401.490295368719
856.8686845541379 6481.041931882443
857.8094715079915 6445.8830683134975
858.7500231736467 6574.3194948413075
859.690339621271 6452.1781331628445
860.6304209209939 6528.044915766814
861.5702671429244 6386.220374868508
862.5098783571284 6443.313568628807
863.4492546336569 6500.468035042298
864.3883960425155 6453.351248792631
865.3273026536863 6419.914202860942
866.2659745371238 6434.7800148475635
867.2044117627465 6621.5051871812
868.1426144004472 6458.167874147166
869.0805825200823 6550.976627668388
870.0183161914847 6538.374483792917
870.9558154844526 6689.4579312636415
871.8930804687552 6668.546545951742
872.8301112141307 6509.784240466416
873.7669077902865 6676.382101463949
874.7034702669062 6783.174950961389
875.6397987136315 6722.07426659466
876.5758932000863 6756.0910268813
877.5117537958522 6846.725818776989
878.4473805704911 6780.9794030216635
879.3827735935283 6727.5200220948045
880.3179329344603 6962.3215009615915
881.2528586627541 6881.331892616942
882.1875508478479 7069.025898864966
883.1220095591489 6871.6393688688895
884.0562348660296 6848.921047681986
884.9902268378391 6931.534175081617
885.9239855438955 6901.919572022625
886.8575110534839 6781.8203528200265
887.7908034358588 6855.670812960297
888.7238627602474 6801.790186357711
889.6566890958475 6811.331981375588
890.5892825118208 6645.365474301444
891.5216430773125 6706.186631498802
892.4537708614189 6675.165841319147
893.3856659332196 6555.192367345653
894.3173283617652 6495.815549043342
895.2487582160684 6621.818912075872
896.179955565116 6434.4380324504455
897.110920477864 6328.667307377657
898.0416530232451 6423.271434193773
898.9721532701478 6285.722582293419
899.9024212874428 6493.169955228487
900.8324571439662 6315.857023220655
901.7622609085302 6291.536842170678
902.6918326499072 6235.881048581889
903.6211724368477 6283.799354505082
904.5502803380696 6319.5458626616355
905.4791564222614 6375.3921482361675
906.4078007580792 6239.609335337699
907.3362134141571 6165.292252432028
908.2643944590909 6431.585766704282
909.1923439614493 6214.3271573377315
910.1200619897754 6210.561083075156
911.0475486125779 6318.152702436236
911.9748038983344 6246.966387213136
912.9018279155007 6133.896801020928
913.8286207324982 6045.8982371985685
914.7551824177117 6220.055447283142
915.6815130395116 6087.769699699603
916.6076126662283 6033.622489639797
917.533481366163 6081.08757435149
918.4591192075914 6090.760088279707
919.3845262587565 6222.237634660626
920.3097025878706 6011.419787632759
921.2346482631237 5999.610434864722
922.1593633526682 5971.258772039505
923.0838479246304 6110.47689411352
924.0081020471061 6135.8063872940575
924.9321257881656 5938.004755598513
925.8559192158464 6021.796902237238
926.7794823981512 5895.5319774311265
927.7028154030686 5848.947814304438
928.6259182985414 5891.59954215933
929.5487911524906 6035.048670044577
930.4714340328119 6026.665402114544
931.3938470073608 5787.516403955248
932.3160301439748 5772.076618966796
933.2379835104548 5852.688596614321
934.1597071745709 5946.990021042813
935.0812012040769 5899.508831536778
936.002465666681 5960.047862977032
936.9235006300696 6001.9828381838815
937.8443061619055 5882.5222019635
938.7648823298077 5786.317437509775
939.6852292013809 5787.270062505265
940.6053468441951 5855.01962228477
941.5252353257874 5723.734671783519
942.4448947136698 5804.668103467234
943.364325075323 5878.674190587948
944.2835264782043 5819.197858140213
945.2024989897309 5780.00637832463
946.1212426773054 5816.916063286179
947.0397576082851 5886.601545361662
947.9580438500125 5999.0460529299735
948.8761014697939 5970.388042196187
949.7939305349064 5913.573909064383
950.7115311125999 5814.470110394832
951.6289032700952 5715.407610352873
952.5460470745875 5923.644272152976
953.4629625932339 5760.764980395687
954.3796498931715 5854.080364821408
955.2961090415029 5878.850701785184
956.2123401053068 5866.448907814301
957.1283431516276 5745.700721368927
958.0441182474842 5752.99941490817
958.9596654598663 5875.264878070115
959.8749848557309 5836.045983130693
960.7900765020167 5737.1254674208
961.7049404656209 5724.503050148722
962.6195768134185 5837.236392216434
963.5339856122537 5820.214234417013
964.4481669289453 5858.683254842091
965.3621208302793 5776.072249404733
966.2758473830145 5715.151608394127
967.1893466538822 5880.5890083470185
968.1026187095813 5783.21953807221
969.0156636167867 5779.515857204109
969.9284814421426 5757.214390189851
970.8410722522622 5760.5517810471765
971.753436113735 5736.545636324407
972.6655730931161 5690.551277755105
973.5774832569368 5770.857997857328
974.4891666716958 5679.830463715136
975.4006234038698 5644.3136873557405
976.3118535198955 5681.556507892164
977.2228570861935 5786.461290680961
978.1336341691494 5803.975801377778
979.0441848351202 5583.532838579826
979.9545091504333 5754.968250030344
980.864607181391 5756.087288969482
981.7744789942699 5735.799028174846
982.6841246553086 5742.5921828324845
983.5935442307236 5777.568117407347
984.5027377867027 5747.477502607
985.4117053894024 5812.86204017505
986.3204471049557 5688.998466249029
987.2289629994648 5824.4026043978565
988.1372531390007 5907.8419955828695
989.0453175896091 5823.612897331275
989.9531564173067 5837.407823174443
990.860769688079 5710.4512045835945
991.7681574678918 5726.634770059272
992.6753198226706 5797.269921332041
993.582256818323 5796.763403265969
994.4889685207218 5778.9044522484555
995.3954549957143 5973.106546679017
996.301716309119 5856.0150882017815
997.2077525267232 5844.894682858636
998.1135637142943 5820.492161687514
999.0191499375615 5926.3696036108395
999.924511262232 5907.668376873036
1000.8296477539861 5924.756764984299
1001.7345594784656 5911.166906689247
1002.6392465012996 5779.010593933895
1003.5437088880753 6002.4479982542725
1004.4479467043584 5979.353811838159
1005.3519600156869 5711.077426312406
1006.2557488875718 5960.608118031758
1007.1593133854858 5944.848797893982
1008.0626535748888 5803.644864406829
1008.9657695212009 5776.143919434317
1009.8686612898182 5920.27245627773
1010.7713289461135 5979.423646015558
1011.6737725554212 5859.640591263909
1012.5759921830577 5837.358985093625
1013.4779878943027 5832.922443551465
1014.379759754418 5898.8321270626275
1015.2813078286254 5670.936835998688
1016.18263218213 5618.877498196032
1017.0837328801026 5656.713497274629
1017.9846099876886 5754.41224842764
1018.8852635700023 5639.6654144761205
1019.7856936921362 5518.000514139493
1020.6859004191447 5782.292492099564
1021.5858838160675 5541.472628016447
1022.4856439479063 5574.0178130337135
1023.3851808796389 5418.118835519983
1024.2844946762143 5684.51711658471
1025.183585402554 5579.164354307577
1026.082453123554 5379.518856229656
1026.9810979040776 5467.8219772524835
1027.8795198089647 5381.092580434111
1028.777718903024 5453.448993789762
1029.6756952510368 5367.866990528162
1030.5734489177648 5400.733580035009
1031.4709799679313 5365.236518792165
1032.3682884662358 5568.748317777731
1033.2653744773506 5231.6782269774485
1034.1622380659192 5254.715367006379
1035.058879296559 5359.780442742504
1035.9552982338591 5497.221557388305
1036.8514949423825 5292.455651909995
1037.7474694866614 5334.272632859649
1038.6432219312028 5260.291058543859
1039.5387523404825 5479.817385971377
1040.4340607789582 5338.055961988002
1041.3291473110476 5289.553014396491
1042.2240120011465 5413.931364078347
1043.1186549136273 5423.376047722086
1044.0130761128294 5340.056033130479
1044.9072756630649 5348.032639259768
1045.8012536286205 5394.370081497837
1046.6950100737577 5432.748058680349
1047.588545062701 5521.989214766176
1048.481858659663 5443.3506076937965
1049.3749509288118 5557.69517922024
1050.2678219343034 5397.061511560177
1051.1604717402515 5494.246449506492
1052.0529004107575 5357.640629210115
1052.9451080098825 5493.898547861692
1053.8370946016694 5434.795830203452
1054.7288602501267 5441.595018444858
1055.6204050192446 5405.938950966722
1056.511728972977 5494.390748943054
1057.402832175254 5440.570407016782
1058.2937146899785 5320.872047510105
1059.1843765810263 5378.188166698798
1060.0748179122456 5474.711975931567
1060.9650387474576 5383.098729004825
1061.855039150456 5445.461062323745
1062.7448191850071 5428.175525733668
1063.6343789148505 5465.725162674453
1064.5237184037014 5545.356287952054
1065.412837715241 5362.364592025233
1066.3017369131267 5422.123160721681
1067.190416060992 5359.550322616176
1068.0788752224398 5357.459097709715
1068.9671144610438 5351.255144072662
1069.8551338403558 5479.483141457944
1070.7429334239023 5488.78221757107
1071.6305132751695 5333.82459765518
1072.517873457633 5416.501645217132
1073.4050140347335 5273.262927600376
1074.2919350698776 5332.871987289434
1075.1786366264623 5292.934073457616
1076.0651187678395 5255.47017050594
1076.95138155735 5230.935286260451
1077.8374250582929 5217.779721566165
1078.7232493339507 5307.111795321535
1079.608854447577 5138.8799307646805
1080.4942404623907 5143.267360134841
1081.3794074415982 5205.985309900805
1082.2643554483657 5236.192590061441
1083.149084545841 5068.214582916023
1084.033594797138 5087.694294970086
1084.9178862653516 5080.6583667974455
1085.8019590135427 5274.795934399577
1086.6858131047484 5006.148165546068
1087.5694486019802 5103.178238485681
1088.4528655682225 5071.967473348629
1089.3360640664287 5186.255434333043
1090.2190441595321 5052.325455475085
1091.1018059104317 5087.568745781481
1091.98434938201 5146.026128882079
1092.866674637111 5217.955182373187
1093.748781738559 5125.772746812833
1094.6306707491512 4942.558931066194
1095.5123417316554 5121.429819980995
1096.3937947488157 5051.7470367395235
1097.2750298633455 5024.188541565583
1098.156047137938 4904.791062382379
1099.0368466352556 5048.412612137421
1099.9174284179317 5169.256353390276
1100.7977925485757 4937.025771093231
1101.6779390897755 4936.381966786681
1102.5578681040806 5049.517954436938
1103.4375796540226 5005.977059125662
1104.3170738021054 4929.169877608806
1105.1963506108077 4788.25267388301
1106.0754101425773 4786.400315886991
1106.9542524598382 5007.295751107717
1107.8328776249855 4842.619860525219
1108.7112857003904 4903.66194357259
1109.5894767483987 4856.090527140292
1110.4674508313292 5031.019277701484
1111.3452080114657 4871.770353688487
1112.2227483510815 4998.986289627842
1113.1000719124077 5036.750567884891
1113.9771787576592 5096.554401575922
1114.854068949022 5009.950010036131
1115.7307425486542 5168.453717644757
1116.6071996186893 5165.76477443881
1117.483440221229 5330.646998633068
1118.3594644183577 5086.0761393315115
1119.235272272128 5140.242054022275
1120.1108638445658 5305.743748194116
1120.9862391976712 5484.748890104254
1121.8613983934229 5422.894855882305
1122.7363414937627 5515.812345794548
1123.6110685606182 5477.470457509195
1124.485579655884 5661.448146236963
1125.359874841426 5637.579984600792
1126.2339541790916 5718.146115143836
1127.1078177306936 5860.714549724815
1127.9814655580267 5707.597580270258
1128.854897722851 5712.978448237524
1129.7281142869106 5788.2634173538445
1130.6011153119125 5757.7335779238365
1131.473900859548 5935.282959258029
1132.3464709914697 5748.487207249507
1133.2188257693178 5790.246051229132
1134.0909652546961 5667.528590356673
1134.96288950919 5586.573676960643
1135.8345985943506 5749.807377404245
1136.7060925717087 5554.614942937509
1137.57737150277 5551.630198767716
1138.4484354490069 5682.723304329802
1139.3192844718778 5466.355880870946
1140.1899186327992 5356.620218523554
1141.060337993178 5412.31545433204
1141.930542614382 5361.062980077242
1142.8005325577597 5239.234821826323
1143.670307884635 5079.627337073712
1144.5398686563003 5209.732841446496
1145.409214934025 5197.773771104557
1146.2783467790541 4857.12642216449
1147.1472642526023 5093.816916408625
1148.0159674158622 5075.891544109487
1148.8844563300026 4945.727565699678
1149.7527310561618 4757.519979911494
1150.6207916554504 4837.7797768462715
1151.4886381889592 4760.741662492508
1152.3562707177498 4894.305201906974
1153.2236893028585 4681.721735168733
1154.090894005296 4638.338430282372
1154.9578848860474 4657.131759804903
1155.8246620060709 4652.879138861027
1156.6912254262988 4571.641830194674
1157.5575752076438 4597.903834930133
1158.42371141098 4720.430913509781
1159.2896340971656 4676.7652970811605
1160.1553433270346 4571.487894313309
1161.0208391613887 4520.0116377794875
1161.8861216610057 4496.047271825762
1162.75119088664 4658.474363127701
1163.6160468990201 4562.085759636172
1164.4806897588442 4491.428884162202
1165.3451195267917 4537.2633459610715
1166.2093362635114 4711.851882361002
1167.0733400296285 4591.246133114644
1167.9371308857444 4483.631712941814
1168.8007088924278 4556.156944017593
1169.6640741102328 4584.2844781810345
1170.5272265996773 4465.418973225927
1171.390166421259 4502.568000879829
1172.252893635452 4534.071402801809
1173.1154083026995 4645.932336593092
1173.977710483421 4651.467171878547
1174.8398002380145 4381.507043233665
1175.7016776268483 4526.698622346774
1176.563342710264 4470.60663876555
1177.4247955485826 4467.442321793642
1178.2860362020947 4622.697693674449
1179.147064731069 4414.534650264627
1180.0078811957483 4609.758165922927
1180.8684856563486 4574.442574690582
1181.7288781730604 4538.0097505937
1182.589058806052 4517.101421648948
1183.4490276154593 4695.571665938422
1184.3087846614017 4478.209783964229
1185.1683300039676 4563.472482989663
1186.027663703222 4749.104090606488
1186.8867858192025 4532.079747860853
1187.7456964119228 4537.647758392695
1188.6043955413716 4737.767201480742
1189.4628832675116 4759.2045501132325
1190.3211596502842 4839.226208839062
1191.179224749596 4808.744489843397
1192.0370786253388 4668.088498923144
1192.8947213373758 4897.724303430441
1193.7521529455407 5027.297138822476
1194.6093735096438 4752.776510186424
1195.466383089477 4920.275284061629
1196.3231817447977 4862.3625061856355
1197.1797695353398 5088.850041742413
1198.0361465208189 4843.49999682031
1198.8923127609214 4861.723935551312
1199.7482683153048 4998.455980927867
1200.6040132436028 5108.196852913032
1201.459547605431 4970.18284501509
1202.3148714603722 5041.420053646873
1203.1699848679855 5018.473396482848
1204.0248878878065 5128.0097795798765
1204.8795805793507 4738.525563204036
1205.7340630020935 5123.006785954977
1206.5883352155033 5093.841082641798
1207.4423972790064 5071.643612736645
1208.2962492520237 4886.93013680197
1209.1498911939307 4901.887582087337
1210.0033231640937 4943.987409429881
1210.8565452218427 4936.010092827379
1211.7095574264913 4619.1153985344845
1212.5623598373222 4750.504250847386
1213.4149525135963 4578.695800132545
1214.2673355145507 4775.9815007655825
1215.1195088993936 4566.450326996741
1215.9714727273113 4528.276484191367
1216.8232270574663 4714.475012346115
1217.6747719489904 4400.213603024055
1218.5261074609934 4455.557050242178
1219.3772336525653 4568.983492881205
1220.2281505827668 4569.431774216699
1221.0788583106296 4660.4076011213865
1221.9293568951707 4389.9919617782325
1222.7796463953746 4341.206962261364
1223.629726870202 4486.060150438511
1224.4795983785934 4478.138439970442
1225.3292609794553 4478.672517064056
1226.1787147316809 4273.57212097541
1227.0279596941327 4311.421519311666
1227.8769959256424 4313.540564268912
1228.7258234850306 4385.197818377921
1229.5744424310833 4197.69105098621
1230.422852822563 4390.544692403781
1231.2710547182105 4463.059091516678
1232.119048176739 4312.232124561515
1232.9668332568417 4173.870975482038
1233.8144100171812 4284.494036353022
1234.6617785163999 4388.234413990723
1235.508938813111 4034.70755150067
1236.3558909659114 4192.268809333889
1237.2026350333617 4281.358099108811
1238.049171074008 4405.795141551955
1238.8954991463652 4089.3100059005046
1239.741619308932 4248.778531217782
1240.587531620169 4288.373452798557
1241.4332361385277 4326.942052749199
1242.2787329224248 4191.527986469886
1243.1240220302534 4160.797186002562
1243.9691035203869 4114.827519973136
1244.813977451171 4338.364453285476
1245.6586438809263 4243.729599734304
1246.5031028679496 4011.99482149571
1247.3473544705157 4287.038625522922
1248.1913987468706 4318.436220232578
1249.0352357552383 3980.147067140675
1249.8788655538228 4129.729142207231
1250.7222882007918 4217.561171272603
1251.565503754302 4259.17481377994
1252.4085122724755 3949.3359816641178
1253.2513138134182 4313.382582962664
1254.0939084352049 4139.012537162174
1254.9362961958905 4164.702277900832
1255.7784771535007 4208.156636025149
1256.6204513660432 4212.984688134862
1257.4622188915 4309.471586222285
1258.3037797878242 4202.547631759468
1259.1451341129468 4105.206383666335
1259.9862819247755 4221.107699563982
1260.8272232811978 4166.018108620817
1261.6679582400666 4370.704040847437
1262.5084868592203 3946.510862936006
1263.34880919647 4073.0840166904736
1264.1889253095997 4159.765379714299
1265.0288352563712 4313.620570954806
1265.8685390945266 4126.512921672024
1266.7080368817751 4263.3982804492925
1267.5473286758115 4331.397672418996
1268.386414534294 4261.598756802424
1269.2252945148703 3942.78093423767
1270.0639686751547 4135.876514410803
1270.9024370727402 4123.696694334445
1271.7406997651997 4129.369987260382
1272.5787568100714 3969.577183534214
1273.4166082648808 4043.4515639904916
1274.2542541871244 4009.6591322941786
1275.091694634275 4300.364500529785
1275.9289296637817 3911.357744139788
1276.7659593330663 4216.595656625225
1277.6027836995308 4005.4312890035217
1278.4394028205552 4204.466667123364
1279.2758167534867 4114.064707025762
1280.112025555658 4112.116220574884
1280.9480292843746 4073.221704529882
1281.7838279969128 3885.0950829838666
1282.6194217505326 4005.829260769837
1283.4548106024686 3979.822490155539
1284.289994609926 4034.1584107370736
1285.1249738300921 4181.274558433577
1285.959748320127 3952.972159757436
1286.7943181371702 4069.651183547661
1287.6286833383328 3982.7211917882696
1288.4628439807038 4069.8865183570074
1289.2968001213521 3922.052584797829
1290.1305518173194 3984.7646286396075
1290.9640991256183 4062.756901184658
1291.7974421032523 3943.8014672489467
1292.630580807183 3918.4983035340388
1293.463515294361 4114.62458851873
1294.29624562171 4089.3526034830293
1295.12877184613 3980.1849969398427
1295.961094024493 3912.7657260424617
1296.79321221365 4065.5801355574504
1297.6251264704333 4106.412982737211
1298.4568368516466 4290.369454965922
1299.2883434140658 4131.82359594196
1300.1196462144526 3921.4200653896687
1300.9507453095375 4165.346279117055
1301.7816407560313 4150.4032526741785
1302.6123326106172 4128.989336147657
1303.4428209299622 4053.285734860783
1304.2731057707024 4325.232238230768
1305.1031871894502 4040.0621845343253
1305.933065242798 4157.681346249909
1306.7627399873181 4132.04337024004
1307.5922114795467 4439.377016655585
1308.4214797760123 4361.221942800572
1309.2505449332057 4147.539477062623
1310.0794070076026 4261.326349419405
1310.9080660556538 4335.034462616578
1311.736522133786 4403.711725227884
1312.5647752983987 4172.321415893361
1313.3928256058734 4039.588644559061
1314.2206731125661 4274.5585000126
1315.048317874809 4270.579618936075
1315.8757599489109 4193.016099823726
1316.7029993911547 4263.654554384372
1317.5300362578055 4418.228158910591
1318.356870605101 4130.037018245347
1319.183502489257 4126.112129914998
1320.0099319664623 4301.879284575933
1320.836159092889 4364.622679921985
1321.66218392468 4317.113335759024
1322.4880065179532 4115.459004584959
1323.3136269288134 4256.259060483417
1324.1390452133292 4412.152208903919
1324.9642614275563 4504.8121179542895
1325.7892756275214 4287.071810881279
1326.6140878692295 4180.980308324294
1327.4386982086617 4695.328747691795
1328.2631067017755 4323.6546895066285
1329.0873134045069 4450.325190456584
1329.911318372764 4292.662454716174
1330.735121662441 4315.68090650345
1331.558723329399 4211.5515042645675
1332.3821234294774 4174.241498362428
1333.2053220185007 4242.90867993771
1334.0283191522612 4239.796735236614
1334.851114886529 4338.834841330537
1335.6737092770582 4214.127104962032
1336.4961023795695 4145.880734849286
1337.3182942497697 4122.921598894327
1338.1402849433325 4260.602916853197
1338.962074515921 4017.004761899646
1339.7836630231632 3976.7092878357535
1340.6050505206676 4449.604477078667
1341.426237064028 4346.7200224956305
1342.2472227088037 4109.386261783258
1343.0680075105338 4022.637622033171
1343.888591524741 4029.9043761072016
1344.7089748069138 4216.835165555485
1345.5291574125276 4058.431382051925
1346.3491393970307 3929.8490426008784
1347.168920815846 4216.224709795607
1347.9885017243778 4173.730247227059
1348.8078821780036 3978.8373765227843
1349.6270622320844 4069.6672900128433
1350.4460419419447 3853.47989886269
1351.2648213629054 4161.990261382567
1352.0834005502438 3797.996351446595
1352.90177955923 3898.2864983050117
1353.7199584451064 4120.935690831002
1354.5379372630887 4037.359183644873
1355.355716068374 3914.5623069743037
1356.1732949161305 3860.246808875612
1356.9906738615155 3932.70631604388
1357.8078529596478 3911.6011569197144
1358.6248322656375 4057.9578111678543
1359.441611834567 3930.038585633554
1360.2581917214866 4063.74663185822
1361.0745719814367 3989.3723238436482
1361.890752669433 3844.26164535917
1362.7067338404577 3802.1435445589077
1363.5225155494845 3982.562027837739
1364.3380978514506 4146.291940682253
1365.1534808012839 3692.6604307556363
1365.9686644538815 3674.689439396967
1366.783648864117 4032.087079062946
1367.5984340868417 4086.247630601584
1368.413020176893 3943.5682013445535
1369.2274071890715 3677.3668269264613
1370.0415951781652 4011.977284050924
1370.8555841989346 3857.817354197744
1371.6693743061223 3657.556915887406
1372.48296555444 3611.271794480548
1373.2963579985844 3879.0421690301564
1374.1095516932255 3933.4177382697007
1374.9225466930166 3567.754390549572
1375.7353430525782 3841.807639199045
1376.5479408265164 3681.7650043853077
1377.36034006941 3866.556088278813
1378.1725408358216 3915.3371077388183
1378.9845431802805 3662.637592259742
1379.796347157304 4053.762294485772
1380.6079528213813 3893.449207364904
1381.4193602269788 3690.6221971108657
1382.230569428546 3671.3714731615883
1383.0415804805016 3906.8198416428763
1383.852393437246 3849.5587419635276
1384.6630083531563 3739.619968173155
1385.4734252825892 3630.0589363458284
1386.2836442798798 3734.263929097513
1387.0936653993322 3825.613150266886
1387.9034886952395 3765.78483912725
1388.713114221864 3810.2508862806935
1389.5225420334482 3755.5846396206407
1390.331772184214 3620.497296838923
1391.1408047283585 3513.804280344049
1391.9496397200564 3636.1929931711543
1392.758277213461 3846.057037607353
1393.5667172627054 3875.72456273407
1394.3749599218918 3684.45741271117
1395.1830052451114 3600.4860057664528
1395.9908532864265 3645.571878979679
1396.7985040998774 3911.778410414252
1397.6059577394808 3624.3488529063134
1398.4132142592352 3675.9693007405413
1399.2202737131156 3647.6059169163773
1400.027136155073 3853.2976024749273
1400.8338016390353 3621.1663645049725
1401.6402702189134 3710.007568701093
1402.446541948586 3744.0261765271207
1403.2526168819204 3625.4145590286885
1404.058495072757 3636.817176882122
1404.8641765749107 3648.489519226148
1405.6696614421799 3709.85924313158
1406.4749497283356 4046.5629824285015
1407.280041487129 3568.331375219373
1408.084936772295 3423.224471026264
1408.8896356375335 3754.8751537184808
1409.6941381365323 3724.93710324567
1410.498444322955 3480.3135697704433
1411.3025542504402 3614.540004052234
1412.106467972606 3559.2989778148344
1412.9101855430508 3633.0812950894724
1413.7137070153458 3426.748312076502
1414.5170324430437 3467.0532852622046
1415.320161879672 3656.643292427912
1416.1230953787435 3838.7784613390313
1416.925832993742 3447.7968245552684
1417.7283747781275 3333.756403701375
1418.5307207853439 3516.2491095020087
1419.3328710688093 3417.4228310208673
1420.134825681922 3263.112747734554
1420.9365846780584 3457.803236920612
1421.7381481105713 3752.89156077162
1422.539516032788 3574.022726698404
1423.3406884980232 3391.065631362622
1424.1416655595604 3328.029295601978
1424.942447270665 3353.4760112561453
1425.7430336845828 3576.9551396972684
1426.5434248545298 3310.6270205328897
1427.3436208337116 3425.968780789111
1428.143621675301 3455.3250165713243
1428.9434274324558 3646.583728261955
1429.7430381583108 3230.4296617731693
1430.5424539059713 3352.2743663304427
1431.3416747285337 3775.6003861294494
1432.1407006790632 3518.6671684709545
1432.9395318106053 3399.142671949354
1433.7381681761835 3302.439561197597
1434.5366098288014 3520.893486829481
1435.3348568214424 3526.1566753626475
1436.1329092070573 3278.0015486988123
1436.9307670385879 3377.3711920026567
1437.7284303689503 3549.987665217576
1438.5258992510335 3564.762498393451
1439.3231737377118 3419.6083335687595
1440.1202538818306 3427.137172299287
1440.9171397362225 3376.8053754362036
1441.7138313536925 3432.965368794554
1442.5103287870243 3267.546377056978
1443.3066320889775 3207.348044805918
1444.1027413122956 3492.0944808279464
1444.8986565096966 3281.978536102363
1445.694377733882 3326.093493041421
1446.4899050375207 3177.53044275083
1447.2852384732687 3222.435344227188
1448.0803780937622 3375.2193718299
1448.8753239516063 3124.0503095592735
1449.6700760993954 3105.30569082206
1450.464634589689 3229.7795358145763
1451.2589994750397 3478.2369886753904
1452.0531708079689 3137.771234536124
1452.8471486409799 3089.285939212255
1453.6409330265524 3433.3149001375386
1454.4345240171442 3207.5152170414844
1455.2279216651987 3087.772414422953
1456.0211260231263 3162.8684462769015
1456.8141371433194 3467.404767339295
1457.6069550781594 3265.4041663540243
1458.3995798799897 3019.0772369393844
1459.1920116011424 3173.990018274861
1459.98425029393 2962.0901187125305
1460.7762960106338 3104.9488699373046
1461.5681488035225 3165.9575867292992
1462.3598087248392 3139.090449574339
1463.1512758268036 3341.6054435711694
1463.942550161617 3057.6875723681414
1464.7336317814625 3134.3810005747955
1465.524520738496 3252.613728110198
1466.3152170848552 3041.635663385783
1467.1057208726506 3089.2447602863967
1467.8960321539817 3089.4988684147306
1468.6861509809169 2927.5637398000267
1469.4760774055085 3062.7096188121377
1470.265811479785 3101.1850518632714
1471.055353255755 2869.978641306417
1471.844702785409 2914.6272388443713
1472.6338601207044 2851.388184029063
1473.4228253135934 3196.0190604174268
1474.2115984159936 2945.235241926608
1475.0001794798063 2797.1818020773603
1475.7885685569145 3045.9448406391584
1476.576765699172 2892.2207734553426
1477.3647709584238 2880.2125770051653
1478.1525843864802 3176.8586520051053
1478.9402060351367 2990.3652126581364
1479.7276359561693 3011.1067094454775
1480.514874201328 2895.3574221173885
1481.3019208223468 2761.0311541519186
1482.0887758709323 2755.301325768681
1482.8754393987747 3052.190675326977
1483.6619114575406 2795.242592512624
1484.4481920988783 2985.4425569908526
1485.2342813744108 2935.5630649150926
1486.0201793357446 3150.5153445564206
1486.8058860344572 2923.0345798131134
1487.591401522117 2867.950675385207
1488.3767258502594 2880.5159887687396
1489.1618590704056 2945.394305323809
1489.9468012340494 2652.6045186439515
1490.7315523926754 2984.4391943288315
1491.5161125977356 3052.449373827362
1492.3004819006637 3064.5096187766035
1493.084660352877 2814.3470426799004
1493.8686480057622 3054.506238565136
1494.6524449106964 3218.5528617632253
1495.4360511190262 3132.6675707962204
1496.219466682087 2985.766694361916
1497.0026916511779 3011.986571111719
1497.7857260775945 2918.05219527785
1498.5685700125996 3108.7769436105837
1499.3512235074395 2876.514610387149
1500.133686613337 2847.0512548906872
1500.9159593814966 2930.280083036874
1501.698041863101 3327.941997978435
1502.4799341093094 2775.70534263387
1503.2616361712662 2745.308186385463
1504.043148100087 2957.858830622605
1504.8244699468742 2979.0427618187014
1505.6056017626997 2749.980180040993
1506.3865435986281 2805.1056473715025
1507.1672955056893 2913.555321161158
1507.9478575348967 2771.0599395511013
1508.7282297372512 3042.999513451435
1509.5084121637192 2784.6539359501066
1510.2884048652577 2925.442754961225
1511.0682078927948 2827.3289387217346
1511.8478212972423 2787.605757102733
1512.6272451294917 2813.681499453057
1513.4064794404076 2928.178304706221
1514.1855242808433 2946.518820569256
1514.9643797016215 2833.999202424291
1515.743045753552 2965.8567213796423
1516.5215224874191 2955.498470591329
1517.2998099539836 2650.0302742881463
1518.077908203999 2890.7794727561513
1518.8558172881785 2802.931469523153
1519.633537257234 2982.2771441454524
1520.4110681618404 2864.228653429218
1521.1884100526604 2846.2851724972074
1521.9655629803365 2796.583923514651
1522.7425269954856 2999.444710974057
1523.5193021487103 3095.4537086325186
1524.2958884905856 2770.042199384332
1525.0722860716687 2848.739761900281
1525.848494942502 2831.7896347710075
1526.624515153595 2828.271323391096
1527.4003467554485 2801.9857183940067
1528.175989798534 3011.1342531659907
1528.9514443333064 2804.6180976029978
1529.726710410203 3063.863421075085
1530.5017880796331 2811.451626855351
1531.276677391992 2855.8045224473385
1532.0513783976457 3063.633787780932
1532.825891146953 2890.17598307016
1533.6002156902414 2983.879710321788
1534.3743520778207 2852.1043496453476
1535.1483003599806 2919.2901725350484
1535.9220605869923 2905.581894250802
1536.6956328091019 2987.9431757821585
1537.4690170765407 2809.769635382235
1538.242213439511 2969.4053870256503
1539.015221948208 2938.3106663669623
1539.78804265279 2793.58993896658
1540.560675603405 2725.074173814409
1541.3331208501804 3130.9741304957984
1542.1053784432224 3104.682783977381
1542.8774484326168 2990.97314333947
1543.649330868422 2973.6110484894302
1544.4210258006842 2875.7230794855627
1545.1925332794308 2930.077782311474
1545.9638533546604 3006.5370241610335
1546.7349860763552 2875.789420970266
1547.5059314944829 3186.769689373171
1548.27668965898 3013.1410458869786
1549.0472606197673 2994.732548238918
1549.817644426752 2852.065368730659
1550.5878411298072 3173.2373459638284
1551.3578507787988 3051.1051558853865
1552.1276734235635 2821.740395859445
1552.8973091139233 3063.053446542355
1553.6667578996767 3153.5207861474846
1554.436019830604 2842.2003896610536
1555.20509495646 2930.0292704227954
1555.9739833269869 2900.9419373336696
1556.7426849919011 2864.0334635783174
1557.511200000903 3278.229041953534
1558.2795284036674 3028.2575597802256
1559.0476702498509 2926.805783779194
1559.8156255890954 3042.772256540418
1560.5833944710157 3302.4260389629244
1561.3509769452048 2847.495670192115
1562.1183730612447 3004.2455770564657
1562.8855828686865 2894.321198413305
1563.6526064170703 3250.5752614759067
1564.4194437559127 3191.464987086633
1565.1860949347047 2969.598140102974
1565.9525600029283 3297.952607532353
1566.7188390100328 3343.6143045420563
1567.4849320054564 2968.625995473678
1568.250839038612 2940.0186068894163
1569.0165601588997 2982.99929773285
1569.7820954156887 3103.524835958815
1570.5474448583373 2994.7545837718676
1571.31260853618 2940.9966855792572
1572.0775864985299 2757.837301129948
1572.8423787946813 3082.3516625789357
1573.6069854739108 2913.3838558157136
1574.371406585471 3095.1220195340093
1575.1356421785986 3123.243522655724
1575.899692302506 2954.0650744276527
1576.6635570063845 3113.4203963892273
1577.4272363394157 2978.758504688591
1578.190730350747 2870.5150723183383
1578.9540390895163 3078.2718596917134
1579.7171626048384 2673.305887269359
1580.480100945806 2906.405661494451
1581.2428541614918 2907.6942184890368
1582.0054223009538 2991.4444512062696
1582.767805413223 2931.963878068584
1583.5300035473156 2994.9063491479274
1584.292016752228 3188.4559082892074
1585.0538450769309 2965.3155165932226
1585.8154885703807 2775.893710836921
1586.5769472815136 2804.3743988434007
1587.3382212592405 3012.525608771224
1588.099310552463 3113.441979269829
1588.8602152100484 2959.258208199325
1589.6209352808564 3021.6000809442294
1590.3814708137234 2881.001560086783
1591.14182185746 3013.7507019898358
1591.9019884608679 2958.471953413118
1592.6619706727215 2694.3815422555026
1593.4217685417734 2933.2668846927927
1594.1813821167616 3246.91064348791
1594.9408114464022 2709.981395400041
1595.7000565793933 2848.26359259472
1596.459117564409 2984.07945850586
1597.2179944501113 2783.7194285114997
1597.9766872851324 2804.0609532893914
1598.735196118092 3064.1024570898962
1599.4935209975883 2913.4331447049312
1600.2516619721973 2965.5054724951087
1601.0096190904787 2827.416450970428
1601.7673924009723 2829.9046341985595
1602.524981952196 2742.672438869966
1603.2823877926476 2957.1460795193834
1604.0396099708087 2717.872084218127
1604.7966485351371 2576.6623067414366
1605.5535035340745 2775.730634316714
1606.3101750160404 3027.643484398738
1607.0666630294363 2721.1855902688685
1607.822967622642 2756.1940224122227
1608.5790888440224 2865.324644266026
1609.3350267419137 2912.942655170868
1610.0907813646445 2875.4985805088736
1610.8463527605145 2802.383162224579
1611.601740977805 2941.2568121134204
1612.356946064785 2847.127656455262
1613.1119680696902 2594.193548049701
1613.8668070407512 2737.748567010737
1614.6214630261748 2678.371254296871
1615.375936074137 2994.412154712029
1616.1302262328118 2715.076349110187
1616.8843335503425 2846.7284309677766
1617.638258074854 2595.1831006629977
1618.391999854457 2846.189663591324
1619.1455589372363 2893.9208027018713
1619.8989353712623 2843.098349600085
1620.65212920458 2459.9396657394163
1621.4051404852235 2728.809761197962
1622.1579692611976 2747.489307204475
1622.9106155804966 2640.676656407476
1623.663079491087 2671.4287348342937
1624.4153610409248 2871.0351048397733
1625.1674602779385 2614.0901004334187
1625.9193772500403 2583.6062762510537
1626.6711120051277 2946.5736990035607
1627.4226645910676 2743.0731249862533
1628.174035055721 2620.9186153450078
1628.9252234469168 2814.9449566318403
1629.676229812474 2676.67739089989
1630.4270542001905 2999.7165579634593
1631.1776966578382 2715.5101427024993
1631.9281572331747 2788.51004944154
1632.678435973945 2930.4571054423945
1633.4285329278573 2868.6297456664674
1634.1784481426203 2566.4368692171174
1634.9281816659113 2632.418346699721
1635.677733545388 2992.373999995529
1636.4271038286934 2722.3219368921905
1637.176292563452 2886.942503050883
1637.9252997972635 2863.3191628809386
1638.674125577716 2943.8118298681234
1639.4227699523672 3188.992976168078
1640.171232968767 2614.3797097132983
1640.9195146744423 2943.640106209793
1641.6676151168977 3020.77932859484
1642.4155343436178 3095.1538131400152
1643.1632724020765 2939.579238910423
1643.9108293397167 2879.8305200415184
1644.658205203974 2723.2096636060633
1645.4054000422566 3358.2186713685333
1646.1524139019566 2925.921674316252
1646.8992468304423 2798.7472306167024
1647.6458988750728 2799.811160694312
1648.3923700831765 2920.3930624494787
1649.1386605020743 2749.715343365124
1649.8847701790564 3099.5596850271727
1650.6306991614038 2988.0887569695656
1651.3764474963682 3042.1615937403535
1652.1220152311944 2730.8200539570107
1652.867402413096 3081.227991361691
1653.6126090892776 2973.0109978577884
1654.3576353069184 3200.8517788891468
1655.1024811131829 3078.8003860168255
1655.8471465552066 2877.2801221393934
1656.5916316801213 3208.451407096734
1657.3359365350298 3051.621726939423
1658.0800611670165 2904.4291568847107
1658.824005623148 3015.0754933478997
1659.5677699504722 2764.9102771515218
1660.3113541960192 3098.8353586418375
1661.054758406799 2805.390608654756
1661.7979826297997 2753.602958165798
1662.5410269119966 2729.0288283454306
1663.283891300338 3017.1505910407286
1664.0265758417645 2871.1865762926845
1664.7690805831826 2922.4945903970724
1665.5114055714948 2973.0321303728333
1666.2535508535748 3288.2027388746865
1666.9955164762814 2528.921147495066
1667.7373024864555 2748.0791130499506
1668.478908930916 2860.2096809858494
1669.220335856462 2829.5545014576746
1669.9615833098778 2768.159094230293
1670.7026513379296 2675.3315059575075
1671.44353998736 2844.2533542519373
1672.1842493048916 2737.2466980460945
1672.9247793372379 2738.581983717393
1673.6651301310812 2779.392092196882
1674.4053017330934 2614.9445198388535
1675.1452941899242 2869.7925414188753
1675.885107548207 2294.824390050491
1676.6247418545518 2479.0679535311046
1677.3641971555535 2498.7562573606315
1678.1034734977893 2786.6297780022715
1678.8425709278108 2568.6047577997483
1679.5814894921605 2763.220377204782
1680.320229237359 2514.2575847869953
1681.0587902098978 2854.8895813654544
1681.7971724562685 2537.738214186348
1682.5353760229264 2467.263341841284
1683.2734009563173 2723.282307318365
1684.0112473028657 2389.512818189773
1684.7489151089794 2588.107095800825
1685.4864044210462 2628.114065715171
1686.2237152854377 2173.862927282772
1686.960847748498 2782.4710890266438
1687.6978018565642 2304.013914272808
1688.434577655944 2350.220417540263
1689.1711751929379 2289.2500471377907
1689.9075945138156 2436.5577156505974
1690.6438356648396 2392.29556743396
1691.3798986922448 2057.705857351847
1692.1157836422499 2277.0989074914564
1692.851490561059 2355.3729584025523
1693.587019494853 2279.7609079573363
1694.3223704897991 2144.0634462332846
1695.0575435920364 2032.8761200472484
1695.792538847696 2127.024358183932
1696.527356302886 2221.205977114053
1697.2619960036936 2018.3277604859709
1697.9964579961907 2045.6369768096188
1698.730742326432 1824.9864708477805
1699.4648490404488 1932.834950043519
1700.1987781842563 2048.897593661273
1700.9325298038548 2228.1631371822687
1701.6661039452174 2350.483833988143
1702.3995006543082 2233.821969136353
1703.1327199770658 2310.2090203047837
1703.865761959416 1974.5995708584483
1704.598626647261 2251.8746847694724
1705.3313140864866 1913.7179593415033
1706.0638243229587 1937.4633135259458
1706.7961574025303 2194.252065824173
1707.528313371029 2078.100402008967
1708.260292274268 1856.803102803076
1708.9920941580403 2126.508646562098
1709.7237190681226 2059.9469952487216
1710.4551670502697 2006.475770291057
1711.18643815022 1764.0220165054718
1711.9175324136959 1844.6548789183817
1712.6484498863938 1925.420877779528
1713.379190614005 1759.7451883541694
1714.109754642188 1943.5989600186804
1714.8401420165883 1961.4739083603902
1715.570352782839 2386.9655910459273
1716.3003869865497 2017.7535087353542
1717.0302446733076 1833.3827356043737
1717.7599258886876 1952.093074074827
1718.4894306782444 2167.236103405029
1719.2187590875183 1818.0865245827495
1719.9479111620203 2132.8340953052657
1720.6768869472544 1843.622260603487
1721.4056864887025 2247.2917853856566
1722.1343098318284 2245.4893817194397
1722.8627570220742 1934.6645979245593
1723.591028104871 1766.6676605376044
1724.3191231256242 1710.280655326727
1725.0470421297232 1924.39599789849
1725.7747851625427 2053.662225829104
1726.5023522694337 1945.7643437316317
1727.2297434957363 2010.1127930306106
1727.9569588867635 1677.2286770712858
1728.6839984878152 2020.4161070449977
1729.4108623441734 1993.2201116092408
1730.1375505011038 1966.184767203819
1730.8640630038426 1766.7251053050222
1731.5903998976264 1798.5936337302828
1732.316561227657 1957.939391229277
1733.0425470391274 1697.9444044397665
1733.7683573772065 1894.993940223134
1734.4939922870508 1863.0936488680284
1735.2194518137949 1897.2364548539713
1735.9447360025606 1902.4177268445862
1736.669844898439 1859.4453794001663
1737.3947785465189 1646.0867100719504
1738.1195369918605 1691.844022759256
1738.8441202795093 1968.3646770112332
1739.5685284544943 1913.1990644417542
1740.292761561821 1952.7449758660775
1741.0168196464838 1989.950381762324
1741.7407027534518 1953.592926199743
1742.464410927687 1878.8631360819236
1743.187944214118 1770.3340934677958
1743.9113026576688 1740.8390483439769
1744.634486303241 1828.9763340363832
1745.3574951957125 1845.8628075974964
1746.0803293799509 1993.7479430322765
1746.8029889008048 1862.3488039499134
1747.5254738031017 1823.3080404265033
1748.2477841316504 1680.006768161949
1748.969919931249 1853.2420145189099
1749.6918812466665 1796.3135878299356
1750.4136681226646 1958.4000191987234
1751.1352806039777 1906.1457691995413
1751.856718735331 1468.223721551281
1752.5779825614281 1705.9528106570172
1753.2990721269507 1882.837720639526
1754.0199874765676 1910.6727438108162
1754.7407286549314 1627.568731752253
1755.4612957066693 1755.7034062171856
1756.1816886763954 1645.7479060082994
1756.9019076087097 1966.871037098458
1757.6219525481865 1852.5775848907492
1758.3418235393856 1780.9577603832008
1759.061520626854 1884.5191506523963
1759.7810438551096 2049.9585373024124
1760.5003932686614 1713.8115382971093
1761.2195689119999 1929.4692822849313
1761.938570829594 1871.5667816785801
1762.657399065898 1895.360327623996
1763.376053665348 1645.9446802433788
1764.0945346723602 1577.1316417759047
1764.812842131334 1615.7207204550073
1765.5309760866512 1654.482568851471
1766.2489365826787 1649.6719073721215
1766.9667236637597 1759.310622294012
1767.684337374223 1501.28487312932
1768.401777758383 1613.5022254855783
1769.1190448605284 1509.2092415348855
1769.836138724937 1625.7460478189626
1770.5530593958665 1771.1309250374993
1771.2698069175603 2033.55773073458
1771.9863813342326 1893.5554226813597
1772.702782690094 1701.4347658216545
1773.4190110293293 1897.4906079640484
1774.1350663961111 1891.2650958473191
1774.8509488345844 1626.345189406207
1775.5666583888924 1756.9318010182938
1776.2821951031437 1917.183965037662
1776.9975590214362 1662.622910999346
1777.7127501878585 1915.831631214113
1778.4277686464684 1949.2663252152258
1779.1426144413108 1852.2417278977348
1779.8572876164162 1942.0558487163628
1780.571788215797 1859.5481932325863
1781.2861162834415 1776.9726093382305
1782.0002718633277 1600.168550645294
1782.7142549994132 1817.5442304072105
1783.4280657356376 1820.8950590022887
1784.141704115922 1700.7190442750962
1784.855170184177 1701.3161918660903
1785.5684639842839 1801.9881359736871
1786.2815855601148 1430.5503530154779
1786.9945349555237 1771.3968308257822
1787.707312214343 1559.7689386458183
1788.4199173803918 1612.9085574860878
1789.132350497468 1666.2800368494093
1789.8446116093583 1726.3979956061635
1790.556700759822 1584.3804632699223
1791.2686179926077 1700.0580714977616
1791.9803633514493 1716.6423424130965
1792.6919368800554 1519.5762842641223
1793.4033386221236 1789.034215931215
1794.1145686213295 1761.5373717489206
1794.8256269213307 1880.401848153273
1795.536513565774 1753.7880152469825
1796.247228598284 1489.1624114451686
1796.9577720624693 1585.9143096778769
1797.6681440019165 1757.6072070219166
1798.3783444602013 1654.9142428756027
1799.0883734808776 1785.7344292323476
1799.7982311074884 1845.0165964513094
1800.5079173835475 1736.0684458960852
1801.2174323525633 1846.3528192716178
1801.9267760580187 1697.3803458587972
1802.635948543386 1777.8599312177764
1803.3449498521113 1611.95791381957
1804.0537800276325 1828.9215124983516
1804.7624391133668 1770.436415294848
1805.47092715271 1453.4118286051842
1806.1792441890484 1543.0641849771134
1806.8873902657433 1692.6068967989588
1807.5953654261448 1680.5164593534696
1808.3031697135812 1691.6944216575125
1809.0108031713662 1588.9871062699613
1809.71826584279 1641.6715880043594
1810.425557771141 1750.975357826527
1811.1326789996747 1645.8284608864717
1811.839629571632 1540.4699135621308
1812.5464095302468 1642.9667937898605
1813.2530189187182 1650.3861826935597
1813.959457780249 1707.0061578332716
1814.6657261580076 1747.788653567774
1815.371824095153 1712.6039037829123
1816.0777516348262 1493.9987664785504
1816.78350882015 1692.008440423297
1817.4890956942272 1500.058578723645
1818.1945123001533 1593.7654328194744
1818.8997586809928 1666.670337890794
1819.6048348798067 1488.3035646852761
1820.3097409396287 1593.0627705976506
1821.0144769034796 1974.6593250785918
1821.7190428143622 1739.7643675001168
1822.423438715261 1828.5985856713571
1823.1276646491478 1612.567370240528
1823.8317206589727 1729.7953218289117
1824.5356067876692 1600.0027115208084
1825.2393230781581 1671.8021943103963
1825.942869573335 1489.7570925896039
1826.646246316086 1563.2229907493029
1827.3494533492758 1632.5286081801817
1828.052490715756 1674.9782126910309
1828.7553584583547 1655.228642914586
1829.458056619891 1736.5093832968528
1830.1605852431585 1578.808274981659
1830.8629443709433 1514.5488933298595
1831.5651340460063 1679.4892950006138
1832.2671543110919 1432.4617470908815
1832.9690052089318 1736.0230449869607
1833.6706867822395 1356.4751408963962
1834.3721990737104 1660.630423980069
1835.0735421260233 1732.1858464781446
1835.774715981841 1569.8013405881704
1836.4757206838058 1840.296844732183
1837.1765562745459 1593.6326477481864
1837.8772227966747 1401.8690101340992
1838.5777202927839 1522.352527335062
1839.2780488054523 1508.8447502841113
1839.9782083772352 1504.9068546211008
1840.6781990506806 1500.1322800496296
1841.378020868313 1495.1629221793207
1842.0776738726418 1694.0943797225377
1842.777158106157 1433.7984991540434
1843.4764736113375 1511.8985476325183
1844.1756204306403 1734.8893666983658
1844.8745986065078 1615.3302863162833
1845.5734081813607 1465.58299462207
1846.2720491976124 1479.848788610262
1846.970521697649 1452.165049295505
1847.6688257238511 1594.579329195517
1848.3669613185684 1599.2585349100718
1849.0649285241452 1315.6330071673433
1849.7627273829057 1643.9967326310507
1850.460357937156 1660.0925493136092
1851.1578202291857 1351.7150945429244
1851.8551143012664 1665.5523957914397
1852.5522401956569 1554.2870479341202
1853.2491979545957 1535.9126438038097
1853.9459876203055 1517.8258564616513
1854.6426092349902 1500.4104677628911
1855.3390628408451 1417.6552295365973
1856.0353484800362 1842.225162416206
1856.7314661947203 1683.008325823128
1857.4274160270397 1440.6522470002305
1858.123198019115 1468.6007068679532
1858.8188122130487 1307.06458685659
1859.5142586509319 1522.0204801160507
1860.209537374838 1538.80864908193
1860.9046484268183 1453.2462594474378
1861.599591848917 1654.8773370659026
1862.294367683151 1451.9538290111577
1862.988975971528 1437.3609255899767
1863.6834167560355 1625.4407313919578
1864.3776900786452 1726.713175358795
1865.0717959813119 1507.512274283189
1865.7657345059724 1296.735761674238
1866.4595056945564 1598.7208919232062
1867.1531095889586 1684.6692986534836
1867.846546231076 1442.2245000781988
1868.5398156627743 1710.2163112361468
1869.2329179259123 1390.4159200828642
1869.9258530623283 1682.4980874916043
1870.618621113843 1380.5074313735392
1871.3112221222636 1445.6927654140407
1872.0036561293764 1418.715850099436
1872.695923176956 1550.7559493184785
1873.3880233067594 1638.9988301346402
1874.0799565605212 1413.1216306423332
1874.7717229799673 1466.1851485149166
1875.4633226068036 1658.6598779883475
1876.1547554827175 1553.2353433616709
1876.8460216493859 1446.7645892390976
1877.5371211484617 1551.3486352232323
1878.2280540215852 1571.1766822315194
1878.9188203103804 1316.59476540289
1879.6094200564548 1496.5798969469558
1880.299853301396 1401.0934912677862
1880.9901200867826 1712.6976758790938
1881.6802204541673 1569.2449679862464
1882.3701544450942 1612.1559628404166
1883.059922101087 1303.8648068438927
1883.7495234636517 1349.7144583768854
1884.4389585742792 1395.605027415372
1885.1282274744517 1349.3163099394842
1885.8173302056166 1482.6224211757615
1886.506266809225 1616.1087168405056
1887.195037326701 1255.6083910308168
1887.8836417994517 1489.6780692509608
1888.5720802688702 1691.9270366109163
1889.260352776333 1569.710381715348
1889.9484593632042 1640.7653432510501
1890.63640007082 1402.7882161421342
1891.3241749405151 1337.5560102508246
1892.0117840135954 1532.5516966629598
1892.6992273313572 1551.7978403770326
1893.3865049350788 1467.6648561749198
1894.0736168660223 1809.8972469365767
1894.7605631654333 1621.2789175238918
1895.4473438745408 1360.2043215066205
1896.133959034556 1700.2036296025642
1896.820408686679 1499.1353842401236
1897.506692872088 1476.54848552284
1898.192811631945 1453.9071874209096
1898.8787650073991 1461.9901188513486
1899.5645530395832 1708.9244380035539
1900.2501757696118 1710.0741274805525
1900.9356332385796 1764.3352012554856
1901.620925487574 1818.8195232049807
1902.3060525576602 1560.0457535470487
1902.9910144898859 1621.5080347752462
1903.6758113252872 1352.2455284396437
1904.3604431048789 1619.468736705338
1905.0449098696663 1574.7829695467742
1905.7292116606295 1368.5532956399059
1906.4133485187394 1544.4861151722118
1907.0973204849488 1281.0559254691975
1907.7811276001976 1239.413354246967
1908.4647699053967 1510.9496131794665
1909.1482474414588 1434.9664507851762
1909.8315602492694 1358.7656835039825
1910.5147083696957 1704.4950048123253
1911.1976918436012 1529.383628610677
1911.880510711815 1346.548625553893
1912.5631650151681 1359.0658181845126
1913.2456547944657 1371.5640579740395
1913.927980090495 1362.3891241124322
1914.6101409440362 1456.562938908694
1915.2921373958416 1537.0323200431123
1915.9739694866603 1525.2238244598723
1916.655637257214 1769.6190082102457
1917.3371407482136 1433.1182320310922
1918.0184800003572 1726.9046598528282
1918.6996550543154 1618.7769382153404
1919.3806659507554 1506.7166518490997
1920.0615127303208 1447.3366327774916
1920.7421954336423 1639.497197365968
1921.4227141013343 1629.2383293602616
1922.103068773993 1519.4606161362258
1922.783259492202 1604.0023741363354
1923.4632862965227 1504.4040812525168
1924.1431492275078 1580.7834883658318
1924.8228483256917 1338.6088369378174
1925.5023836315922 1290.1514351900719
1926.1817551857057 1473.1493262961071
1926.8609630285227 1330.9528351922306
1927.5400072005123 1495.2298201038445
1928.218887742125 1432.95113459964
1928.8976046938005 1272.294992056078
1929.5761580959588 1625.2315380947198
1930.2545479890086 1480.5939270858373
1930.9327744133352 1206.01472301331
1931.6108374093164 1488.7642140921657
1932.2887370173066 1337.9254031123235
1932.9664732776473 1637.4972041175083
1933.6440462306673 1418.411819844642
1934.3214559166754 1381.2047468858746
1934.9987023759659 1817.9104622156137
1935.675785648813 1655.9435127328059
1936.3527057754836 1133.338297171022
1937.029462796223 1805.5801928486246
1937.70605675126 1268.7772146165366
1938.3824876808085 1300.6168033801741
1939.058755625072 1377.3135662430398
1939.7348606242267 1381.7495282337693
1940.4108027184448 1491.1989067719578
1941.0865819478713 1590.387248209428
1941.7621983526478 1376.9606121255142
1942.4376519728921 1300.9500977730522
1943.1129428487038 1520.0693443586447
1943.7880710201734 1637.892278553572
1944.4630365273733 1585.8395972347116
1945.1378394103576 1318.1500941918546
1945.8124797091714 1294.4448416144874
1946.4869574638324 1270.6472551101028
1947.161272714353 1365.4312771122097
1947.8354255007234 1534.713176872827
1948.5094158629272 1361.1625404919932
1949.1832438409183 1351.7436856054633
1949.8569094746435 1584.3678915639834
1950.530412804037 1697.2332713404223
1951.2037538690092 1544.519257159
1951.8769327094578 1376.9512297630224
1952.5499493652678 1387.8434698769222
1953.222803876306 1689.4603622536847
1953.895496282421 1512.6606358711274
1954.5680266234522 1541.985374617975
1955.2403949392155 1387.0935534786877
1955.9126012695142 1259.26064968268
1956.5846456541403 1362.5180689732188
1957.2565281328643 1354.6122013645795
1957.9282487454457 1539.225502959463
1958.5998075316202 1537.4023603902046
1959.27120453112 1376.1377243079908
1959.9424397836501 1466.350672986811
1960.613513328908 1579.2705790119064
1961.2844252065697 1422.612404546568
1961.9551754563017 1265.6664110104584
1962.6257641177453 1366.7956888496087
1963.29619123054 1282.2051023837878
1963.966456834296 1359.7433168073198
1964.6365609686181 1245.3941881437488
1965.306503673086 1526.7627135743949
1965.976284987275 1325.5846186339984
1966.645904950734 1476.10284598343
1967.315363603002 1227.265618186325
1967.9846609836077 1404.4106872492862
1968.6537971320486 1329.920859653525
1969.3227720878222 1458.7288579266567
1969.9915858904042 1367.3293745290127
1970.660238579252 1563.4232964912815
1971.3287301938108 1284.3106139381148
1971.997060773514 1197.9163341933722
1972.665230357772 1314.429356535741
1973.3332389859843 1387.677914964296
1974.0010866975335 1440.846891375701
1974.6687735317864 1494.176513221293
1975.3362995280932 1427.9650361331371
1976.003664725793 1533.4758774959896
1976.6708691642052 1432.2165089119633
1977.3379128826364 1330.6968556622307
1978.004795920373 1594.366730809917
1978.6715183166925 1362.6589183593821
1979.3380801108524 1548.3413656505284
1980.0044813420973 1393.6737268013474
1980.6707220496555 1139.0868892073668
1981.3368022727373 1394.6106970222318
1982.0027220505417 1350.7673129523005
1982.66848142225 1333.466805941654
1983.3340804270283 1316.2193734700418
1983.999519104027 1414.7726273619576
1984.6647974923835 1420.2199498407338
1985.329915631215 1425.6629577023236
1985.99487355963 1381.8055710128203
1986.6596713167146 1527.0050619128037
1987.3243089415428 1241.2864817539767
1987.9887864731754 1535.7284949495092
1988.6531039506553 1349.3566621249843
1989.3172614130071 1272.750025299811
1989.9812588992481 1196.0311548307877
1990.645096448372 1026.1262865667393
1991.3087740993633 1358.1653690755074
1991.9722918911848 1269.215019552548
1992.635649862792 1378.9452650355083
1993.2988480531185 1399.5543236857018
1993.9618865010852 1264.2305935712398
1994.6247652455968 1128.6890605113636
1995.287484325545 1259.2749827180342
1995.9500437798033 1248.4704493619959
1996.6124436472292 1312.2188982278717
1997.2746839666706 1443.6112575516286
1997.936764776954 1263.1970019980376
1998.598686116895 1402.0168152123256
1999.2604480252903 1620.1236988136973
1999.9220505409212 1509.0031244925872
2000.5834937025593 1431.9926836209152
2001.2447775489582 1354.7224693376315
2001.9059021188514 1340.546758960601
2002.5668674509616 1149.9218437255527
2003.2276735839987 1327.251597067539
2003.8883205566508 1488.2406419978106
2004.5488084075987 1227.8347566022273
2005.2091371755014 1306.2245620603474
2005.8693068990033 1177.8373975436375
2006.5293176167397 1226.9401510956507
2007.1891693673224 1276.2373278644204
2007.848862189354 1089.709198989219
2008.5083961214223 1119.9632723537206
2009.1677712020955 1150.3654011104923
2009.8269874699254 1242.3399210943076
2010.4860449634598 1746.374544459007
2011.1449437212177 1197.581043416545
2011.8036837817108 1653.9454723740273
2012.4622651834325 1455.359654989967
2013.1206879648653 1495.2721847542343
2013.7789521644736 1266.0325827191034
2014.4370578207036 1480.9060161039286
2015.0950049719922 1315.7043268874656
2015.7527936567585 1526.5049887807716
2016.4104239134067 1358.6810328075867
2017.067895780323 1685.360030073932
2017.725209295886 1661.772267146041
2018.3823644984514 1638.0783666042544
2019.0393614263648 1526.659634865323
2019.6962001179545 1445.7626185345503
2020.3528806115355 1459.4309369134949
2021.0094029454067 1353.6982660681917
2021.6657671578487 1157.99175329885
2022.321973287133 1330.7417639750206
2022.9780213715148 1240.5771136586307
2023.6339114492293 1269.2774591037141
2024.2896435585026 1298.1425236738555
2024.9452177375442 1198.0352333925912
2025.600634024544 1525.5778652144606
2026.2558924576842 1418.0466422057996
2026.9109930751292 1509.1809981599783
2027.565935915025 1552.4121131337554
2028.2207210155066 1595.772621771846
2028.8753484146964 1681.096294983495
2029.529818150695 1599.4823371801695
2030.1841302615903 1517.5003899661328
2030.8382847854573 1247.7977039887655
2031.4922817603601 1418.008326135499
2032.1461212243357 1355.2129540874819
2032.7998032154192 1119.9311768472257
2033.4533277716218 1431.7442472970451
2034.1066949309443 1194.6512483388365
2034.7599047313688 1176.9609637559215
2035.4129572108704 1236.2056058404407
2036.0658524074006 1295.5084151433407
2036.7185903589016 1401.206131311888
2037.3711711032956 1600.8954406270645
2038.023594678496 1380.4049399208266
2038.675861122394 1181.740698196891
2039.3279704728757 1186.9043813440226
2039.9799227678031 1192.1890555790665
2040.6317180450278 1348.950131184321
2041.2833563423865 1248.520515394052
2041.9348376977014 1568.1176470100927
2042.5861621487784 1379.6894704703068
2043.2373297334088 1448.1763489824652
2043.8883404893695 1521.1542230945536
2044.5391944544208 1440.0065309008107
2045.1898916663158 1435.693890375298
2045.8404321627804 1340.6174007182422
2046.4908159815368 1245.2780894465866
2047.1410431602853 1107.1426045186763
2047.7911137367173 1149.2279284159742
2048.441027748504 1210.9227571544338
2049.090785233302 1272.6321707058328
2049.7403862287592 1334.9353905501787
2050.389830772503 1239.5315728921046
2051.0391189021466 1489.5488768713265
2051.688250655294 1360.5112243474177
2052.337226069527 1172.3654978807692
2052.986045182417 1534.4613146168574
2053.634708031521 1449.4626031405223
2054.283214654375 1364.4259985580097
2054.931565088511 1094.8195192796406
2055.579759371436 1181.601944699317
2056.2277975406523 1400.7112284795783
2056.8756796336384 1470.7361159215695
2057.5234056878617 1126.4454782882265
2058.1709757407752 1235.6698297217122
2058.8183898298194 1530.5628747596497
2059.465647992416 1433.4634015078145
2060.1127502659747 1646.6754683723314
2060.759696687888 1547.6940526875144
2061.4064872955405 1448.7059332178515
2062.053122126292 1587.2104377499613
2062.699601217497 1454.9039739811644
2063.345924606485 1322.6264777901313
2063.992092330587 1336.6840354039864
2064.638104427102 1465.428211667535
2065.283960933324 1284.3748081099518
2065.92966188653 1408.7126414313107
2066.5752073239855 1582.0270378247942
2067.2205972829397 1528.1510698463537
2067.86583180062 1474.238203407926
2068.5109109142522 1419.1567450263399
2069.15583466104 1294.03389746101
2069.8006030781708 1168.7959245097568
2070.445216202821 1237.6966288006765
2071.089674072153 1539.18367089731
2071.7339767233116 1424.7030604457536
2072.3781241934303 1272.4786776634696
2073.0221165196253 1421.4845460354868
2073.6659537390024 1153.8373359994894
2074.3096358886505 1427.5843168585495
2074.953163005637 1339.2529763557313
2075.596535127028 1036.9036829995152
2076.2397522898664 1180.6707387656647
2076.882814531182 1408.2526759830084
2077.5257218879924 1261.8582978095035
2078.1684743973 1115.26710158995
2078.8110720960885 1032.174122653094
2079.453515021336 1252.1407449530363
2080.095803209997 1472.329703235952
2080.7379366990135 1347.8045887081223
2081.37991552532 1508.3845332837857
2082.0217397258275 1535.6079827637195
2082.6634093374414 1425.2803733571257
2083.3049243970418 1314.893396827762
2083.9462849415067 1428.6861002833962
2084.587491007689 1406.6163286716683
2085.2285426324324 1369.6137144272752
2085.869439852564 1367.2940668681517
2086.510182704902 1198.478926662571
2087.1507712262483 1323.3774920588023
2087.791205453381 1111.3478004277536
2088.4314854230743 1332.568698074127
2089.0716111720867 1332.5000212596337
2089.7115827371617 1043.264771204968
2090.351400155023 1112.163333819175
2090.991063462385 1181.2409164643943
2091.6305726959527 1037.984802950679
2092.2699278924047 1067.0246151603956
2092.9091290884153 1096.1663132140009
2093.548176320641 1045.9544511604988
2094.187069625721 1414.3360950228994
2094.8258090402887 1107.9623154379892
2095.464394600951 1480.7391228303359
2096.102826344313 1448.3438072400136
2096.741104306955 1434.6813892731604
2097.379228525453 1188.1409406846246
2098.017199036358 1310.7268983689846
2098.6550158762147 1433.5704337838192
2099.2926790815527 1516.551916351802
2099.9301886888825 1375.2640557795914
2100.5675447347076 1227.7419459488508
2101.2047472555114 1377.0050847459122
2101.841796287761 1287.2277555645862
2102.47869186792 1402.4802071488557
2103.1154340324265 1211.6210418431388
2103.752022817709 1279.5135833456227
2104.388458260184 1083.3617490544532
2105.024740396251 1326.4223049734221
2105.660869262292 1251.577084204605
2106.296844894685 1291.2193074205074
2106.93266732978 1330.9844872620283
2107.5683366039284 1062.0649239999711
2108.2038527534532 1427.6762499234353
2108.8392158146726 1411.4502787686422
2109.4744258238843 1117.6853337782672
2110.1094828173755 1261.0607519537184
2110.744386831422 1297.6258554451992
2111.3791379022787 1334.3075714828087
2112.01373606619 1407.3296772264505
2112.648181359389 1481.748111580164
2113.28247381809 1386.8122152161445
2113.916613478492 1390.9963178220523
2114.550600376786 1390.264641049719
2115.1844345491445 1284.93776495205
2115.818116031729 1212.144286820038
2116.451644860679 1275.5269510785427
2117.085021072133 1059.7930126070128
2117.718244702204 1191.362894478853
2118.3513157869984 1117.9262637929728
2118.984234362604 1022.3061098493079
2119.617000465092 1234.780592158154
2120.249614130529 1216.1634895570787
2120.8820753949585 1197.5191151922077
2121.5143842944162 1180.1107951220886
2122.14654086492 1328.4533602757253
2122.7785451424734 1199.5329745310423
2123.4103971630702 1381.0542373748071
2124.042096962681 1262.665193841403
2124.6736445772767 1428.3219321080219
2125.305040042802 1188.2485513300285
2125.936283395191 1243.033456969617
2126.567374670365 1309.0431439377483
2127.198313904233 1339.1522910862018
2127.8291011326855 1296.5769846710991
2128.4597363916037 1253.7585240504282
2129.0902197168507 1187.7183509613933
2129.720551144279 1229.707784536609
2130.3507307097225 1543.1057228637076
2130.980758449008 1611.376465992654
2131.6106343979427 1294.4258458750237
2132.2403585923203 1530.8670381963311
2132.8699310679276 1413.0781259303822
2133.499351860526 1356.3278505719647
2134.1286210058715 1227.073321091491
2134.7577385397053 1388.3042572189559
2135.3867044977487 1549.7726974811142
2136.0155189157176 1658.3469770295076
2136.644181829308 1579.3498819059503
2137.2726932742025 1240.9466117746879
2137.901053286074 1485.237375652647
2138.5292619005777 1101.1625523024877
2139.1573191533535 1240.3172776502915
2139.7852250800315 1342.0261419385035
2140.4129797162295 1399.897384556238
2141.0405830975433 1016.9942234361067
2141.6680352595613 961.8505537150944
2142.2953362378576 906.6121730184665
2142.9224860679915 1198.0704904036963
2143.549484785508 1195.4488451102447
2144.1763324259373 1064.9648365125672
2144.803029024799 1043.1647757504768
2145.429574617594 1021.2726116047112
2146.0559692398165 1216.3095995032727
2146.682212926942 1076.2296522459756
2147.308305714432 1359.114858684273
2147.9342476377333 1436.250860876348
2148.5600387322847 1631.7878497089769
2149.185679033506 1446.8724997777704
2149.8111685768017 1147.136790562253
2150.4365073975678 1196.4598932537835
2151.061695531187 1203.8771950990379
2151.686733013021 1528.2314829703055
2152.311619878423 1394.255574978008
2152.9363561627342 1284.3421519999283
2153.560941901278 1066.5171660803314
2154.1853771293663 1272.7089961269055
2154.809661882293 1305.8168940251396
2155.433796195348 1168.609101435983
2156.0577801037944 1031.0883812138445
2156.681613642895 1284.8276029369742
2157.3052968478896 1323.2585652332032
2157.928829754006 1361.7011130064595
2158.552212396462 1337.7892604305175
2159.1754448104566 1304.9372538235796
2159.7985270311783 1219.349332972875
2160.4214590938027 859.1394237726723
2161.0442410334927 954.0011313164254
2161.6668728853874 1024.5562777629166
2162.289354684628 1095.2813851869928
2162.911686466332 1236.0164609561275
2163.533868265602 1477.9940290281786
2164.1559001175337 1634.7991507837771
2164.7777820572046 1496.0429774887525
2165.399514119681 1222.0015826529138
2166.021096340013 1199.5627265933845
2166.6425287532384 1504.7705815196073
2167.263811394385 1498.8981466808614
2167.8849442984574 1493.1383998277977
2168.505927500455 1279.546910049895
2169.126761035366 1335.8478431444255
2169.7474449381552 1264.3247419625407
2170.367979243778 962.3634870464309
2170.9883639871823 1483.9804456792037
2171.608599203293 1068.6915824452274
2172.2286849270276 1608.963364976795
2172.8486211932886 1757.1731309963197
2173.4684080369625 1382.6053217159006
2174.0880454929265 978.0069176763021
2174.7075335960417 1021.4942859856361
2175.3268723811543 1010.8651861168622
2175.9460618831 1000.2241427809034
2176.565102136701 1237.5324692039687
2177.1839931767627 1218.5774015167979
2177.802735038078 1199.5897409239587
2178.421327755432 1014.8111883303884
2179.0397713635866 1200.0913912701665
2179.658065897298 1189.6102086766114
2180.276211391305 1209.7791801549558
2180.8942078803357 1324.924183342582
2181.5120553991 1303.6598693743429
2182.129753982299 1332.6000582843442
2182.7473036646206 1361.6111773586756
2183.3647044807367 1257.0007268515214
2183.9819564653044 1347.2959449861219
2184.599059652968 1437.855450239393
2185.216014078367 1306.09667342303
2185.832819776113 1385.3346971535998
2186.4494767808137 1464.6815441639035
2187.065985127063 1194.2016452318348
2187.682344849436 1372.1721762882403
2188.298555982501 1108.9700558208358
2188.9146185608097 1261.2092254067147
2189.530532618901 1411.6291988947341
2190.1462981912937 1431.8007153675812
2190.761915312507 1371.783241454319
2191.377384017036 1159.2126850144814
2191.9927043393654 1233.8912872900826
2192.6078763139667 805.3460409916308
2193.2228999753006 987.7814166813268
2193.837775357808 1170.6027500512569
2194.452502495922 1112.9559427258882
2195.0670814240602 1307.2329876823633
2195.6815121766285 1090.5324691896208
2196.2957947880186 1053.1979493783197
2196.9099292926057 1015.7917277372107
2197.523915724758 1186.0085073416908
2198.137754118825 1137.7014313055504
2198.7514445091456 1708.2179729312425
2199.3649869300443 1148.5398001595254
2199.9783814158327 1633.4577194054973
2200.5916280008096 1649.2873228721132
2201.2047267192593 1494.8391258697493
2201.8176776054515 1249.8848339455221
2202.430480693649 1118.181265072275
2203.0431360180955 1418.5379834128955
2203.6556436130195 1335.4851845351966
2204.268003512645 930.2391781131795
2204.8802157511727 1032.0489518283487
2205.492280362796 1162.1530681991935
2206.1041973816937 1292.665083485835
2206.715966842032 1324.0075049964921
2207.3275887779655 1429.7894564375606
2207.93906322363 1241.8798539487357
2208.550390213153 1346.101798842274
2209.1615697806465 1461.5947395671708
2209.7726019602105 1214.6504257980785
2210.3834867859277 1192.9133313012633
2210.9942242918787 1170.9860243683388
2211.6048145121167 1237.9194741019435
2212.2152574806914 1889.934269924086
2212.825553231638 1195.134882548971
2213.435701798975 2044.4453156773766
2214.045703216707 1287.029401494671
2214.655557518832 855.9686647705987
2215.2652647393297 1161.538351472094
2215.874824912169 815.0479875907615
2216.4842380713 1183.9827617584951
2217.09350425067 1120.0079595797292
2217.7026234842033 1403.4574396993028
2218.311595805819 1517.8902280433144
2218.9204212494133 1295.5439105487678
2219.52909984888 1535.7503314725768
2220.137631638092 1518.783553072092
2220.7460166509154 1501.6853627481346
2221.354254921198 1091.60785184454
2221.9623464827764 1467.209781422705
2222.5702913694713 1332.1005413949204
2223.178089615096 1208.9655752739784
2223.7857412534486 1085.6016127989376
2224.39324631831 903.6598852046087
2225.000604843457 1187.0726531675089
2225.607816862641 1518.5545040234886
2226.214882409611 1415.7882306558008
2226.8218015180973 1591.7077749809189
2227.4285742218217 1299.1690623765558
2228.0352005544864 1233.3768873870226
2228.6416805497847 1097.953004422385
2229.248014241399 1141.98940707826
2229.8542016629945 1022.2906296131912
2230.460242848223 1250.5314605878398
2231.0661378307304 1138.0719749484715
2231.671886644139 1025.5115190671188
2232.277489322065 921.5497551781167
2232.8829458981127 900.3330394637778
2233.48825640587 1231.1313922833444
2234.0934208789095 1397.8794982421164
2234.6984393507955 1564.8716744256312
2235.3033118550793 1232.1617189458243
2235.9080384252975 1139.7052391059813
2236.5126190949723 974.160964350659
2237.1170538976166 912.1165718035215
2237.721342866729 849.9874936133099
2238.32548603579 1020.43614927819
2238.9294834382763 1238.016426949223
2239.533335107646 1362.1213231850936
2240.1370410773434 1253.1738975317485
2240.740601380803 1108.8187609567906
2241.3440160514474 1381.4971970320162
2241.9472851226783 1300.2759896206153
2242.550408627896 1251.3192684420378
2243.1533866004793 1189.782205823354
2243.756219073799 1128.159994569992
2244.3589060812064 934.3955269546077
2244.961447656049 1045.986300176469
2245.5638438316564 1205.1020863590452
2246.166094641343 1289.0932325506183
2246.7682001184166 1173.35370178506
2247.3701602961664 1174.5136863120313
2247.971975207871 1338.9006320806145
2248.5736448867974 1283.759705928148
2249.175169366197 1228.4605430863653
2249.7765486793123 1238.4621350474815
2250.3777828593684 1319.8766969389128
2250.9788719395783 1186.7285616845002
2251.579815953146 1154.7319510967216
2252.1806149332606 1201.7301410893565
2252.781268913097 1195.0009449547715
2253.381777925817 1162.8524197934628
2253.9821420045737 1383.3191441584936
2254.5823611825035 1447.0116419859394
2255.1824354927303 1185.9930117424506
2255.782364968365 1126.8792205765992
2256.38214964251 1067.71872495989
2256.9817895482483 1109.0129394024605
2257.5812847186553 1168.4223248110352
2258.180635186791 1064.1996538119472
2258.779840985704 1048.5589657333926
2259.37890214843 1299.3083992835584
2259.97781870799 1338.1228984830595
2260.5765906973957 1377.0177804558145
2261.175218149645 1394.849451236535
2261.773701097718 1385.502296473023
2262.3720395745895 1063.184392588784
2262.970233613216 1000.5122194114554
2263.568283246548 1137.5621312957278
2264.1661885075137 1132.3433151131987
2264.763949429038 1049.7502997564193
2265.3615660440246 1522.372810117624
2265.959038385374 1016.2881625561422
2266.5563664859637 1463.758859167217
2267.153550378669 1101.447299966112
2267.7505900963424 1320.011062951197
2268.3474856718312 1095.7585252098431
2268.9442371379664 1025.1632843168163
2269.5408445275643 1210.9146990266884
2270.1373078734377 1143.43981851926
2270.7336272083758 1075.8242633646628
2271.32980256516 1043.2750458950263
2271.925833976562 1347.8592698973978
2272.5217214753357 1490.388212192965
2273.117465094223 1114.0290462941548
2273.7130648659586 1122.80985016775
2274.308520823257 1256.255663776701
2274.903832998827 1234.3738940223095
2275.4990014253563 1198.5618709349449
2276.094026135528 1276.8699128568514
2276.6889071620117 1347.556150255297
2277.2836445374614 1418.3076513753435
2277.878238294519 1294.1260443757817
2278.472688465812 1146.4580632655511
2279.066995083962 998.5283848471248
2279.6611581815705 1227.2389338077985
2280.255177791232 1385.692666487198
2280.8490539455233 1245.4424837409895
2281.442786677013 1450.9376964174312
2282.0363760182554 1516.075067934696
2282.6298220017943 1106.3765061785962
2283.223124660155 1617.4157795293445
2283.816284025859 1040.0938352619582
2284.4093001314086 1605.4547459946752
2285.002173009292 1055.0363742762593
2285.5949026919952 1413.4288995029915
2286.1874892119777 1151.5941271100967
2286.7799326016993 1352.2677229640694
2287.3722328936 1023.6412590114023
2287.964390120109 884.6320786835502
2288.556404313642 1310.5899079346286
2289.1482755066027 1623.74433913646
2289.7400037313873 1237.0509203615427
2290.3315890203703 1122.793477570062
2290.9230314059205 1047.0683400704502
2291.5143309203904 971.2529874068257
2292.1054875961236 1011.6631282832866
2292.6965014654506 1771.2981748345678
2293.287372560684 913.7326757723328
2293.878100914131 1878.090761506389
2294.468686558086 1292.245539939283
2295.059129524827 1250.7241251858538
2295.649429846617 1208.3040754096114
2296.239587555716 1165.7577697665542
2296.8296026843636 1120.6676834251423
2297.419475264791 1124.1409364283506
2298.0092053292137 1127.550898921813
2298.598792909839 1480.4931169472263
2299.1882380388597 1172.5990952230065
2299.777540748455 1434.610201749729
2300.3667010707904 1211.0567788545507
2300.9557190380256 1367.3854626677257
2301.544594682302 1177.9150278797704
2302.1333280357503 1541.5066006087466
2302.721919130485 1321.3987887238331
2303.3103679986198 1601.9790727356587
2303.898674672242 1550.0085578843796
2304.486839183437 1400.715828423488
2305.0748615642697 1251.32592058171
2305.6627418468015 1294.5821590378757
2306.2504800630704 1150.638849724201
2306.8380762451143 1292.6502873469042
2307.425530424949 1349.1852312245796
2308.012842634582 1405.8394273058193
2308.6000129060103 1590.8085819669782
2309.187041271214 1383.8608879679155
2309.773927762164 1176.4612689243954
2310.3606724108213 1379.7816791015553
2310.9472752491274 1304.0112540299754
2311.5337363090184 1228.0827317929404
2312.120055622414 1121.737964728481
2312.706233221221 1159.1409731687686
2313.2922691373424 900.0536438618616
2313.8781634026564 981.5443661008206
2314.463916049037 1063.219130814257
2315.049527108342 1281.5667084798818
2315.6349966124235 1543.2157885885356
2316.2203245931123 1546.6583503692557
2316.8055110822315 1365.2450008047126
2317.3905561115935 1183.3952688480163
2317.9754597129977 996.1680579470731
2318.560221918229 943.4743819466239
2319.1448427590603 890.6816465779084
2319.729322267256 1031.1465529465852
2320.313660474563 1456.1525332348176
2320.8978574127195 1882.3184116506686
2321.481913113452 1496.6594415400878
2322.0658276084705 884.7706468912163
2322.6496009294806 1126.6126432497742
2323.233233108165 1168.371531455501
2323.8167241762058 1148.233849454065
2324.4000741652617 1329.3260723638941
2324.983283106987 1399.9309137857986
2325.5663510330232 1352.8414000335601
2326.1492779749933 1074.802191660317
2326.7320639645204 1289.889570559851
2327.3147090332004 1235.30102185451
2327.897213212629 1323.9785621623628
2328.4795765343843 1412.6774101484684
2329.0617990300307 1021.4176235716222
2329.643880731124 1502.3820032640347
2330.22582166921 1092.1431917913337
2330.807621875816 1028.6032132830878
2331.3892813824623 965.0492231135688
2331.9708002206517 931.9975682538094
2332.5521784218818 1023.773637401111
2333.133416017634 1115.7809921291948
2333.7145130393765 1398.6193404964802
2334.295469518571 1682.09118243733
2334.876285486658 1617.4103065529273
2335.456960975076 1538.9515208600167
2336.037496015242 1460.3440142728318
2336.6178906385667 1100.9262154150556
2337.198144876451 1271.8327330333898
2337.778258760278 1178.983116695395
2338.3582323214214 1206.9856171122162
2338.938065591243 1235.0228979337987
2339.517758601087 1444.6784707985785
2340.0973113822965 1358.3603455447587
2340.676723966193 1270.0853346719673
2341.255996384094 1331.8198847848396
2341.835128667295 1347.866818454831
2342.4141208470883 1363.9432756008032
2342.992972954751 1389.5833651927337
2343.5716850215467 1364.9835689355402
2344.1502570787306 682.566075879709
2344.7286891575386 959.394676410638
2345.3069812892045 1206.2347438896454
2345.885133504944 1453.3967449978686
2346.4631458359618 1268.139687295615
2347.04101831345 1023.3077472177256
2347.6187509685915 1086.7097263208211
2348.196343832553 1261.8166653907438
2348.7737969364935 1273.0565393688162
2349.351110311558 1116.6576328353576
2349.9282839888765 1106.9060893546364
2350.5053179995757 861.0721882506252
2351.0822123747585 1281.8086751491714
2351.658967145526 1577.1464096062991
2352.2355823429643 1096.36076905909
2352.812057998144 1181.611645815434
2353.3883941421263 1142.3654525131271
2353.9645908059647 1308.8289042022411
2354.540648020693 1165.8771964412276
2355.116565817336 1300.1972000746814
2355.6923442269126 1075.8174493140366
2356.2679832804224 1206.8085306303851
2356.8434830088518 1331.8638602055191
2357.41884344318 1037.6770586149144
2357.994064614377 1029.845484561975
