#exp_cfg={"servo_angle": 0.0, "laser_lim": 100.0, "servo_angle_to": 18.0, "laser_wup": 0.0, "bt_dev": "EnSpectr-25AE3", "laser_wdn_max": 0.0, "frames": 10.0, "servo_used": 0, "servo_calib_use": 0, "laser_wdn_min": 0.0, "servo_pix_from": 90.0, "cooler_tout": 300.0, "servo_angle_from": 0.0, "servo_calib": "[-1.9174921013161362e-09, 3.9322238269163779e-05, -0.27385609119055809, 653.59552119713567]", "laser_autoctl": 0, "servo_pix_to": 3682.0, "laser_pw": 100.0, "cooler_on": 0, "laser_volt": 4.0, "cooler_autoctl": 0, "cooler_curr": 70.0, "cooler_startup": 10.0, "laser_fixed_pw": 0, "gain": 1.3, "offset": 2.53059635486, "servo_calib_degree": 3.0, "laser_curr": 55.0, "shutter": 8200.0, "servo_calib_step": 1.0, "laser_fixed_curr": 0, "exp": 2000.0, "ccd_volt": 4.7, "bt_addr": "00:06:66:62:5A:E3", "servo_delay": 500.0, "laser_autooff": 1}
#proc_cfg={"flat_auto_wnd": 200.0, "flat_auto_fr": 200.0, "flat_auto_shift": 5.0, "yconv": 1, "flatten": 1, "flatten_strength": 100.0, "xfrom": 300.0, "auto_max_frame": 2000.0, "auto_signal": 48000.0, "flat_auto_tol": 0.1, "autoclip": 1, "xrel_range": 0.0, "flat_auto_to": 4000.0, "intensity_adj": 1.0, "xrel": 7852.0, "rmhot": 1, "flat_auto_slit": 4.999999999999997, "auto_ini_exp": 300.0, "auto_off": 0, "xto": 2860.0, "flat_auto_ref": "", "flat_auto_rank": 1, "autobackg": 0, "xrel_adj": 0.0, "auto_black_lvl": 1, "base_wnd": 100.0, "sub_baseline": 0, "xconv": 2, "auto_max_exp": 1000.0, "auto_total_exp": 10000.0, "auto_exp": 0, "rmripple": 0, "black_lvl": 8267.5875, "shutter_clip_adj": 0.0, "auto_bckg": 0, "flat_auto_thr": 0.9, "subbackg": 1}
316.8218498245369 8530.174927312972
317.89969571804795 8404.568709265306
318.977263876126 8385.6018945198
320.05455438786703 8287.595417002025
321.1315673423287 8297.21640933255
322.2083028285215 8316.142235235766
323.2847609354267 8266.057600685484
324.3609417519747 8255.922011618324
325.43684536705587 8156.668818432494
326.5124718695279 8171.758281608083
327.58782134820103 8129.2585672206915
328.66289389184385 8128.1264102070345
329.7376895891921 8010.5493850126995
330.8122085289342 8012.092067363248
331.88645079971866 7978.347199400065
332.9604164901575 7986.452883105497
334.03410568881554 7945.849428122101
335.1075184842266 8018.14684810655
336.18065496487543 7898.990110176152
337.2535152192122 7980.555706427983
338.32609933564163 7865.690738776425
339.39840740253203 7805.331821097376
340.4704395082099 7823.0304751078675
341.5421957409617 7852.082880662669
342.6136761890357 7826.160451906546
343.6848809406365 7766.40143931425
344.75581008392874 7737.671723325756
345.82646370703696 7705.280976722972
346.8968418980512 7770.136757633319
347.96694474501055 7764.143778718979
349.0367723359268 7698.738188634421
350.106324758759 7695.5278466697055
351.1756021014353 7623.475800816433
352.2446044518383 7595.7818655599385
353.31333189781435 7692.131819594271
354.38178452716966 7615.452351876271
355.449962427665 7614.3279368541525
356.51786568702846 7578.824218811298
357.58549439294256 7716.093931817375
358.6528486330535 7656.9401334668755
359.71992849496564 7556.024737937796
360.7867340662433 7640.691904795451
361.8532654344144 7607.635036582753
362.9195226869597 7680.682951560307
363.9855059113288 7572.718357665818
365.05121519492604 7535.041471953589
366.11665062511565 7650.773453580444
367.1818122892273 7603.944434435201
368.2467002745434 7626.995067833333
369.31131466831175 7601.741166382875
370.375655557742 7522.319545023692
371.4397230299983 7637.63087895801
372.5035171722102 7550.870228741883
373.5670380714637 7540.431506487663
374.6302858148101 7613.945542180258
375.6932604892554 7580.896424612312
376.7559621817709 7530.767868936922
377.81839097928605 7526.428166442982
378.8805469686886 7506.0986290994315
379.94243023683157 7585.944945917994
381.0040408705263 7525.970301163036
382.0653789565458 7435.81587762025
383.1264445816196 7483.833088657302
384.1872378324406 7477.288598673758
385.2477587956637 7474.207543423649
386.3080075579037 7436.537492021778
387.3679842057336 7372.064230332823
388.4276888256918 7415.50583427377
389.48712150426945 7375.8489011093725
390.54628232792857 7404.504990064083
391.6051713830857 7298.076531573572
392.66378875611736 7332.641324624508
393.7221345333637 7348.440674960711
394.7802088011249 7259.220306167927
395.838011645661 7312.645066046321
396.89554315319765 7285.929760188226
397.9528034099112 7216.864457840306
399.00979250194723 7153.244330434178
400.06651051541485 7196.804744017214
401.1229575363741 7199.244684994323
402.17913365085224 7132.018785228562
403.23503894483656 7241.086127982485
404.2906735042761 7080.456479420883
405.3460374150818 7038.673913496806
406.401130763119 7145.196441611831
407.455953634224 7097.70079741669
408.5105061141876 6967.166613199954
409.56478828876243 6953.608275693888
410.6188002436629 6963.417517437061
411.6725420645689 6949.61484609006
412.72601383711117 6928.592098707049
413.77921564689314 6994.16369427907
414.8321475794728 6957.777630419994
415.88480972036814 6926.6634174824385
416.93720215506437 6936.5678041813035
417.9893249690049 6849.036137016454
419.04117824759123 6835.564626908435
420.09276207619223 6837.64975802884
421.144076540133 6837.615707708874
422.1951217247042 6807.648732473722
423.24589771515275 6866.672221424669
424.2964045966928 6830.775845085157
425.34664245449494 6777.566064750448
426.3966113736933 6820.000643765986
427.4463114393875 6722.321817399141
428.49574273662984 6718.790002835243
429.5449053504417 6668.411747465334
430.5937993658026 6807.3177765120245
431.6424248676558 6676.314766880385
432.6907819409007 6635.383316205318
433.73887067040596 6713.321082024445
434.7866911409965 6712.681685931753
435.8342434374608 6697.423916208003
436.88152764455117 6638.378520521657
437.9285438469724 6708.60545430762
438.9752921294057 6602.546948033482
440.02177257648145 6566.059438868181
441.06798527279716 6590.2271724121065
442.1139303029122 6662.638748773704
443.1596077513459 6669.156146556488
444.2050177025794 6585.4901413371645
445.25016024105753 6634.143340305408
446.2950354511886 6604.303929234957
447.33964341733736 6670.629535042656
448.383984223834 6592.8325430490395
449.4280579549686 6524.191414769265
450.471864694995 6598.866878872676
451.5154045281306 6645.368961356922
452.5586775385509 6530.198053721938
453.60168381039693 6599.460542015324
454.64442342776783 6698.35731697018
455.6868964747264 6668.90309805719
456.7291030353008 6585.794206780401
457.77104319347563 6659.41957636408
458.8127170332027 6575.751156039596
459.854124638392 6665.575978498042
460.895266092919 6714.861213462391
461.93614148061897 6724.050024193237
462.97675088529104 6785.465437808011
464.01709439069236 6757.742930208337
465.0571720805492 6791.5970354727815
466.0969840385442 6754.830770373534
467.1365303483253 6901.095436479411
468.17581109350067 6782.573845171655
469.2148263576437 6778.194999893601
470.2535762242878 6886.191624685806
471.29206077693016 6894.19362639387
472.33028009902773 6987.74781119108
473.3682342740012 6950.469049473693
474.40592338523857 6945.74424221706
475.4433475160804 6914.058705866926
476.4805067498364 6909.761716631228
477.51740116978 6822.144213930235
478.5540308591426 6955.921721702822
479.59039590112116 7089.525093576837
480.6264963788726 7050.200038872014
481.6623323755193 6995.823236936318
482.6979039741436 7113.8067766513805
483.7332112577915 7150.4502324706045
484.76825430947247 7282.434264379139
485.80303321215797 7222.677551826093
486.837548048783 7285.092546578921
487.8717989022425 7372.972951223218
488.90578585539697 7364.259060374314
489.9395089910686 7495.899786381296
490.97296839203955 7394.121923059052
492.00616414106116 7247.793793625775
493.0390963208429 7287.285665458289
494.0717650140559 7243.366833156046
495.10417030333883 7127.738677514906
496.1363122712901 7100.0515878000715
497.16819100046814 6974.439401806679
498.1998065734024 6913.800509887905
499.2311590725767 6887.858088843799
500.26224858044407 6800.563688170262
501.2930751794156 6683.933324048386
502.3236389518679 6693.683303101207
503.35393998014115 6623.571409386391
504.38397834653733 6612.949604584018
505.4137541333221 6639.9678130713755
506.4432674227228 6515.423419340072
507.4725182969323 6460.458364266944
508.5015068381035 6479.728755639082
509.53023312835467 6550.148195036231
510.55869724976765 6432.934746437965
511.58689928438434 6436.4829843374055
512.6148393142121 6374.164477834566
513.6425174212218 6498.403307797275
514.6699336873462 6414.874978804537
515.6970881944835 6410.8865903516125
516.7239810244901 6345.696827649348
517.7506122591931 6399.775963677402
518.7769819803761 6248.772142335643
519.8030902697901 6378.07195175398
520.8289372091476 6322.625116845994
521.8545228801249 6478.187023809364
522.8798473643619 6348.238914902965
523.9049107434621 6393.021012557284
524.9297130989908 6371.879865231498
525.9542545124805 6381.139537022022
526.9785350654201 6336.705966296625
528.0025548392696 6334.075476086214
529.0263139154504 6280.195795306684
530.0498123753423 6277.305769732664
531.073050300296 6270.047602535671
532.0960277716204 6203.414642027146
533.1187448705896 6237.588349221902
534.1412016784416 6252.91022624602
535.1633982763833 6208.058037247802
536.1853347455726 6151.632169294306
537.2070111671401 6182.701790112209
538.2284276221817 6089.117514546458
539.2495841917516 6046.751997698647
540.2704809568677 5994.779244193898
541.2911179985167 6046.546891129317
542.3114953976419 6026.478823784946
543.3316132351592 6020.6620959425
544.3514715919409 5942.355562892239
545.3710705488247 5935.296476903511
546.3904101866156 5889.7081941507
547.4094905860784 5913.006486275009
548.4283118279418 5895.56797454547
549.4468739929034 5943.688291741965
550.4651771616191 5892.632987027786
551.4832214147063 5840.994820631339
552.501006832761 5862.700180630966
553.5185334963226 5846.050310776527
554.5358014859103 5921.594241878388
555.5528108820035 5884.47145591546
556.5695617650363 5794.1576240943305
557.5860542154242 5844.882467646719
558.6022883135283 5824.743400582759
559.6182641396881 5763.445498084789
560.6339817741991 5868.090425954242
561.6494412973225 5816.810095370589
562.6646427892883 5933.979487705279
563.6795863302796 5830.027720013863
564.694272000459 5809.307610774337
565.7086998799423 5954.659935244251
566.7228700488104 5874.275512037195
567.7367825871115 5795.679311751935
568.7504375748576 5778.701962906494
569.7638350920224 5815.276548046053
570.7769752185486 5816.680634919855
571.7898580343353 5810.780665984909
572.802483619258 5816.911440105272
573.8148520531431 5889.241364569976
574.8269634157932 5877.349903498503
575.8388177869692 5838.362114453923
576.8504152463938 5888.635423632599
577.8617558737587 6039.859290978702
578.8728397487175 5907.947206509825
579.883666950891 5928.355329060132
580.8942375598654 6024.446952290502
581.9045516551851 6072.914795771733
582.9146093163617 6190.799856448125
583.924410622878 6077.744494367036
584.9339556541727 6143.137946290409
585.9432444896538 6195.5742077802115
586.9522772086875 6128.420841982721
587.9610538906127 6207.9120373510805
588.9695746147318 6148.294100175109
589.9778394603054 6185.678438208851
590.985848506567 6065.085741398757
591.9936018327098 6069.003088357027
593.0010995178891 5866.146156122356
594.0083416412344 6040.7673625728185
595.0153282818283 5803.893696560217
596.0220595187293 5834.11472376152
597.0285354309508 5862.073500836523
598.0347560974806 5836.410360406367
599.0407215972609 5773.66884690062
600.0464320092051 5752.805902505979
601.0518874121954 5760.877907522363
602.0570878850685 5732.715191740861
603.062033506636 5792.26433392794
604.0667243556636 5688.089405160649
605.0711605108936 5685.113375916821
606.0753420510264 5829.40700050685
607.0792690547278 5703.899951048101
608.082941600629 5655.190378586421
609.0863597673306 5768.9567055379375
610.0895236333909 5743.543445651418
611.0924332773357 5902.875135200817
612.0950887776617 5784.113492162431
613.0974902128219 5767.021077192601
614.0996376612384 6026.803507182733
615.1015312013005 6019.223100455647
616.1031709113595 6027.5199020644295
617.1045568697336 5907.933891452447
618.1056891547069 6029.306628362253
619.1065678445229 6128.343944411861
620.1071930173985 6304.098045227289
621.1075647515099 6276.582798209485
622.1076831250048 6346.027846562775
623.1075482159849 6413.657441095163
624.1071601025305 6463.42371256865
625.1065188626781 6513.431051850829
626.105624574433 6721.0182038773755
627.1044773157682 6782.182373794868
628.1030771646128 6751.287414360447
629.1014241988742 6849.748506551199
630.0995184964158 6948.0982540509185
631.0973601350688 7046.071232676293
632.0949491926294 7218.808903015651
633.0922857468631 6958.477956477856
634.089369875499 7064.695530139443
635.0862016562278 7144.658434871363
636.0827811667077 6914.818436154416
637.0791084845641 6929.995589591037
638.0751836873878 6824.744480209745
639.0710068527369 6932.7153207670635
640.0665780581294 6683.012467157186
641.0618973810506 6600.651958212159
642.0569648989604 6672.435302880631
643.0517806892676 6431.427371924084
644.0463448293649 6486.620543449457
645.040657396592 6385.685913587271
646.0347184682723 6294.714455769877
647.0285281216875 6142.270438001986
648.0220864340772 6062.56455861088
649.0153934826558 5960.138696057553
650.0084493446047 5926.522684981646
651.0012540970674 5929.417292375917
651.9938078171526 5860.582378441321
652.9861105819346 5788.6022798932345
653.9781624684565 5885.736005284458
654.9699635537254 5698.873270915219
655.9615139147136 5796.508950509108
656.9528136283589 5631.046423079533
657.9438627715699 5742.959991111925
658.9346614212154 5683.26621079359
659.925209654135 5472.968747332024
660.9155075471263 5571.865727413211
661.9055551769616 5552.814032254454
662.895352620375 5614.806739268881
663.8848999540678 5475.157318499664
664.8741972547068 5405.262665436855
665.863244598926 5394.446852284278
666.8520420633213 5420.819067602419
667.8405897244611 5293.463497858526
668.8288876588758 5254.80438148319
669.8169359430613 5341.506249140091
670.8047346534822 5402.719680098618
671.7922838665672 5259.273119593406
672.7795836587156 5352.551919793445
673.766634106285 5432.383066996428
674.7534352856092 5251.877757050422
675.7399872729766 5240.392052400784
676.7262901446538 5284.868238348314
677.712343976862 5288.471899098064
678.6981488457986 5300.598861845687
679.6837048276229 5153.248395898651
680.6690119984596 5239.405056751124
681.6540704344043 5223.967908003431
682.6388802115107 5229.536045428825
683.6234414058108 5178.081640253991
684.6077540932874 5185.747961075707
685.591818349907 5083.989533149832
686.575634251587 5193.19784598545
687.5592018742263 5156.310213599116
688.5425212936734 5022.119192265182
689.5255925857564 5208.894660546164
690.5084158262707 5101.613124731037
691.4909910909646 5070.386273979161
692.4733184555644 5076.9804994853985
693.4553979957618 5123.361935170625
694.4372297872123 5118.67947866601
695.4188139055404 5066.978183117273
696.4001504263324 4975.09527094696
697.3812394251509 5165.44725408601
698.3620809775111 4998.951304996974
699.3426751589104 5015.693241367646
700.3230220448004 5016.055912857233
701.3031217106054 5058.031212602659
702.2829742317172 5180.299980694447
703.2625796834873 4916.485139141326
704.2419381412474 4912.81334992955
705.22104968028 5003.192868782938
706.1999143758458 4928.812318899451
707.178532303169 4960.728714739892
708.1569035374378 4998.559551077336
709.1350281538107 5042.292798901725
710.1129062274158 4961.133771324566
711.0905378333373 5055.628260196217
712.0679230466376 5064.497672620297
713.0450619423427 5179.241790351435
714.0219545954424 5232.649506640916
714.9986010808989 5138.789623680333
715.9750014736292 5207.4944868286475
716.9511558485392 5264.9228487425
717.9270642804786 5344.400740698737
718.9027268442787 5379.804693551894
719.8781436147328 5348.579322009404
720.8533146666014 5299.121859881215
721.828240074612 5358.956083746842
722.8029199134635 5322.687441751075
723.7773542578125 5323.765159703474
724.751543182294 5244.261843112962
725.7254867615029 5346.661968234917
726.6991850700015 5170.501806424747
727.6726381823228 5161.983273534914
728.6458461729599 5236.744341791257
729.6188091163858 5119.674026434354
730.5915270870246 5126.276335460657
731.5640001592856 5033.203856986924
732.536228407529 5028.558307610399
733.5082119060917 5112.500201687909
734.4799507292755 4970.149587581281
735.4514449513481 5014.767289116748
736.4226946465496 5069.875152411244
737.3936998890786 5137.790129385609
738.3644607531078 4932.109463281873
739.3349773127793 4956.592723298714
740.3052496421951 4981.488312168925
741.27527781543 4866.732564999909
742.2450619065221 4868.195907711011
743.2146019894826 4935.080089895431
744.183898138288 4901.749073701765
745.1529504268801 4870.166600623851
746.1217589291682 4721.444631356014
747.0903237190341 4797.252183697011
748.058644870318 4761.257318212428
749.0267224568397 4762.357226981413
749.994556552374 4652.179400381801
750.9621472306771 4738.1287144782855
751.9294945654583 4731.41023713492
752.8965986304011 4646.2041974569875
753.8634594991636 4665.403601705653
754.8300772453586 4720.524699745059
755.7964519425768 4686.264627622006
756.762583664371 4786.381489250023
757.7284724842611 4743.8225955242715
758.6941184757416 4702.966080988315
759.6595217122667 4639.024477927225
760.6246822672638 4759.398883606316
761.5896002141235 4535.317542309921
762.5542756262093 4634.306453035704
763.5187085768503 4671.434615499933
764.4828991393406 4627.793302366439
765.4468473869474 4622.782098054548
766.4105533929032 4695.309426767149
767.3740172304078 4596.981503334949
768.3372389726283 4676.230764276888
769.3002186926988 4605.156758247986
770.2629564637282 4622.954536021896
771.2254523587872 4540.656172115124
772.1877064509154 4544.735347653779
773.1497188131179 4436.866864311503
774.1114895183728 4470.981663752925
775.0730186396268 4416.701819133489
776.0343062497905 4433.429080420725
776.9953524217381 4349.8507359284395
777.9561572283274 4422.296813453199
778.9167207423689 4414.263326071906
779.8770430366476 4267.35529599981
780.8371241839159 4337.261432546713
781.7969642568951 4356.925394369349
782.7565633282757 4472.76306083971
783.7159214707099 4340.277595499829
784.6750387568281 4437.975119536832
785.6339152592227 4364.472637023492
786.5925510504512 4382.242378522549
787.5509462030477 4365.037655471536
788.5091007895098 4383.241441848474
789.4670148823006 4344.064487932415
790.4246885538596 4367.088290538404
791.3821218765861 4357.630916673049
792.3393149228505 4268.45113626579
793.2962677649975 4422.034910841441
794.2529804753303 4345.647488589004
795.20945312613 4428.230377923849
796.1656857896378 4330.324727996596
797.1216785380675 4262.641398182588
798.0774314435985 4351.328577183418
799.0329445783846 4511.732557031795
799.9882180145414 4455.919005038706
800.9432518241574 4390.3965660109125
801.89804607929 4508.556123126933
802.852600851962 4539.363956996212
803.8069162141637 4455.342290925795
804.760992237856 4557.357047190091
805.714828994971 4599.016228992929
806.6684265574077 4652.809382674377
807.6217849970271 4584.055129690609
808.574904385674 4506.105683401499
809.527784795142 4543.095434388663
810.4804262972102 4740.030037727548
811.4328289636178 4442.620707866853
812.3849928660748 4421.806722072759
813.3369180762638 4406.544570843302
814.2886046658241 4503.46072720405
815.2400527063783 4373.678522920387
816.1912622695108 4347.557313165535
817.1422334267718 4453.309229818246
818.0929662496856 4262.616691742396
819.0434608097457 4162.2384640225
819.9937171784059 4222.461934680249
820.9437354271013 4156.474348909487
821.8935156272255 4279.471963657039
822.8430578501484 4176.017775054993
823.7923621672016 4026.4109156814093
824.7414286496896 4057.4011709453343
825.6902573688876 4166.530040011209
826.6388483960363 4174.8990293981105
827.5872018023492 4025.8484839356265
828.5353176590033 4116.282602114605
829.4831960371503 4045.183107257331
830.4308370079016 3984.1195070425215
831.3782406423525 4110.408772598686
832.3254070115545 4115.608062608005
833.2723361865319 4102.571984958614
834.2190282382799 3964.6919233440094
835.1654832377644 4029.6785005756965
836.1117012559116 3933.696263937044
837.0576823636256 4109.991562525758
838.003426631778 3944.026802698662
838.9489341312074 3945.097294380659
839.8942049327197 4052.5376726768745
840.8392391070975 4117.453606282398
841.7840367250865 3954.621975130579
842.7285978573982 3953.8239675074146
843.672922574724 3972.118668007952
844.6170109477152 3925.8773280137057
845.560863046996 3930.2582917260297
846.5044789431595 4009.27286825867
847.4478587067697 3949.070576550815
848.3910024083561 4053.151545946632
849.333910118421 3919.3123247858566
850.2765819074339 3848.8851802749496
851.2190178458332 3978.023972384823
852.161218004032 4037.3149784254792
853.1031824524016 3937.053327643909
854.0449112612987 3939.890448778698
854.9864045010327 3989.626054156453
855.9276622418947 3909.7139952631233
856.8686845541379 3896.7114660634666
857.8094715079915 3961.828012745466
858.7500231736467 4063.9140197698443
859.690339621271 4017.4102339625633
860.6304209209939 4005.4762317559134
861.5702671429244 3881.435829728636
862.5098783571284 3972.4422873327835
863.4492546336569 4004.5875690158655
864.3883960425155 3902.1058062304232
865.3273026536863 3956.875641371512
866.2659745371238 3786.8172283088506
867.2044117627465 4014.3265400028954
868.1426144004472 3910.2753337111617
869.0805825200823 4000.835244285
870.0183161914847 3941.1061327319876
870.9558154844526 4042.416477890574
871.8930804687552 3964.971296021551
872.8301112141307 3849.242036028555
873.7669077902865 4051.0915141414466
874.7034702669062 4148.227204773453
875.6397987136315 4031.139139779631
876.5758932000863 4067.829088169263
877.5117537958522 4154.4939342423895
878.4473805704911 4047.9191242865877
879.3827735935283 4047.1240228325746
880.3179329344603 4191.937057112225
881.2528586627541 4128.678440446568
882.1875508478479 4243.034118984324
883.1220095591489 4156.322687947358
884.0562348660296 4104.844491317098
884.9902268378391 4234.273048694114
885.9239855438955 4117.901794903762
886.8575110534839 4041.302386587714
887.7908034358588 4167.5513656520825
888.7238627602474 4127.744914659745
889.6566890958475 4155.703086366388
890.5892825118208 3949.978143152171
891.5216430773125 4063.447843515365
892.4537708614189 4096.524645680299
893.3856659332196 4005.053433876805
894.3173283617652 3959.5931194590303
895.2487582160684 4008.2820010276287
896.179955565116 3961.3292099003966
897.110920477864 3923.5784094827914
898.0416530232451 3840.7749181414824
898.9721532701478 3847.800526854662
899.9024212874428 3960.079350554628
900.8324571439662 3777.605220321845
901.7622609085302 3830.83963696004
902.6918326499072 3654.293902808238
903.6211724368477 3762.915140216791
904.5502803380696 3903.892749798533
905.4791564222614 3946.9357227455403
906.4078007580792 3783.052537160171
907.3362134141571 3734.951239710651
908.2643944590909 3878.062406327573
909.1923439614493 3728.9971804677734
910.1200619897754 3773.2285765358174
911.0475486125779 3916.415746253184
911.9748038983344 3781.547451537711
912.9018279155007 3749.2608940507644
913.8286207324982 3641.3241175972594
914.7551824177117 3771.098747323539
915.6815130395116 3678.287101591369
916.6076126662283 3593.1659500302712
917.533481366163 3656.8178652172655
918.4591192075914 3656.571093104953
919.3845262587565 3743.7622264970305
920.3097025878706 3630.999037424704
921.2346482631237 3645.7849275881235
922.1593633526682 3624.5863874164106
923.0838479246304 3708.815725213181
924.0081020471061 3758.138751459216
924.9321257881656 3534.655293502223
925.8559192158464 3665.2731125132605
926.7794823981512 3559.629486234296
927.7028154030686 3555.2216190057347
928.6259182985414 3542.6167407980183
929.5487911524906 3667.2450663891314
930.4714340328119 3708.2573189821073
931.3938470073608 3515.5584329032877
932.3160301439748 3525.583605552763
933.2379835104548 3528.007817423363
934.1597071745709 3634.2937676493866
935.0812012040769 3576.989304748299
936.002465666681 3684.3752992176233
936.9235006300696 3656.643478654485
937.8443061619055 3667.53176887517
938.7648823298077 3552.4427212614637
939.6852292013809 3570.919890215241
940.6053468441951 3593.1162775082958
941.5252353257874 3456.088973513747
942.4448947136698 3593.2209067354006
943.364325075323 3510.4044899686805
944.2835264782043 3514.93792155756
945.2024989897309 3506.6016032470297
946.1212426773054 3567.6339792136846
947.0397576082851 3603.954461881688
947.9580438500125 3687.0542189622256
948.8761014697939 3660.406954409739
949.7939305349064 3587.5213246553385
950.7115311125999 3526.052539317695
951.6289032700952 3434.9393143036227
952.5460470745875 3598.708256373657
953.4629625932339 3510.0950063437754
954.3796498931715 3576.5233074641606
955.2961090415029 3570.3275032525753
956.2123401053068 3576.2923682386195
957.1283431516276 3500.9998886945673
958.0441182474842 3500.5253365779254
958.9596654598663 3670.0524175998885
959.8749848557309 3559.066087954989
960.7900765020167 3448.853952996782
961.7049404656209 3482.739617922649
962.6195768134185 3537.462599750675
963.5339856122537 3550.3521237573877
964.4481669289453 3610.4399694474764
965.3621208302793 3526.9338037001676
966.2758473830145 3475.214467211134
967.1893466538822 3709.332026674173
968.1026187095813 3544.489415855114
969.0156636167867 3553.3081320577367
969.9284814421426 3534.5476011231804
970.8410722522622 3532.068161399225
971.753436113735 3538.6297548678476
972.6655730931161 3455.219702275378
973.5774832569368 3504.339028407827
974.4891666716958 3407.9070103508952
975.4006234038698 3393.517637320959
976.3118535198955 3479.527888702875
977.2228570861935 3580.0449068755347
978.1336341691494 3546.566385508587
979.0441848351202 3405.7944397584083
979.9545091504333 3520.9044185539096
980.864607181391 3544.2345956183262
981.7744789942699 3561.289132882311
982.6841246553086 3514.053388213591
983.5935442307236 3487.1683664730617
984.5027377867027 3527.1597999108626
985.4117053894024 3473.8416795931034
986.3204471049557 3383.431112501277
987.2289629994648 3572.7923276711167
988.1372531390007 3630.7602714282402
989.0453175896091 3585.667041174195
989.9531564173067 3549.4406332841113
990.860769688079 3466.8628334038503
991.7681574678918 3481.3595594602907
992.6753198226706 3567.6342995768746
993.582256818323 3475.5100433582907
994.4889685207218 3495.930938356433
995.3954549957143 3645.5704103796065
996.301716309119 3651.2363258766445
997.2077525267232 3506.09012717273
998.1135637142943 3468.039250499348
999.0191499375615 3699.9153390766965
999.924511262232 3680.536679035043
1000.8296477539861 3613.1933462933266
1001.7345594784656 3540.404737937275
1002.6392465012996 3473.65425033145
1003.5437088880753 3658.475376048025
1004.4479467043584 3640.4395201823477
1005.3519600156869 3464.2081816930513
1006.2557488875718 3615.4095019059555
1007.1593133854858 3669.019648758397
1008.0626535748888 3473.460684805998
1008.9657695212009 3443.4326219929235
1009.8686612898182 3688.451983771908
1010.7713289461135 3596.866644724055
1011.6737725554212 3518.1880307811543
1012.5759921830577 3583.9504511497425
1013.4779878943027 3547.711428724147
1014.379759754418 3583.1699005786963
1015.2813078286254 3454.591764318075
1016.18263218213 3440.7436696951263
1017.0837328801026 3410.0599459406485
1017.9846099876886 3520.3541281148464
1018.8852635700023 3461.5067776532514
1019.7856936921362 3325.3573138970505
1020.6859004191447 3520.6690055663494
1021.5858838160675 3396.7340685325094
1022.4856439479063 3345.0839981259805
1023.3851808796389 3252.210562291172
1024.2844946762143 3457.926133409778
1025.183585402554 3419.9688237313217
1026.082453123554 3165.5506843669477
1026.9810979040776 3386.5577931293424
1027.8795198089647 3273.3668540314006
1028.777718903024 3369.862600890969
1029.6756952510368 3240.6390711190065
1030.5734489177648 3355.577030176713
1031.4709799679313 3240.5309997313207
1032.3682884662358 3469.097357027279
1033.2653744773506 3147.0348832771097
1034.1622380659192 3179.100335001146
1035.058879296559 3304.0784476461426
1035.9552982338591 3382.4444558781083
1036.8514949423825 3243.049375906082
1037.7474694866614 3292.291506479801
1038.6432219312028 3195.9119966533312
1039.5387523404825 3336.6805903917652
1040.4340607789582 3178.913573618005
1041.3291473110476 3234.3197737197283
1042.2240120011465 3329.0536617101448
1043.1186549136273 3435.861463109098
1044.0130761128294 3251.730644706312
1044.9072756630649 3202.20606039706
1045.8012536286205 3286.6157342520382
1046.6950100737577 3327.3040736478347
1047.588545062701 3402.053728618864
1048.481858659663 3358.1602315197465
1049.3749509288118 3417.8277996571196
1050.2678219343034 3300.0154737139733
1051.1604717402515 3311.8029486719925
1052.0529004107575 3227.7059712026603
1052.9451080098825 3367.8749031010075
1053.8370946016694 3344.609756941182
1054.7288602501267 3393.11437278546
1055.6204050192446 3376.208460395484
1056.511728972977 3409.593831772055
1057.402832175254 3318.055227051818
1058.2937146899785 3300.243197306618
1059.1843765810263 3272.980589422167
1060.0748179122456 3341.2655754125617
1060.9650387474576 3284.3976601553586
1061.855039150456 3383.1248713003088
1062.7448191850071 3361.293213390355
1063.6343789148505 3308.4533526556197
1064.5237184037014 3431.1627503564123
1065.412837715241 3354.4751623023194
1066.3017369131267 3313.1579735724713
1067.190416060992 3284.3889220699944
1068.0788752224398 3301.907602305818
1068.9671144610438 3238.6696030190283
1069.8551338403558 3373.4527161386877
1070.7429334239023 3308.2463374546182
1071.6305132751695 3190.76336236521
1072.517873457633 3311.5971331144524
1073.4050140347335 3234.7572608453816
1074.2919350698776 3290.430427322301
1075.1786366264623 3224.3245058876278
1076.0651187678395 3286.1231566704723
1076.95138155735 3157.934196105324
1077.8374250582929 3202.025493703141
1078.7232493339507 3240.0169426067387
1079.608854447577 3151.1845713696725
1080.4942404623907 3097.0382301973646
1081.3794074415982 3139.6681745045507
1082.2643554483657 3244.128599901815
1083.149084545841 3078.196433376309
1084.033594797138 3050.0468000031683
1084.9178862653516 3073.5160789187694
1085.8019590135427 3218.7496909129213
1086.6858131047484 3001.8183481934952
1087.5694486019802 3178.5064936961594
1088.4528655682225 3076.4585812803252
1089.3360640664287 3263.5389210298135
1090.2190441595321 3175.8210907423663
1091.1018059104317 3171.6683081275687
1091.98434938201 3141.519613215655
1092.866674637111 3243.2094212019515
1093.748781738559 3102.4174274563297
1094.6306707491512 3005.674417476846
1095.5123417316554 3178.7496427401206
1096.3937947488157 3096.439012847767
1097.2750298633455 3094.819528951338
1098.156047137938 3038.446433740862
1099.0368466352556 3065.3259569758106
1099.9174284179317 3273.1942993261328
1100.7977925485757 3038.0189880414705
1101.6779390897755 3006.1760435446627
1102.5578681040806 3052.6309230818106
1103.4375796540226 3066.5128013982735
1104.3170738021054 3022.5733774261944
1105.1963506108077 2886.291870795695
1106.0754101425773 2902.695863795169
1106.9542524598382 3129.106722089126
1107.8328776249855 3037.6463248361824
1108.7112857003904 2931.543839869356
1109.5894767483987 2935.977709632254
1110.4674508313292 3152.5698592818994
1111.3452080114657 2982.761176778795
1112.2227483510815 3048.6092474990533
1113.1000719124077 3105.4330253634366
1113.9771787576592 3116.874977157343
1114.854068949022 3047.6073961555567
1115.7307425486542 3179.7483993740707
1116.6071996186893 3229.207588360714
1117.483440221229 3374.9599064118643
1118.3594644183577 3135.1758994900874
1119.235272272128 3282.405937225548
1120.1108638445658 3261.0022493002684
1120.9862391976712 3431.6351501097474
1121.8613983934229 3292.7845127928604
1122.7363414937627 3339.9994876309074
1123.6110685606182 3362.7225100146024
1124.485579655884 3486.2403527700894
1125.359874841426 3417.8538865877053
1126.2339541790916 3432.952417505008
1127.1078177306936 3671.27333469494
1127.9814655580267 3521.175784048497
1128.854897722851 3493.833777382696
1129.7281142869106 3461.332680519531
1130.6011153119125 3533.120083499495
1131.473900859548 3712.3905327691887
1132.3464709914697 3461.597299017513
1133.2188257693178 3549.0241124161594
1134.0909652546961 3402.4339162426886
1134.96288950919 3361.4118766196307
1135.8345985943506 3501.0436456514885
1136.7060925717087 3276.2620745113895
1137.57737150277 3342.054079755537
1138.4484354490069 3529.418215491621
1139.3192844718778 3315.5149446634546
1140.1899186327992 3174.7408845027085
1141.060337993178 3369.7883321612157
1141.930542614382 3274.907425343527
1142.8005325577597 3138.6902590180875
1143.670307884635 2990.723329546938
1144.5398686563003 3166.1793540864705
1145.409214934025 3180.8378731547436
1146.2783467790541 2927.5920615159357
1147.1472642526023 3076.61810154237
1148.0159674158622 3152.8077675196787
1148.8844563300026 3072.7030913682242
1149.7527310561618 2890.7958956652596
1150.6207916554504 2892.438693581843
1151.4886381889592 2840.956713718865
1152.3562707177498 3006.1775036481795
1153.2236893028585 2838.9820663255073
1154.090894005296 2833.507353208501
1154.9578848860474 2847.444586960807
1155.8246620060709 2886.806544856727
1156.6912254262988 2749.371015084044
1157.5575752076438 2763.175501300666
1158.42371141098 2966.381129808081
1159.2896340971656 2926.380816079897
1160.1553433270346 2864.7380211206055
1161.0208391613887 2847.064087429953
1161.8861216610057 2825.7036803596425
1162.75119088664 2880.910205664318
1163.6160468990201 2837.6797830396854
1164.4806897588442 2691.4464096861184
1165.3451195267917 2924.351888980695
1166.2093362635114 2805.952323180619
1167.0733400296285 2843.8953832189923
1167.9371308857444 2744.462323664217
1168.8007088924278 2788.7158434677926
1169.6640741102328 2844.096897448896
1170.5272265996773 2717.3195266672283
1171.390166421259 2652.2617751302714
1172.252893635452 2829.802773640845
1173.1154083026995 2984.7770868532107
1173.977710483421 2959.5828699296285
1174.8398002380145 2720.986088835098
1175.7016776268483 2881.049229815634
1176.563342710264 2772.2000139012953
1177.4247955485826 2750.7981620651863
1178.2860362020947 2857.3919748702333
1179.147064731069 2716.505121051812
1180.0078811957483 2864.8421890811364
1180.8684856563486 2746.5045823230416
1181.7288781730604 2857.0011765262657
1182.589058806052 2755.7073916154955
1183.4490276154593 3081.4748724422525
1184.3087846614017 2820.3355009635666
1185.1683300039676 2823.695220519569
1186.027663703222 2944.7765438214997
1186.8867858192025 2880.7760508272213
1187.7456964119228 2879.6942676996377
1188.6043955413716 2903.9095435851727
1189.4628832675116 2966.5976327877347
1190.3211596502842 3061.2475902880624
1191.179224749596 3045.954827617849
1192.0370786253388 2898.5858509261802
1192.8947213373758 3085.881211030758
1193.7521529455407 3205.6232345675353
1194.6093735096438 2962.607069957238
1195.466383089477 3039.4611325495252
1196.3231817447977 3003.6269259874534
1197.1797695353398 3108.238714316585
1198.0361465208189 2914.858517694447
1198.8923127609214 2979.384773617736
1199.7482683153048 3178.010000210975
1200.6040132436028 3214.757298295561
1201.459547605431 3055.1340934691043
1202.3148714603722 3130.9906910004283
1203.1699848679855 3130.0554757717377
1204.0248878878065 3202.672803301018
1204.8795805793507 2903.244276650266
1205.7340630020935 3153.0659269713738
1206.5883352155033 3149.0335865897323
1207.4423972790064 3161.657063223289
1208.2962492520237 2949.7937009828092
1209.1498911939307 3041.6284130189656
1210.0033231640937 3032.6484802580826
1210.8565452218427 3070.6686289096983
1211.7095574264913 2764.5130847468818
1212.5623598373222 2883.8425561707745
1213.4149525135963 2805.1318277826635
1214.2673355145507 2977.4827963222683
1215.1195088993936 2820.574103536209
1215.9714727273113 2780.4212682368993
1216.8232270574663 3054.93759543982
1217.6747719489904 2675.9152736293818
1218.5261074609934 2777.072789096587
1219.3772336525653 2896.3521527978137
1220.2281505827668 2899.987114592971
1221.0788583106296 2876.9628507584653
1221.9293568951707 2720.729589683743
1222.7796463953746 2678.4261197905716
1223.629726870202 2828.0142617707124
1224.4795983785934 2827.1482764884163
1225.3292609794553 2767.836524839573
1226.1787147316809 2589.3243721758854
1227.0279596941327 2739.874361004789
1227.8769959256424 2608.259123414492
1228.7258234850306 2748.6816412850067
1229.5744424310833 2577.261868001392
1230.422852822563 2814.2056949849284
1231.2710547182105 2879.714705709194
1232.119048176739 2752.496459258588
1232.9668332568417 2573.6226157379056
1233.8144100171812 2763.3050231862867
1234.6617785163999 2765.345086351315
1235.508938813111 2498.3091610498714
1236.3558909659114 2556.9954061683557
1237.2026350333617 2698.2894772310487
1238.049171074008 2822.29807552641
1238.8954991463652 2610.176366137605
1239.741619308932 2724.3340706369086
1240.587531620169 2740.013802586811
1241.4332361385277 2755.016254643833
1242.2787329224248 2664.328821455085
1243.1240220302534 2571.2850322107233
1243.9691035203869 2591.3445660317843
1244.813977451171 2766.6436656426667
1245.6586438809263 2750.332290119393
1246.5031028679496 2462.0467593698622
1247.3473544705157 2705.7083172945936
1248.1913987468706 2671.7647092211582
1249.0352357552383 2453.6254417997666
1249.8788655538228 2488.9446569005377
1250.7222882007918 2640.0528565008217
1251.565503754302 2675.336737971733
1252.4085122724755 2367.3723204482844
1253.2513138134182 2694.2836474297615
1254.0939084352049 2604.5316744994143
1254.9362961958905 2572.041628906253
1255.7784771535007 2627.8098212573095
1256.6204513660432 2758.429623869321
1257.4622188915 2816.1202798342183
1258.3037797878242 2568.2806981393182
1259.1451341129468 2555.216974660476
1259.9862819247755 2668.8820253801064
1260.8272232811978 2557.281444090858
1261.6679582400666 2802.6039508868926
1262.5084868592203 2488.1443113641208
1263.34880919647 2514.4200289634036
1264.1889253095997 2585.3884333395604
1265.0288352563712 2780.9279617882607
1265.8685390945266 2593.3268476937965
1266.7080368817751 2761.17153046282
1267.5473286758115 2798.307142142053
1268.386414534294 2748.1711166123278
1269.2252945148703 2416.115619473303
1270.0639686751547 2545.2306422461033
1270.9024370727402 2591.4300698253037
1271.7406997651997 2541.484931685719
1272.5787568100714 2440.123768644296
1273.4166082648808 2527.874375214488
1274.2542541871244 2514.274057189979
1275.091694634275 2827.6917962553644
1275.9289296637817 2459.609167479886
1276.7659593330663 2695.130857810869
1277.6027836995308 2539.4068772624823
1278.4394028205552 2725.35868521519
1279.2758167534867 2583.638569773907
1280.112025555658 2624.3714142334093
1280.9480292843746 2697.1714093461296
1281.7838279969128 2505.352470624613
1282.6194217505326 2578.633509305154
1283.4548106024686 2466.1559659638056
1284.289994609926 2505.941259586647
1285.1249738300921 2642.362217763203
1285.959748320127 2456.5127172487455
1286.7943181371702 2550.244726710878
1287.6286833383328 2537.603833512546
1288.4628439807038 2626.26906129884
1289.2968001213521 2476.0205649321715
1290.1305518173194 2531.9140198359664
1290.9640991256183 2601.132696772691
1291.7974421032523 2537.2861216278898
1292.630580807183 2401.965656051314
1293.463515294361 2615.387848526801
1294.29624562171 2745.42089516382
1295.12877184613 2451.0541754243213
1295.961094024493 2401.478823049551
1296.79321221365 2580.573204012505
1297.6251264704333 2616.5775573577803
1298.4568368516466 2776.3943931444783
1299.2883434140658 2633.7901978254467
1300.1196462144526 2467.12515270534
1300.9507453095375 2667.4956869438147
1301.7816407560313 2679.45758536652
1302.6123326106172 2724.2806625161766
1303.4428209299622 2471.011815964278
1304.2731057707024 2753.4057520876763
1305.1031871894502 2599.41163925877
1305.933065242798 2727.159148904515
1306.7627399873181 2569.2815759039663
1307.5922114795467 2941.215043044155
1308.4214797760123 2782.6383696537637
1309.2505449332057 2578.618290236008
1310.0794070076026 2758.785179506526
1310.9080660556538 2850.8482372179797
1311.736522133786 2891.2453458049595
1312.5647752983987 2644.6387821402195
1313.3928256058734 2539.451134980471
1314.2206731125661 2788.4339642884142
1315.048317874809 2684.6602593677376
1315.8757599489109 2665.9344622420676
1316.7029993911547 2754.632899134303
1317.5300362578055 2916.1750858697847
1318.356870605101 2617.2635492023364
1319.183502489257 2628.361959844537
1320.0099319664623 2750.3351809979827
1320.836159092889 2884.7355332299485
1321.66218392468 2894.76840807438
1322.4880065179532 2593.969565560814
1323.3136269288134 2758.2721540002904
1324.1390452133292 2816.222090970159
1324.9642614275563 2921.113199329785
1325.7892756275214 2782.3247201931817
1326.6140878692295 2584.124777024849
1327.4386982086617 3096.5228451610624
1328.2631067017755 2844.9672744235327
1329.0873134045069 2798.7568709329266
1329.911318372764 2776.353144078742
1330.735121662441 2758.890218698517
1331.558723329399 2692.6344372958856
1332.3821234294774 2734.8059188815573
1333.2053220185007 2774.915657078601
1334.0283191522612 2650.3819146680453
1334.851114886529 2806.979419689495
1335.6737092770582 2579.12860385112
1336.4961023795695 2755.494490590774
1337.3182942497697 2612.819644510836
1338.1402849433325 2722.1814090368616
1338.962074515921 2561.928833243269
1339.7836630231632 2572.084842675407
1340.6050505206676 2917.54566975458
1341.426237064028 2786.635265162015
1342.2472227088037 2590.44526445931
1343.0680075105338 2582.6418506034283
1343.888591524741 2665.8760504229213
1344.7089748069138 2821.718959787441
1345.5291574125276 2636.3271276517708
1346.3491393970307 2447.530454092604
1347.168920815846 2781.0301090291114
1347.9885017243778 2715.110836976749
1348.8078821780036 2579.4144742849467
1349.6270622320844 2676.4964732414783
1350.4460419419447 2539.979148383766
1351.2648213629054 2672.5352303780287
1352.0834005502438 2529.5324856372035
1352.90177955923 2518.842156218741
1353.7199584451064 2662.1696756742376
1354.5379372630887 2698.6797619612926
1355.355716068374 2608.804151205017
1356.1732949161305 2477.5343112751916
1356.9906738615155 2537.803217686624
1357.8078529596478 2539.5578354644213
1358.6248322656375 2727.6583139318564
1359.441611834567 2517.5840374556656
1360.2581917214866 2618.8881455211776
1361.0745719814367 2609.3831835358233
1361.890752669433 2463.957959861501
1362.7067338404577 2448.9638831435363
1363.5225155494845 2631.7873931733657
1364.3380978514506 2701.301490405709
1365.1534808012839 2379.614632793185
1365.9686644538815 2301.240816519637
1366.783648864117 2684.494218179373
1367.5984340868417 2741.799975246983
1368.413020176893 2615.0436659194643
1369.2274071890715 2395.0976106263643
1370.0415951781652 2702.773246672505
1370.8555841989346 2622.1675954430184
1371.6693743061223 2421.6716221250313
1372.48296555444 2314.5203586031503
1373.2963579985844 2598.065283757587
1374.1095516932255 2526.5158307845945
1374.9225466930166 2247.5016754834396
1375.7353430525782 2521.343578407843
1376.5479408265164 2355.204788622441
1377.36034006941 2597.4298532171915
1378.1725408358216 2565.840431352437
1378.9845431802805 2304.850167884049
1379.796347157304 2722.9825876262016
1380.6079528213813 2573.116488268133
1381.4193602269788 2343.258033753633
1382.230569428546 2447.5474857209438
1383.0415804805016 2564.2935637992096
1383.852393437246 2516.4374576023592
1384.6630083531563 2467.454575078977
1385.4734252825892 2471.040146676692
1386.2836442798798 2373.014755342993
1387.0936653993322 2485.120830122057
1387.9034886952395 2358.3869490305556
1388.713114221864 2491.50036538105
1389.5225420334482 2557.9127845228527
1390.331772184214 2443.270672601865
1391.1408047283585 2144.095558502944
1391.9496397200564 2423.9151537812477
1392.758277213461 2506.984204920046
1393.5667172627054 2572.2659158620454
1394.3749599218918 2435.568891862179
1395.1830052451114 2265.224316994837
1395.9908532864265 2424.4024134353344
1396.7985040998774 2584.2100591132967
1397.6059577394808 2327.6810173378503
1398.4132142592352 2408.591904280676
1399.2202737131156 2278.531672794298
1400.027136155073 2580.021687143807
1400.8338016390353 2377.5998212409995
1401.6402702189134 2412.594115460017
1402.446541948586 2420.224061827962
1403.2526168819204 2309.2411097681074
1404.058495072757 2357.4975510662116
1404.8641765749107 2426.6723029081036
1405.6696614421799 2445.9843866541346
1406.4749497283356 2811.3913987848237
1407.280041487129 2347.214086689194
1408.084936772295 2191.110739437551
1408.8896356375335 2533.0932615356046
1409.6941381365323 2502.038771834724
1410.498444322955 2231.1088761007622
1411.3025542504402 2328.5481546124133
1412.106467972606 2343.3917316199913
1412.9101855430508 2456.064678050255
1413.7137070153458 2216.67319809458
1414.5170324430437 2297.0289750712595
1415.320161879672 2449.660826192776
1416.1230953787435 2608.583186248613
1416.925832993742 2262.262093768837
1417.7283747781275 2244.377000911847
1418.5307207853439 2402.723586099127
1419.3328710688093 2363.259033332105
1420.134825681922 2128.863297406876
1420.9365846780584 2272.654677338971
1421.7381481105713 2579.3697024964313
1422.539516032788 2430.9573794349412
1423.3406884980232 2187.299000601369
1424.1416655595604 2176.357601648143
1424.942447270665 2217.7880321147313
1425.7430336845828 2438.8885068063437
1426.5434248545298 2138.931178462115
1427.3436208337116 2390.517061463032
1428.143621675301 2299.5982704790304
1428.9434274324558 2527.17546929873
1429.7430381583108 2170.9667623174632
1430.5424539059713 2222.0916378469037
1431.3416747285337 2688.0375517838893
1432.1407006790632 2321.9300908394284
1432.9395318106053 2326.1256004509028
1433.7381681761835 2189.9409578841924
1434.5366098288014 2385.2237888869063
1435.3348568214424 2468.4191182287236
1436.1329092070573 2268.417924355338
1436.9307670385879 2327.7638728671286
1437.7284303689503 2377.00922521271
1438.5258992510335 2448.4904425439354
1439.3231737377118 2358.983047069557
1440.1202538818306 2307.4515652252476
1440.9171397362225 2311.6545658209266
1441.7138313536925 2330.749040211412
1442.5103287870243 2111.0542426880916
1443.3066320889775 2084.924273194918
1444.1027413122956 2487.8329494375757
1444.8986565096966 2191.3821847481086
1445.694377733882 2285.8862331686537
1446.4899050375207 2108.190938446919
1447.2852384732687 2253.0618426508718
1448.0803780937622 2348.1207027498103
1448.8753239516063 2124.2392566569138
1449.6700760993954 2024.7241683167886
1450.464634589689 2184.6212229271277
1451.2589994750397 2563.064971902885
1452.0531708079689 2097.961333600465
1452.8471486409799 2058.5262795168796
1453.6409330265524 2342.922293137866
1454.4345240171442 2088.6170793846986
1455.2279216651987 2078.523096265024
1456.0211260231263 2214.8143514506905
1456.8141371433194 2498.4002475948246
1457.6069550781594 2306.6975829599833
1458.3995798799897 1992.9657288875264
1459.1920116011424 2105.8980727817334
1459.98425029393 2098.780868256568
1460.7762960106338 2041.0633509939191
1461.5681488035225 2125.142623147458
1462.3598087248392 2202.888998584743
1463.1512758268036 2333.1211008508662
1463.942550161617 2074.751445174256
1464.7336317814625 2025.3972054209084
1465.524520738496 2197.163862830386
1466.3152170848552 2021.1019834718657
1467.1057208726506 2136.4040832271103
1467.8960321539817 2050.0781946220704
1468.6861509809169 2018.5718929427017
1469.4760774055085 2085.28880737966
1470.265811479785 2072.301406706731
1471.055353255755 1861.7117087045685
1471.844702785409 1934.6447030998638
1472.6338601207044 1989.45739138187
1473.4228253135934 2267.959176954963
1474.2115984159936 1932.1397838696462
1475.0001794798063 1750.5839615867778
1475.7885685569145 2033.9244224226718
1476.576765699172 2003.6077167580122
1477.3647709584238 1976.8184869067863
1478.1525843864802 2282.8297906552207
1478.9402060351367 2097.496700599633
1479.7276359561693 2151.8965959762613
1480.514874201328 2037.4300193173378
1481.3019208223468 1836.5166384217234
1482.0887758709323 1751.1578970055702
1482.8754393987747 1824.7085236430594
1483.6619114575406 1898.3519633920582
1484.4481920988783 2065.604498428121
1485.2342813744108 2074.4280561960977
1486.0201793357446 2136.639794330985
1486.8058860344572 1958.9270031657138
1487.591401522117 2052.105545625269
1488.3767258502594 1984.604405690911
1489.1618590704056 2029.2853253065234
1489.9468012340494 1752.5175219377463
1490.7315523926754 2095.6455259543654
1491.5161125977356 2141.055065912489
1492.3004819006637 2134.0771432247507
1493.084660352877 1953.6535562440324
1493.8686480057622 2025.767407068103
1494.6524449106964 2260.2014831502865
1495.4360511190262 2317.613671486254
1496.219466682087 2079.4618857118853
1497.0026916511779 1985.6440703472574
1497.7857260775945 2019.0746245587113
1498.5685700125996 2207.4892582472908
1499.3512235074395 1938.19131678619
1500.133686613337 1881.8247739352814
1500.9159593814966 1984.2478727672901
1501.698041863101 1919.8382353495751
1502.4799341093094 1855.4336544119305
1503.2616361712662 1823.1614899618696
1504.043148100087 2077.6496877472428
1504.8244699468742 2104.094402427952
1505.6056017626997 1866.3980047004275
1506.3865435986281 1889.3188300529407
1507.1672955056893 2024.5832851351265
1507.9478575348967 1887.195507576811
1508.7282297372512 2091.1009905742476
1509.5084121637192 2031.4988691534247
1510.2884048652577 1977.7187900828212
1511.0682078927948 1850.8957153828844
1511.8478212972423 1897.8047601546245
1512.6272451294917 1905.094872217302
1513.4064794404076 2085.318552816715
1514.1855242808433 2135.488309221303
1514.9643797016215 2001.3663532600124
1515.743045753552 2138.3773362013944
1516.5215224874191 2016.3347068109015
1517.2998099539836 1815.1449952767744
1518.077908203999 2059.110809968245
1518.8558172881785 1950.6519907688544
1519.633537257234 2069.0512463408
1520.4110681618404 2091.3106792759722
1521.1884100526604 1923.1367702753546
1521.9655629803365 1955.221115899233
1522.7425269954856 2205.1288363077347
1523.5193021487103 2300.5173512259453
1524.2958884905856 1898.5286668372646
1525.0722860716687 2012.1396827809936
1525.848494942502 1921.5674291927742
1526.624515153595 2013.187635125986
1527.4003467554485 1964.8269619903974
1528.175989798534 2091.6194630418686
1528.9514443333064 2059.827079622456
1529.726710410203 2220.0609431190874
1530.5017880796331 1923.3451208661186
1531.276677391992 1902.3926587259666
1532.0513783976457 2212.026796873377
1532.825891146953 2062.1297812652565
1533.6002156902414 2112.119456535844
1534.3743520778207 1934.7344192130054
1535.1483003599806 2064.4603633390457
1535.9220605869923 2115.199893499064
1536.6956328091019 2099.233124612598
1537.4690170765407 2023.2742059894983
1538.242213439511 2171.1468821159115
1539.015221948208 2032.6757336011565
1539.78804265279 2018.2331715566295
1540.560675603405 1871.3737640616619
1541.3331208501804 2206.296188289348
1542.1053784432224 2257.1269890707645
1542.8774484326168 2048.1397300916783
1543.649330868422 2132.389826622627
1544.4210258006842 2083.8612589675563
1545.1925332794308 2085.879574250918
1545.9638533546604 2021.1839735095268
1546.7349860763552 1972.7903706684551
1547.5059314944829 2281.1018896126684
1548.27668965898 2008.930309818646
1549.0472606197673 2104.8969236644016
1549.817644426752 2026.6233353027742
1550.5878411298072 2218.2474508340238
1551.3578507787988 2095.849485790406
1552.1276734235635 1915.3100254881715
1552.8973091139233 2111.0674731037225
1553.6667578996767 2217.6732942053195
1554.436019830604 2044.306728258475
1555.20509495646 2049.3113154230864
1555.9739833269869 1978.3800595930516
1556.7426849919011 1978.059971414604
1557.511200000903 2174.473265405482
1558.2795284036674 2153.097657820598
1559.0476702498509 2001.6630646269307
1559.8156255890954 2246.451281393084
1560.5833944710157 2383.730171398016
1561.3509769452048 1981.4930557620592
1562.1183730612447 2099.4083326000573
1562.8855828686865 2016.668565578969
1563.6526064170703 2402.637177619331
1564.4194437559127 2260.413516839814
1565.1860949347047 2018.407772418989
1565.9525600029283 2335.522378202476
1566.7188390100328 2488.2553082454497
1567.4849320054564 2045.8341041626422
1568.250839038612 2077.8726576826634
1569.0165601588997 2058.5304542221415
1569.7820954156887 2199.4850802143847
1570.5474448583373 2145.912258755146
1571.31260853618 2031.7604723693707
1572.0775864985299 1887.1909959960478
1572.8423787946813 2088.119948827344
1573.6069854739108 2015.6572163852902
1574.371406585471 2210.81295636554
1575.1356421785986 2283.9139275502685
1575.899692302506 2050.5266556106812
1576.6635570063845 2234.6946522172534
1577.4272363394157 2067.18691755482
1578.190730350747 1999.8882278315632
1578.9540390895163 1892.1763118292224
1579.7171626048384 1784.113980587284
1580.480100945806 2062.344019275732
1581.2428541614918 2080.287976408521
1582.0054223009538 2120.8205580398244
1582.767805413223 2080.1864396518886
1583.5300035473156 2137.9236151738623
1584.292016752228 2220.4070040768192
1585.0538450769309 2160.24729961393
1585.8154885703807 1986.0661304110101
1586.5769472815136 1900.1099104176399
1587.3382212592405 2139.1754234459977
1588.099310552463 2280.8625793076303
1588.8602152100484 2193.080668258877
1589.6209352808564 2284.474295451525
1590.3814708137234 2090.8196613274317
1591.14182185746 2152.690814789107
1591.9019884608679 2015.2613680239342
1592.6619706727215 1920.4314827423684
1593.4217685417734 2119.2963388162525
1594.1813821167616 2281.4692349705733
1594.9408114464022 1887.0883484953688
1595.7000565793933 2026.1881798461127
1596.459117564409 2253.9617782041487
1597.2179944501113 1969.8789368072607
1597.9766872851324 1985.05775702758
1598.735196118092 2151.220369853773
1599.4935209975883 2151.5175424413906
1600.2516619721973 2356.0750221277613
1601.0096190904787 2037.695076744513
1601.7673924009723 2004.9635938614865
1602.524981952196 1965.5189237778995
1603.2823877926476 2077.5799918536186
1604.0396099708087 1994.026948293014
1604.7966485351371 1900.24317760026
1605.5535035340745 2010.8622669983556
1606.3101750160404 2244.2721539546856
1607.0666630294363 1883.2688231379302
1607.822967622642 1846.3248628715642
1608.5790888440224 2031.781731122017
1609.3350267419137 2191.2772716903505
1610.0907813646445 2051.1686439254813
1610.8463527605145 1990.4351599302117
1611.601740977805 2066.1043777250384
1612.356946064785 2065.4302767562117
1613.1119680696902 1766.0341051533546
1613.8668070407512 1952.1967535309584
1614.6214630261748 1930.0810479072413
1615.375936074137 2211.6688534705027
1616.1302262328118 2012.5509201338123
1616.8843335503425 2133.9247055991495
1617.638258074854 1864.0676327062872
1618.391999854457 2064.552021730707
1619.1455589372363 2234.2755475945933
1619.8989353712623 2014.678096138592
1620.65212920458 1796.464362847988
1621.4051404852235 1934.5647424034264
1622.1579692611976 1959.4292056843187
1622.9106155804966 1833.7927141656583
1623.663079491087 1873.9043449996411
1624.4153610409248 2176.600511413528
1625.1674602779385 1835.1932971270599
1625.9193772500403 1915.4519052847431
1626.6711120051277 2193.9151377312155
1627.4226645910676 1991.8500010795567
1628.174035055721 1881.3887380020901
1628.9252234469168 2053.977251571289
1629.676229812474 1954.6557358452199
1630.4270542001905 2315.327355004133
1631.1776966578382 2036.176407773346
1631.9281572331747 2044.8960460941428
1632.678435973945 2163.902386640382
1633.4285329278573 2030.0803825597432
1634.1784481426203 1753.8105869943968
1634.9281816659113 1948.6445616608016
1635.677733545388 2180.5764703085074
1636.4271038286934 1941.3108085904812
1637.176292563452 2067.7725144565848
1637.9252997972635 2104.996022457205
1638.674125577716 2076.7398953158813
1639.4227699523672 1958.8788531226623
1640.171232968767 1840.891039759943
1640.9195146744423 2015.6719818252066
1641.6676151168977 2258.7701114062083
1642.4155343436178 2227.924686935175
1643.1632724020765 2088.801181614114
1643.9108293397167 2091.0693118086187
1644.658205203974 2034.537384080024
1645.4054000422566 2032.8724950133922
1646.1524139019566 2031.0363087460973
1646.8992468304423 1971.12428412904
1647.6458988750728 1967.7321839840629
1648.3923700831765 2147.364341253731
1649.1386605020743 2039.1977067094517
1649.8847701790564 2178.5348277500075
1650.6306991614038 2213.1092960661244
1651.3764474963682 2258.315620351442
1652.1220152311944 1852.136479673017
1652.867402413096 2104.719335448556
1653.6126090892776 2114.967122941765
1654.3576353069184 2379.5083416685984
1655.1024811131829 2150.2891493944167
1655.8471465552066 2034.135132985362
1656.5916316801213 2280.8155412245915
1657.3359365350298 2222.6860972061177
1658.0800611670165 2045.17655743549
1658.824005623148 2112.785846165451
1659.5677699504722 2047.6587102163314
1660.3113541960192 2135.950864594287
1661.054758406799 2096.726854397056
1661.7979826297997 1963.859243948647
1662.5410269119966 1929.8123002512323
1663.283891300338 2357.879776794256
1664.0265758417645 2016.3879986020827
1664.7690805831826 2097.801644363003
1665.5114055714948 2193.411699271185
1666.2535508535748 2414.3570544044164
1666.9955164762814 1850.5154324654839
1667.7373024864555 2015.908047045835
1668.478908930916 2122.5031226520255
1669.220335856462 2013.2096742319998
1669.9615833098778 2057.165259004644
1670.7026513379296 1850.1150432995844
1671.44353998736 2030.6057571258457
1672.1842493048916 1997.8087111704517
1672.9247793372379 1972.2261582444303
1673.6651301310812 2107.242489901567
1674.4053017330934 1960.014972618367
1675.1452941899242 2104.8837063646047
1675.885107548207 1664.3098439052799
1676.6247418545518 1770.5710341978472
1677.3641971555535 1845.453855873612
1678.1034734977893 2080.343397479789
1678.8425709278108 1946.434896309179
1679.5814894921605 2085.9450697972543
1680.320229237359 1907.6824366079265
1681.0587902098978 2115.4976013152304
1681.7971724562685 1864.1163093832615
1682.5353760229264 1820.6024867637898
1683.2734009563173 2066.8503756703026
1684.0112473028657 1844.4927048573584
1684.7489151089794 1976.3275748549659
1685.4864044210462 2088.1617487764556
1686.2237152854377 1640.7544096707697
1686.960847748498 2072.4415805351596
1687.6978018565642 1696.9347329800378
1688.434577655944 1759.2799051770282
1689.1711751929379 1642.651709038081
1689.9075945138156 1914.2275463321548
1690.6438356648396 1841.146128278759
1691.3798986922448 1468.9717067317513
1692.1157836422499 1766.477003955522
1692.851490561059 1720.5108678227448
1693.587019494853 1842.0059905231556
1694.3223704897991 1590.0508370213752
1695.0575435920364 1510.664388367659
1695.792538847696 1584.463140072343
1696.527356302886 1658.2904197934233
1697.2619960036936 1520.9294975183773
1697.9964579961907 1575.0540889209794
1698.730742326432 1328.5557627988817
1699.4648490404488 1455.1737622472274
1700.1987781842563 1669.1211466917728
1700.9325298038548 1702.3267138118822
1701.6661039452174 1825.0680852733126
1702.3995006543082 1688.9985280199296
1703.1327199770658 1815.68542318108
1703.865761959416 1532.625798968742
1704.598626647261 1808.8256825616288
1705.3313140864866 1528.444515586079
1706.0638243229587 1621.0976751619132
1706.7961574025303 1697.7219580708436
1707.528313371029 1502.1851355859412
1708.260292274268 1417.768796360886
1708.9920941580403 1561.4967264815632
1709.7237190681226 1672.040001326871
1710.4551670502697 1594.644317381452
1711.18643815022 1708.8572804644791
1711.9175324136959 1438.6520680050003
1712.6484498863938 1571.4440385891246
1713.379190614005 1326.9137981369624
1714.109754642188 1581.7229452155939
1714.8401420165883 1588.9122645993825
1715.570352782839 1603.6561000954719
1716.3003869865497 1618.4912483221715
1717.0302446733076 1386.0822271437753
1717.7599258886876 1552.103411175099
1718.4894306782444 1899.7186984870998
1719.2187590875183 1864.7651690815233
1719.9479111620203 1829.7252610481398
1720.6768869472544 1476.665261916831
1721.4056864887025 1779.6851233092007
1722.1343098318284 1836.6820701563252
1722.8627570220742 1587.00721203664
1723.591028104871 1478.0176340423095
1724.3191231256242 1383.0728464714887
1725.0470421297232 1513.4721998661962
1725.7747851625427 1705.6556199728816
1726.5023522694337 1702.9496683185575
1727.2297434957363 1622.5258698294303
1727.9569588867635 1319.5957570790038
1728.6839984878152 1677.6867237976344
1729.4108623441734 1687.6518151454522
1730.1375505011038 1697.791982259248
1730.8640630038426 1420.3028624344254
1731.5903998976264 1421.6040974878647
1732.316561227657 1594.9391976739976
1733.0425470391274 1390.61386193718
1733.7683573772065 1525.8312695847758
1734.4939922870508 1497.2839929086203
1735.2194518137949 1569.0267657033583
1735.9447360025606 1561.654938857514
1736.669844898439 1484.7835007047627
1737.3947785465189 1370.252612929784
1738.1195369918605 1282.1165833075574
1738.8441202795093 1598.0512932910274
1739.5685284544943 1596.1571065851863
1740.292761561821 1529.8678884195153
1741.0168196464838 1588.255445054619
1741.7407027534518 1556.2552391823344
1742.464410927687 1507.355751031367
1743.187944214118 1449.9984284797179
1743.9113026576688 1412.6052062216181
1744.634486303241 1402.1431541252537
1745.3574951957125 1530.1844604994533
1746.0803293799509 1654.6977439131672
1746.8029889008048 1551.4838485940004
1747.5254738031017 1613.9329544445125
1748.2477841316504 1312.944033255539
1748.969919931249 1544.5373795723362
1749.6918812466665 1443.2098807085358
1750.4136681226646 1567.774973979615
1751.1352806039777 1521.3222161099798
1751.856718735331 1172.9981041914302
1752.5779825614281 1220.1050621849922
1753.2990721269507 1576.8480381546533
1754.0199874765676 1593.43557735263
1754.7407286549314 1264.7718588557523
1755.4612957066693 1442.4513945093895
1756.1816886763954 1420.4380523993095
1756.9019076087097 1579.5643735253582
1757.6219525481865 1393.796594823592
1758.3418235393856 1535.5715737032904
1759.061520626854 1447.9094308056553
1759.7810438551096 1660.9360433263878
1760.5003932686614 1340.2916512733777
1761.2195689119999 1685.1793063441692
1761.938570829594 1435.709699127572
1762.657399065898 1548.7599663841008
1763.376053665348 1297.5591932633038
1764.0945346723602 1224.5726354713067
1764.812842131334 1285.7028428586468
1765.5309760866512 1347.019760184745
1766.2489365826787 1267.0650529109912
1766.9667236637597 1360.5631285819773
1767.684337374223 1151.0952850248639
1768.401777758383 1232.9131086446703
1769.1190448605284 1294.3780017266624
1769.836138724937 1245.9085572179004
1770.5530593958665 1422.5849685025403
1771.2698069175603 1591.7237580530766
1771.9863813342326 1498.9177471617563
1772.702782690094 1272.9554760101978
1773.4190110293293 1564.1590994264598
1774.1350663961111 1450.0014636102123
1774.8509488345844 1369.8241807806428
1775.5666583888924 1474.6648995395417
1776.2821951031437 1598.7603290721477
1776.9975590214362 1383.9615339897468
1777.7127501878585 1457.7403800219317
1778.4277686464684 1558.90258451126
1779.1426144413108 1583.3784306544196
1779.8572876164162 1654.5146817811503
1780.571788215797 1273.9016507374904
1781.2861162834415 1485.6738576307678
1782.0002718633277 1391.431241201728
1782.7142549994132 1531.3025275371988
1783.4280657356376 1552.1104166930627
1784.141704115922 1298.5924887615586
1784.855170184177 1426.4171613092062
1785.5684639842839 1508.297145394369
1786.2815855601148 1570.0225694244898
1786.9945349555237 1631.8251829603234
1787.707312214343 1328.5945928512597
1788.4199173803918 1321.1719177900645
1789.132350497468 1313.8513406257002
1789.8446116093583 1367.1229064291363
1790.556700759822 1357.2058365828502
1791.2686179926077 1407.5355902014285
1791.9803633514493 1444.1545820371766
1792.6919368800554 1201.1141159455285
1793.4033386221236 1495.5307559604112
1794.1145686213295 1551.0825661347244
1794.8256269213307 1688.541849396819
1795.536513565774 1476.54812468402
1796.247228598284 1195.2346184563007
1796.9577720624693 1450.9035886159313
1797.6681440019165 1425.279828370894
1798.3783444602013 1370.7770271531338
1799.0883734808776 1527.6675331238612
1799.7982311074884 1481.2554745296243
1800.5079173835475 1410.7585444415479
1801.2174323525633 1635.5002247753646
1801.9267760580187 1606.9497432757166
1802.635948543386 1578.2826157933123
1803.3449498521113 1323.7704975042689
1804.0537800276325 1422.2301856416561
1804.7624391133668 1446.2902221692254
1805.47092715271 1235.107497513964
1806.1792441890484 1318.8144353857315
1806.8873902657433 1507.1952790028777
1807.5953654261448 1406.9765916912545
1808.3031697135812 1381.4041953346464
1809.0108031713662 1310.897475690293
1809.71826584279 1415.800705342245
1810.425557771141 1385.098356779484
1811.1326789996747 1388.8516069676527
1811.839629571632 1392.5331281661124
1812.5464095302468 1325.6826751350575
1813.2530189187182 1490.6293424644168
1813.959457780249 1445.3608442292475
1814.6657261580076 1525.2773581086335
1815.371824095153 1356.353056673795
1816.0777516348262 1232.0201678889189
1816.78350882015 1107.6094904929628
1817.4890956942272 1103.1518513103417
1818.1945123001533 1294.5649905428195
1818.8997586809928 1487.049907693237
1819.6048348798067 1341.2589001894364
1820.3097409396287 1373.8430819878636
1821.0144769034796 1414.3800804360478
1821.7190428143622 1454.8820823808742
1822.423438715261 1451.2628892277683
1823.1276646491478 1335.032585738269
1823.8317206589727 1442.9398288405607
1824.5356067876692 1402.1356920252422
1825.2393230781581 1440.2742144015012
1825.942869573335 1208.5856019686087
1826.646246316086 1256.768438258465
1827.3494533492758 1450.464956052557
1828.052490715756 1435.6730802667637
1828.7553584583547 1410.811997990769
1829.458056619891 1531.576764106699
1830.1605852431585 1399.0645966834638
1830.8629443709433 1235.3577304263886
1831.5651340460063 1374.060583026088
1832.2671543110919 1212.0262787092474
1832.9690052089318 1192.4385054701984
1833.6706867822395 1172.9182139484838
1834.3721990737104 1370.5307828308855
1835.0735421260233 1539.8909768212338
1835.774715981841 1338.3898308555163
1836.4757206838058 1319.7168586169594
1837.1765562745459 1301.3455830828284
1837.8772227966747 1220.4000443294804
1838.5777202927839 1318.3571822027766
1839.2780488054523 1178.870002759376
1839.9782083772352 1210.0557337782648
1840.6781990506806 1261.166511633616
1841.378020868313 1312.3867407026842
1842.0776738726418 1496.2659630476717
1842.777158106157 1257.1981344172832
1843.4764736113375 1208.794588274453
1844.1756204306403 1407.2679876492748
1844.8745986065078 1401.8652955563095
1845.5734081813607 1151.6493472900906
1846.2720491976124 1336.5660509511165
1846.970521697649 1205.1352967471169
1847.6688257238511 1455.812182990153
1848.3669613185684 1386.3192127506131
1849.0649285241452 1406.6899802330074
1849.7627273829057 1427.1040782227578
1850.460357937156 1466.6188645813006
1851.1578202291857 1437.8493153907748
1851.8551143012664 1409.3880801764842
1852.5522401956569 1311.068164199925
1853.2491979545957 1273.7295948352325
1853.9459876203055 1236.6213923642058
1854.6426092349902 1264.747849517659
1855.3390628408451 1296.5221968862393
1856.0353484800362 1463.0497682376385
1856.7314661947203 1477.090862251322
1857.4274160270397 1163.7221303222989
1858.123198019115 1401.5832676261964
1858.8188122130487 1131.8157037026338
1859.5142586509319 1199.3956602031276
1860.209537374838 1350.2835971965183
1860.9046484268183 1246.3599424897275
1861.599591848917 1304.5974089292033
1862.294367683151 1362.9068868781674
1862.988975971528 1231.7519684799145
1863.6834167560355 1316.1540462095588
1864.3776900786452 1286.1790352615837
1865.0717959813119 1256.1603993295607
1865.7657345059724 1255.3221726137504
1866.4595056945564 1409.8213056892127
1867.1531095889586 1491.2562307073904
1867.846546231076 1512.1372953859093
1868.5398156627743 1533.0994549662057
1869.2329179259123 1297.1853401504989
1869.9258530623283 1286.912532274701
1870.618621113843 1276.595323315092
1871.3112221222636 1198.6464317863579
1872.0036561293764 1240.8617446894082
1872.695923176956 1365.7353663256474
1873.3880233067594 1239.6533264249151
1874.0799565605212 1113.3868966053687
1874.7717229799673 1278.1011623597115
1875.4633226068036 1568.2907141764845
1876.1547554827175 1424.8514669424992
1876.8460216493859 1219.3709254972487
1877.5371211484617 1367.075925694847
1878.2280540215852 1505.2802463137132
1878.9188203103804 1169.206083844992
1879.6094200564548 1294.1493185593695
1880.299853301396 1209.1461765060062
1880.9901200867826 1537.4629452403392
1881.6802204541673 1366.3535861933506
1882.3701544450942 1342.4729094953802
1883.059922101087 1267.8516618443257
1883.7495234636517 1235.8154427291101
1884.4389585742792 1203.7142057649273
1885.1282274744517 1258.8755287540566
1885.8173302056166 1321.682238790661
1886.506266809225 1384.5748362869783
1887.195037326701 1090.8798913942242
1887.8836417994517 1249.7838912885913
1888.5720802688702 1594.0224830507113
1889.260352776333 1428.7837308933497
1889.9484593632042 1403.0203086932693
1890.63640007082 1280.460826880628
1891.3241749405151 1119.1612147293788
1892.0117840135954 1208.0548993023945
1892.6992273313572 1297.1046752740826
1893.3865049350788 1210.0634585907474
1894.0736168660223 1562.8860071197455
1894.7605631654333 1392.9884370699115
1895.4473438745408 1472.4047028243226
1896.133959034556 1551.8550152112516
1896.820408686679 1439.1271058145003
1897.506692872088 1523.9515326407143
1898.192811631945 1386.6013748687433
1898.8787650073991 1294.3050443546604
1899.5645530395832 1409.9799665303728
1900.2501757696118 1478.8133172274677
1900.9356332385796 1132.990225661031
1901.620925487574 1226.8433736007428
1902.3060525576602 1320.9548052408813
1902.9910144898859 1453.9361209416552
1903.6758113252872 1209.0485400937218
1904.3604431048789 1419.6874235819705
1905.0449098696663 1524.2131479376346
1905.7292116606295 1324.3126225544415
1906.4133485187394 1418.9227785113765
1907.0973204849488 1062.1091208486203
1907.7811276001976 1145.6093992437354
1908.4647699053967 1358.417506259534
1909.1482474414588 1262.1079287750276
1909.8315602492694 1165.5496048870768
1910.5147083696957 1514.7812943221816
1911.1976918436012 1222.7368378592932
1911.880510711815 1120.6381057069837
1912.5631650151681 1392.2179763717097
1913.2456547944657 1225.4973527700683
1913.927980090495 1288.1513954727227
1914.6101409440362 1262.3007135000503
1915.2921373958416 1428.5182653778581
1915.9739694866603 1309.4224153259172
1916.655637257214 1302.0830418428702
1917.3371407482136 1294.7410144547644
1918.0184800003572 1534.6983012517558
1918.6996550543154 1564.549272270329
1919.3806659507554 1346.7051870330808
1920.0615127303208 1444.087971450964
1920.7421954336423 1530.3715209259603
1921.4227141013343 1616.6936646491142
1922.103068773993 1366.520911303515
1922.783259492202 1483.5379528376118
1923.4632862965227 1359.6704145669185
1924.1431492275078 1251.5530354366738
1924.8228483256917 1224.4417719537819
1925.5023836315922 1245.8503873996929
1926.1817551857057 1388.6793534423168
1926.8609630285227 1531.7896888598743
1927.5400072005123 1512.52584678526
1928.218887742125 1339.842355109716
1928.8976046938005 1429.187762437999
1929.5761580959588 1518.808847683296
1930.2545479890086 1281.124126709729
1930.9327744133352 1310.7987421949078
1931.6108374093164 1340.5758102721136
1932.2887370173066 1540.9250418331724
1932.9664732776473 1488.0175990045893
1933.6440462306673 1434.9344853002522
1934.3214559166754 1274.8718892495642
1934.9987023759659 1559.129805026338
1935.675785648813 1388.3688987281485
1936.3527057754836 943.233760840322
1937.029462796223 1028.70079587962
1937.70605675126 1114.3741835843348
1938.3824876808085 1051.8724277645665
1939.058755625072 1282.560392332711
1939.7348606242267 1278.3075005045087
1940.4108027184448 1332.2776807192117
1941.0865819478713 1452.305633508906
1941.7621983526478 1262.6374243890089
1942.4376519728921 1174.0456571859786
1943.1129428487038 1295.2201356051012
1943.7880710201734 1382.0784740866136
1944.4630365273733 1380.6804204063164
1945.1378394103576 1135.8636136632479
1945.8124797091714 1126.8994216017145
1946.4869574638324 1117.87802176448
1947.161272714353 1260.7552472130355
1947.8354255007234 1331.4447046675618
1948.5094158629272 1251.462492849271
1949.1832438409183 1360.9338739228597
1949.8569094746435 1521.9154388656896
1950.530412804037 1556.2262032243486
1951.2037538690092 1541.1243096219705
1951.8769327094578 1297.8279581104873
1952.5499493652678 1201.7693268014884
1953.222803876306 1483.7858698312482
1953.895496282421 1518.0132490022004
1954.5680266234522 1391.5180850724953
1955.2403949392155 1390.5044891918044
1955.9126012695142 1140.7764183781387
1956.5846456541403 1330.8046543603512
1957.2565281328643 1285.7739546132505
1957.9282487454457 1482.0656112407542
1958.5998075316202 1426.4224070385087
1959.27120453112 1258.223252397151
1959.9424397836501 1415.9156037151522
1960.613513328908 1282.7859739765072
1961.2844252065697 1210.737874483524
1961.9551754563017 1138.541450827528
1962.6257641177453 1216.0005668059162
1963.29619123054 1110.6627838320826
1963.966456834296 1160.549558772518
1964.6365609686181 1117.9327528345934
1965.306503673086 1373.6248126925932
1965.976284987275 1190.100941003578
1966.645904950734 1269.5704446086143
1967.315363603002 1149.8410556044762
1967.9846609836077 1293.4047048557186
1968.6537971320486 1124.112259764665
1969.3227720878222 1416.7634806203096
1969.9915858904042 1320.4121175584025
1970.660238579252 1325.7943181408273
1971.3287301938108 1251.197405555276
1971.997060773514 1250.8246661715739
1972.665230357772 1049.7251902546054
1973.3332389859843 1205.9633456616255
1974.0010866975335 1055.3161295029372
1974.6687735317864 1345.8809976980644
1975.3362995280932 1369.885895046768
1976.003664725793 1412.750282961012
1976.6708691642052 985.2431467034652
1977.3379128826364 1266.5159352040628
1978.004795920373 1587.8949248693125
1978.6715183166925 1635.6265536386845
1979.3380801108524 1477.0701902469873
1980.0044813420973 1318.3703380651114
1980.6707220496555 991.8745208524363
1981.3368022727373 1316.2063715462045
1982.0027220505417 1411.2429042264241
1982.66848142225 982.2944925926116
1983.3340804270283 1020.2906465802059
1983.999519104027 1268.915903722675
1984.6647974923835 1387.6072594491602
1985.329915631215 1429.1786178208376
1985.99487355963 1309.9157364028488
1986.6596713167146 1567.7637751030456
1987.3243089415428 1162.214826781973
1987.9887864731754 1475.7435309651032
1988.6531039506553 1150.0779290168405
1989.3172614130071 1170.7532962700818
1989.9812588992481 1191.4827872636924
1990.645096448372 1010.4457567085503
1991.3087740993633 1115.1498983495417
1991.9722918911848 1220.0604128163711
1992.635649862792 1290.1814887216683
1993.2988480531185 1267.0431266668952
1993.9618865010852 1235.7709530546867
1994.6247652455968 1204.490365380908
1995.287484325545 1218.022761455141
1995.9500437798033 1156.1847170287388
1996.6124436472292 1279.0385516643662
1997.2746839666706 1410.3910135401736
1997.936764776954 1198.2110202252893
1998.598686116895 1284.6964477218498
1999.2604480252903 1457.5278817971341
1999.9220505409212 1384.221037886879
2000.5834937025593 1348.200067087746
2001.2447775489582 1312.011500264929
2001.9059021188514 1294.7050946610984
2002.5668674509616 1185.4924157477722
2003.2276735839987 1283.3989618211504
2003.8883205566508 1222.3566194042119
2004.5488084075987 1161.189541811637
2005.2091371755014 1360.5078763694896
2005.8693068990033 1395.6464545318863
2006.5293176167397 1430.9447592221206
2007.1891693673224 1126.4651994433991
2007.848862189354 1146.253466857032
2008.5083961214223 1228.4996771166848
2009.1677712020955 1236.150516610512
2009.8269874699254 1135.6286933880976
2010.4860449634598 1641.6116171137323
2011.1449437212177 1623.9791313269084
2011.8036837817108 1606.3856389068594
2012.4622651834325 1399.3566042068064
2013.1206879648653 1405.63841109209
2013.7789521644736 1234.0093670260064
2014.4370578207036 1456.720447652047
2015.0950049719922 1289.902330982724
2015.7527936567585 1469.0229163958843
2016.4104239134067 1200.7700940545742
2017.067895780323 1671.0801192554336
2017.725209295886 1639.527915058034
2018.3823644984514 1607.8479349732074
2019.0393614263648 1359.3690195737365
2019.6962001179545 1293.1362461884503
2020.3528806115355 1399.256452673139
2021.0094029454067 1287.0431739381906
2021.6657671578487 1304.8349060602466
2022.321973287133 1322.7208180873818
2022.9780213715148 1178.9934011152789
2023.6339114492293 1223.6899308625202
2024.2896435585026 1280.4158580632468
2024.9452177375442 1187.812286360891
2025.600634024544 1258.7954255479
2026.2558924576842 1330.047174189031
2026.9109930751292 1419.9483478768352
2027.565935915025 1502.0306687642237
2028.2207210155066 1584.3766685111586
2028.8753484146964 1663.15807818241
2029.529818150695 1561.368635260213
2030.1841302615903 1459.148099691167
2030.8382847854573 1139.1095196724052
2031.4922817603601 1414.1797515121157
2032.1461212243357 1288.948058418609
2032.7998032154192 1258.0978283694099
2033.4533277716218 1227.0231378076405
2034.1066949309443 1242.445538667274
2034.7599047313688 1313.3166164328118
2035.4129572108704 1384.2228797384337
2036.0658524074006 1318.0856830975947
2036.7185903589016 1337.8311919870298
2037.3711711032956 1368.6997624033897
2038.023594678496 1292.6331286946686
2038.675861122394 1146.9287681079766
2039.3279704728757 1161.458368391235
2039.9799227678031 1176.1279754504826
2040.6317180450278 1207.546386894921
2041.2833563423865 1421.754558777428
2041.9348376977014 1319.0534481674526
2042.5861621487784 1506.0456194628973
2043.2373297334088 1357.3387926270304
2043.8883404893695 1290.746046635359
2044.5391944544208 1488.5907834339903
2045.1898916663158 1426.1919988432994
2045.8404321627804 1535.8400462513007
2046.4908159815368 1248.0769388918786
2047.1410431602853 1167.0751960236398
2047.7911137367173 1152.0300690521606
2048.441027748504 1099.9022300182053
2049.090785233302 1047.6829171037439
2049.7403862287592 1300.7008816117957
2050.389830772503 1169.3468963227083
2051.0391189021466 1460.3379056377212
2051.688250655294 1326.2262009814717
2052.337226069527 1035.7055153970962
2052.986045182417 1419.0935726294351
2053.634708031521 1015.7994997675747
2054.283214654375 1383.0270036506674
2054.931565088511 1150.6711817124574
2055.579759371436 980.0216834209435
2056.2277975406523 1304.0763522598968
2056.8756796336384 1217.9434050090229
2057.5234056878617 1131.5383558038782
2058.1709757407752 1218.119510852748
2058.8183898298194 1559.4454265797292
2059.465647992416 1515.5981283909493
2060.1127502659747 1401.370182067693
2060.759696687888 1000.3742504100646
2061.4064872955405 1296.2776748555175
2062.053122126292 1078.8497101760395
2062.699601217497 1399.9190480663256
2063.345924606485 1197.3168152461653
2063.992092330587 1274.85894237517
2064.638104427102 1283.2869964522874
2065.283960933324 1475.6722216597243
2065.92966188653 1322.9618290932394
2066.5752073239855 1201.948539533359
2067.2205972829397 1363.8902825719676
2067.86583180062 1225.747930079055
2068.5109109142522 1432.241118483515
2069.15583466104 1257.608291023051
2069.8006030781708 1082.8142256602478
2070.445216202821 1084.453251251683
2071.089674072153 1384.7309887170106
2071.7339767233116 1515.3640386281038
2072.3781241934303 1340.3632224174976
2073.0221165196253 1350.1427871378464
2073.6659537390024 1299.4499660915994
2074.3096358886505 1505.8589884917963
2074.953163005637 1223.2001065194522
2075.596535127028 1018.0261868053306
2076.2397522898664 1103.3951555969525
2076.882814531182 1312.5983175960391
2077.5257218879924 1260.712000599207
2078.1684743973 1160.5746035636498
2078.8110720960885 977.6566208658711
2079.453515021336 1153.3763044224902
2080.095803209997 1329.2693272130255
2080.7379366990135 1331.1339769588935
2081.37991552532 1529.664826017783
2082.0217397258275 1381.9680628057213
2082.6634093374414 1323.952690161628
2083.3049243970418 1265.929621030003
2083.9462849415067 1311.6763556235428
2084.587491007689 1374.891935590755
2085.2285426324324 1269.748302659331
2085.869439852564 1162.1963459625608
2086.510182704902 1105.3819567849164
2087.1507712262483 1334.3736861654518
2087.791205453381 1351.1539060383288
2088.4314854230743 1367.9318784896022
2089.0716111720867 1253.0127288577091
2089.7115827371617 1085.6544342108612
2090.351400155023 1098.2149792504063
2090.991063462385 1110.853646095817
2091.6305726959527 931.4277766888606
2092.2699278924047 1250.6300798380466
2092.9091290884153 1204.1126931166373
2093.548176320641 1117.8022124129898
2094.187069625721 1361.1221471611664
2094.8258090402887 1331.003669209536
2095.464394600951 1300.8204919654813
2096.102826344313 1330.4169834999789
2096.741104306955 1438.7928553086397
2097.379228525453 1077.0076835045966
2098.017199036358 896.8983418974655
2098.6550158762147 1140.0940138570563
2099.2926790815527 1383.812142491688
2099.9301886888825 1322.7014916207495
2100.5675447347076 1221.2385274667283
2101.2047472555114 1424.944658963682
2101.841796287761 1243.977021472778
2102.47869186792 1373.4178695053417
2103.1154340324265 1195.589792529931
2103.752022817709 1288.4295365423868
2104.388458260184 1126.8003526554007
2105.024740396251 1204.3017985928905
2105.660869262292 1249.7879454815773
2106.296844894685 1236.289684262222
2106.93266732978 1222.7901607838708
2107.5683366039284 1150.0404364761257
2108.2038527534532 1272.4826509600357
2108.8392158146726 1189.4698938180456
2109.4744258238843 1106.271953144455
2110.1094828173755 1173.8473451531274
2110.744386831422 1511.425091360055
2111.3791379022787 1379.5357813517248
2112.01373606619 1564.9324858104585
2112.648181359389 1336.0296540883733
2113.28247381809 1368.043897105716
2113.916613478492 1412.213236108819
2114.550600376786 1267.0564676764725
2115.1844345491445 1177.3848965254908
2115.818116031729 1009.575289888316
2116.451644860679 1000.2804597555129
2117.085021072133 990.9129433427422
2117.718244702204 1149.2636487357938
2118.3513157869984 1113.6515030710602
2118.984234362604 1124.3762811936526
2119.617000465092 1228.0519592948237
2120.249614130529 1214.3269625483722
2120.8820753949585 1200.5824115155233
2121.5143842944162 1112.0495892983297
2122.14654086492 1164.5926235690818
2122.7785451424734 1456.9322787131084
2123.4103971630702 1448.7039857126767
2124.042096962681 1440.6159361858909
2124.6736445772767 1267.401617305154
2125.305040042802 1171.5789606898202
2125.936283395191 1286.927955170347
2126.567374670365 1270.0434545989397
2127.198313904233 1157.5513092923889
2127.8291011326855 1149.522491464399
2128.4597363916037 1141.3402725905842
2129.0902197168507 1320.1273840028205
2129.720551144279 1431.8984023697328
2130.3507307097225 1543.7282880854993
2130.980758449008 1557.1785236773353
2131.6106343979427 1501.9952465498604
2132.2403585923203 1446.6720796358566
2132.8699310679276 1394.9827389890647
2133.499351860526 1428.1201307932529
2134.1286210058715 1251.4320966962846
2134.7577385397053 1374.5563503225098
2135.3867044977487 1497.8765317073758
2136.0155189157176 1536.3464448830314
2136.644181829308 1403.4230926227347
2137.2726932742025 1216.5114370903268
2137.901053286074 1131.583302142449
2138.5292619005777 1046.5633404764187
2139.1573191533535 1124.1135952471498
2139.7852250800315 1162.8483236085985
2140.4129797162295 1483.5907495710067
2141.0405830975433 1057.9353859495989
2141.6680352595613 1587.2701353851467
2142.2953362378576 1106.661635367273
2142.9224860679915 1347.7799512753372
2143.549484785508 1120.2047260659504
2144.1763324259373 1078.2561293239567
2144.803029024799 1098.2807465940455
2145.429574617594 1120.8239038185657
2146.0559692398165 1348.9431122124276
2146.682212926942 1280.0916974600837
2147.308305714432 1372.4605420239748
2147.9342476377333 1543.7173041717613
2148.5600387322847 1717.6839786598807
2149.185679033506 1349.4646597399292
2149.8111685768017 1094.259398758481
2150.4365073975678 1129.5161571362069
2151.061695531187 1150.913936797457
2151.686733013021 1235.0563089738077
2152.311619878423 1319.4477092182249
2152.9363561627342 1387.390348086386
2153.560941901278 1051.7811776025376
2154.1853771293663 1168.1796435445863
2154.809661882293 1364.2204511210605
2155.433796195348 1607.891165258041
2156.0577801037944 1191.0890087263456
2156.681613642895 1543.8984761541112
2157.3052968478896 1506.5420552235867
2157.928829754006 1469.138229109727
2158.552212396462 1344.86878745667
2159.1754448104566 1237.32809492567
2159.7985270311783 1039.5997978566043
2160.4214590938027 688.2947020394329
2161.0442410334927 887.5460689946116
2161.6668728853874 967.0849100982829
2162.289354684628 1046.8068826339063
2162.911686466332 1240.5448824028754
2163.533868265602 1435.906690158749
2164.1559001175337 1735.247639311198
2164.7777820572046 1561.5500888425113
2165.399514119681 1239.5271348641236
2166.021096340013 1206.708297563412
2166.6425287532384 1500.219782115541
2167.263811394385 1472.2207039486825
2167.8849442984574 1444.292478673189
2168.505927500455 1157.6309698273203
2169.126761035366 1376.9684266016288
2169.7474449381552 1168.2566475936094
2170.367979243778 891.0348886015106
2170.9883639871823 1554.0962077535755
2171.608599203293 1131.0298741528313
2172.2286849270276 1734.4672713367186
2172.8486211932886 1702.5621804238156
2173.4684080369625 1467.5924378044592
2174.0880454929265 936.4492508262172
2174.7075335960417 937.6150170483204
2175.3268723811543 1321.0104292528888
2175.9460618831 1069.7473765364648
2176.565102136701 1340.2941555237248
2177.1839931767627 1239.1567134389065
2177.802735038078 1137.7697805965067
2178.421327755432 1094.019210900736
2179.0397713635866 1199.4249052493292
2179.658065897298 1159.580079294129
2180.276211391305 1107.5513778415511
2180.8942078803357 1320.2415860395095
2181.5120553991 1274.862656565971
2182.129753982299 1302.4298789885538
2182.7473036646206 1330.0648219032032
2183.3647044807367 1444.479886379259
2183.9819564653044 1348.6414749230657
2184.599059652968 1252.6190509580986
2185.216014078367 1295.9803885969304
2185.832819776113 1361.7013750794508
2186.4494767808137 1427.5004514833452
2187.065985127063 1308.571598079709
2187.682344849436 1158.1116232702416
2188.298555982501 1249.996129407834
2188.9146185608097 1341.9591872459234
2189.530532618901 1374.2777738232514
2190.1462981912937 1470.5416591881244
2190.761915312507 1380.6263243968128
2191.377384017036 1321.9330912803714
2191.9927043393654 1139.1665988905954
2192.6078763139667 973.8334710603933
2193.2228999753006 1108.640181566902
2193.837775357808 1243.7387221732827
2194.452502495922 1199.8508353570649
2195.0670814240602 1380.51816925654
2195.6815121766285 989.749272037008
2196.2957947880186 972.9020073225969
2196.9099292926057 956.0241191054499
2197.523915724758 1408.1325910534347
2198.137754118825 1185.202466785519
2198.7514445091456 1449.7755946573138
2199.3649869300443 1520.4331408734904
2199.9783814158327 1591.3195702766775
2200.5916280008096 1681.7941129019873
2201.2047267192593 1447.0569035360818
2201.8176776054515 1124.3849906924108
2202.430480693649 1050.8387224493736
2203.0431360180955 1277.422780652556
2203.6556436130195 1120.4015063691268
2204.268003512645 962.9983736709726
2204.8802157511727 1168.1548242480142
2205.492280362796 1248.128454945153
2206.1041973816937 1328.3658452852137
2206.715966842032 1284.0480488922892
2207.3275887779655 1330.8020074188676
2207.93906322363 1311.473630523235
2208.550390213153 1562.1678087734304
2209.1615697806465 1610.2464188097679
2209.7726019602105 1309.841083940588
2210.3834867859277 1010.1616549643895
2210.9942242918787 1182.987991307377
2211.6048145121167 1146.8037978111508
2212.2152574806914 2010.7656986877514
2212.825553231638 1078.4932526070384
2213.435701798975 2115.87934011272
2214.045703216707 1392.475758397664
2214.655557518832 853.8440140358283
2215.2652647393297 977.9463563351517
2215.874824912169 1116.6219518750786
2216.4842380713 1255.7339108997885
2217.09350425067 1203.228365245096
2217.7026234842033 1483.9347962161546
2218.311595805819 1333.2012532059343
2218.9204212494133 1214.8680343252995
2219.52909984888 1354.9161543301893
2220.137631638092 1460.1108005360052
2220.7460166509154 1565.4306664073888
2221.354254921198 1237.1436166746469
2221.9623464827764 1292.834540541997
2222.5702913694713 1262.4294474997623
2223.178089615096 1564.1155011999995
2223.7857412534486 1271.977165182681
2224.39324631831 923.1069844577914
2225.000604843457 1157.5152379819822
2225.607816862641 1455.7812109902673
2226.214882409611 1412.1776773101692
2226.8218015180973 1423.3323540306642
2227.4285742218217 1341.8329319543568
2228.0352005544864 1290.5371273832534
2228.6416805497847 1204.3729115517613
2229.248014241399 1118.0866715301224
2229.8542016629945 1111.4296619161935
2230.460242848223 1249.8063571824107
2231.0661378307304 1148.9548052133384
2231.671886644139 1048.0163289714321
2232.277489322065 1095.1632276286596
2232.8829458981127 805.1116220293203
2233.48825640587 1243.4963482947567
2234.0934208789095 1838.2138146424968
2234.6984393507955 1581.6228750826976
2235.3033118550793 1254.7551463985833
2235.9080384252975 1165.232594273542
2236.5126190949723 922.3370973701237
2237.1170538976166 1082.3223271185448
2237.721342866729 999.8616458040235
2238.32548603579 1185.0668805411408
2238.9294834382763 1300.2605060860417
2239.533335107646 1252.924429161512
2240.1370410773434 1204.033418412792
2240.740601380803 1121.296986152498
2241.3440160514474 1251.4739314290032
2241.9472851226783 1387.76363836744
2242.550408627896 1359.4818160118898
2243.1533866004793 1456.3670621532908
2243.756219073799 1195.2323078445493
2244.3589060812064 1025.1332352861318
2244.961447656049 1036.387555341178
2245.5638438316564 1047.6859150170894
2246.166094641343 1134.4871149963085
2246.7682001184166 1108.9335569209436
2247.3701602961664 1059.6287000355528
2247.971975207871 1295.1269188201
2248.5736448867974 1361.7377342005932
2249.175169366197 1287.1843206546723
2249.7765486793123 1187.1269170144253
2250.3777828593684 1290.8377342814879
2250.9788719395783 1239.6335003107301
2251.579815953146 1183.8122940414448
2252.1806149332606 965.208011651824
2252.781268913097 1385.3798537956723
2253.381777925817 933.5128596061389
2253.9821420045737 1387.0565819002254
2254.5823611825035 1238.3323123411365
2255.1824354927303 1297.5102216499208
2255.782364968365 1184.5478755467068
2256.38214964251 1071.4660926003564
2256.9817895482483 1321.271396990352
2257.5812847186553 1125.6374071113778
2258.180635186791 1081.4777563709695
2258.779840985704 1172.615417715832
2259.37890214843 1170.6286128345678
2259.97781870799 1231.1709803322992
2260.5765906973957 1291.8317082234148
2261.175218149645 1391.076783845267
2261.773701097718 1160.453752847508
2262.3720395745895 1317.902700810535
2262.970233613216 1161.6380885993506
2263.568283246548 1114.093583873605
2264.1661885075137 1066.4312178213372
2264.763949429038 1044.443265650943
2265.3615660440246 1602.0335065917288
2265.959038385374 974.531995638157
2266.5563664859637 1567.8450013619404
2267.153550378669 1050.50453072098
2267.7505900963424 1384.6941733357767
2268.3474856718312 1139.1737556812732
2268.9442371379664 1070.1458138508442
2269.5408445275643 1213.2043037518629
2270.1373078734377 1336.7349152103966
2270.7336272083758 1125.5379945429818
2271.32980256516 1122.1355759214002
2271.925833976562 1469.7213063825418
2272.5217214753357 1455.8640659739656
2273.117465094223 1082.5424864333636
2273.7130648659586 1023.6451291259767
2274.308520823257 1253.947254318724
2274.903832998827 1282.8977566373353
2275.4990014253563 1203.958627771188
2276.094026135528 1166.5171758085596
2276.6889071620117 1128.965684956308
2277.2836445374614 1170.1497138723196
2277.878238294519 1349.0594270232255
2278.472688465812 1180.527564174751
2279.066995083962 1011.7013269694653
2279.6611581815705 1131.859176216228
2280.255177791232 1353.0995453153605
2280.8490539455233 1574.7386802371652
2281.442786677013 1560.5377581303396
2282.0363760182554 1463.947526949835
2282.6298220017943 1086.9066160566676
2283.223124660155 1554.2666908304825
2283.816284025859 1165.751921728275
2284.4093001314086 1175.6925702706033
2285.002173009292 1185.681345639044
2285.5949026919952 1312.3927684309483
2286.1874892119777 1142.9686880782056
2286.7799326016993 1112.8414662314426
2287.3722328936 1082.5784776475066
2287.964390120109 918.4559572060734
2288.556404313642 1314.5264999836925
2289.1482755066027 1763.2179202233406
2289.7400037313873 1368.7506597513761
2290.3315890203703 956.2637007368958
2290.9230314059205 1013.1040299352087
2291.5143309203904 1070.068023260608
2292.1054875961236 1165.9494202103497
2292.6965014654506 1692.8949917758869
2293.287372560684 1315.6521783135518
2293.878100914131 1224.9798137560026
2294.468686558086 1134.1532553328634
2295.059129524827 1039.9670195985389
2295.649429846617 988.5581402721084
2296.239587555716 937.0098132342913
2296.8296026843636 1215.6107851979227
2297.419475264791 1243.932173770862
2298.0092053292137 1272.2291179416436
2298.598792909839 1470.0931652982895
2299.1882380388597 1510.4581500555464
2299.777540748455 1550.7810802160245
2300.3667010707904 1394.644368334198
2300.9557190380256 1472.468689541362
2301.544594682302 1325.593327942714
2302.1333280357503 1178.5393630101773
2302.721919130485 1413.7972751284792
2303.3103679986198 1567.4090456971376
2303.898674672242 1494.4966702601546
2304.486839183437 1141.447022357604
2305.0748615642697 1248.908094151152
2305.6627418468015 1145.327536043714
2306.2504800630704 1081.9861851798073
2306.8380762451143 1371.0846155180823
2307.425530424949 1352.4233567326562
2308.012842634582 1333.7087310284003
2308.6000129060103 1539.6917489856994
2309.187041271214 1344.0580067526082
2309.773927762164 1147.9976764851979
2310.3606724108213 1468.5306371436411
2310.9472752491274 1489.06122178167
2311.5337363090184 1509.6735218360172
2312.120055622414 1269.6549643575531
2312.706233221221 1158.3227319453194
2313.2922691373424 777.9847004686043
2313.8781634026564 926.5869044660103
2314.463916049037 1075.5379775553704
2315.049527108342 1425.4590327939272
2315.6349966124235 1623.0674557182751
2316.2203245931123 1474.9555453431446
2316.8055110822315 1350.3930494474657
2317.3905561115935 1225.5229426714163
2317.9754597129977 1064.8051431890422
2318.560221918229 1013.0164226034333
2319.1448427590603 961.132213016547
2319.729322267256 1212.875630580869
2320.313660474563 1269.2133306228304
2320.8978574127195 1281.6736325945799
2321.481913113452 1294.2308633480657
2322.0658276084705 1109.1697549772384
2322.6496009294806 1085.6790853524794
2323.233233108165 1112.321487522793
2323.8167241762058 1298.1901533681753
2324.4000741652617 1202.653681781297
2324.983283106987 1405.8107706201197
2325.5663510330232 1367.1382708397273
2326.1492779749933 1270.9670095644424
2326.7320639645204 1258.7088998464403
2327.3147090332004 1139.9940214485637
2327.897213212629 1246.3270981611277
2328.4795765343843 1352.7117297834488
2329.0617990300307 993.5290877744449
2329.643880731124 1623.308268776879
2330.22582166921 1016.830266604367
2330.807621875816 1600.2258696305894
2331.3892813824623 769.263630368605
2331.9708002206517 1094.0287759329333
2332.5521784218818 1332.8694209275013
2333.133416017634 1471.9468701995747
2333.7145130393765 1320.3332476677167
2334.295469518571 1461.4611305280973
2334.876285486658 1671.1356604382945
2335.456960975076 1573.1006427430489
2336.037496015242 1474.8737374377383
2336.6178906385667 1355.060159632113
2337.198144876451 1209.2958705183187
2337.778258760278 1257.0316489272986
2338.3582323214214 1267.952076029045
2338.938065591243 1278.866049622391
2339.517758601087 1464.4730078919538
2340.0973113822965 1426.4237514263325
2340.676723966193 1241.6240386569093
2341.255996384094 1332.6832312785014
2341.835128667295 1534.5394049972647
2342.4141208470883 1496.304059659741
2342.992972954751 1314.2425517492388
2343.5716850215467 942.821468072409
2344.1502570787306 570.6308795809866
2344.7286891575386 949.8408989381772
2345.3069812892045 1133.2152188113782
2345.885133504944 1316.8111623777922
2346.4631458359618 1227.22142397946
2347.04101831345 1268.9800125921206
2347.6187509685915 1310.7421335519061
2348.196343832553 1151.0410901693667
2348.7737969364935 1221.5626078766504
2349.351110311558 1052.9047676896103
2349.9282839888765 1076.3195202221682
2350.5053179995757 1043.8464295550616
2351.0822123747585 719.0687395882483
2351.658967145526 836.1448892858941
2352.2355823429643 953.4667717724278
2352.812057998144 1366.7560306791165
2353.3883941421263 1065.9515788995627
2353.9645908059647 1244.6458426476095
2354.540648020693 1135.071721778253
2355.116565817336 1334.5607347145205
2355.6923442269126 1534.503581234339
2356.2679832804224 1281.8684227760598
2356.8434830088518 1378.716119122564
2357.41884344318 1072.188863570447
2357.994064614377 1082.9930850984495
