#exp_cfg={"servo_angle": 0.0, "laser_lim": 100.0, "servo_angle_to": 18.0, "laser_wup": 0.0, "bt_dev": "EnSpectr-25AE3", "laser_wdn_max": 0.0, "frames": 10.0, "servo_used": 0, "servo_calib_use": 0, "laser_wdn_min": 0.0, "servo_pix_from": 90.0, "cooler_tout": 300.0, "servo_angle_from": 0.0, "servo_calib": "[-1.9174921013161362e-09, 3.9322238269163779e-05, -0.27385609119055809, 653.59552119713567]", "laser_autoctl": 0, "servo_pix_to": 3682.0, "laser_pw": 100.0, "cooler_on": 0, "laser_volt": 4.0, "cooler_autoctl": 0, "cooler_curr": 70.0, "cooler_startup": 10.0, "laser_fixed_pw": 0, "gain": 1.3, "offset": 2.53059635486, "servo_calib_degree": 3.0, "laser_curr": 55.0, "shutter": 8200.0, "servo_calib_step": 1.0, "laser_fixed_curr": 0, "exp": 2000.0, "ccd_volt": 4.7, "bt_addr": "00:06:66:62:5A:E3", "servo_delay": 500.0, "laser_autooff": 1}
#proc_cfg={"flat_auto_wnd": 200.0, "flat_auto_fr": 200.0, "flat_auto_shift": 5.0, "yconv": 1, "flatten": 1, "flatten_strength": 100.0, "xfrom": 300.0, "auto_max_frame": 2000.0, "auto_signal": 48000.0, "flat_auto_tol": 0.1, "autoclip": 1, "xrel_range": 0.0, "flat_auto_to": 4000.0, "intensity_adj": 1.0, "xrel": 7852.0, "rmhot": 1, "flat_auto_slit": 4.999999999999997, "auto_ini_exp": 300.0, "auto_off": 0, "xto": 2860.0, "flat_auto_ref": "", "flat_auto_rank": 1, "autobackg": 0, "xrel_adj": 0.0, "auto_black_lvl": 1, "base_wnd": 100.0, "sub_baseline": 0, "xconv": 2, "auto_max_exp": 1000.0, "auto_total_exp": 10000.0, "auto_exp": 0, "rmripple": 0, "black_lvl": 8268.3, "shutter_clip_adj": 0.0, "auto_bckg": 0, "flat_auto_thr": 0.9, "subbackg": 1}
316.8218498245369 9987.391781042075
317.89969571804795 9837.186423488956
318.977263876126 9887.56865358416
320.05455438786703 9748.525635166541
321.1315673423287 9677.30174537211
322.2083028285215 9807.214992494666
323.2847609354267 9653.19670731305
324.3609417519747 9721.979293241307
325.43684536705587 9546.338177018828
326.5124718695279 9495.42219972422
327.58782134820103 9464.910237526305
328.66289389184385 9516.180951229562
329.7376895891921 9377.589547724123
330.8122085289342 9432.530765112224
331.88645079971866 9412.69971491513
332.9604164901575 9309.289805812405
334.03410568881554 9337.614727045975
335.1075184842266 9396.81540925394
336.18065496487543 9235.632888645316
337.2535152192122 9344.957436432784
338.32609933564163 9261.965806742905
339.39840740253203 9150.339745352863
340.4704395082099 9180.748804759625
341.5421957409617 9112.646169296484
342.6136761890357 9187.769078507987
343.6848809406365 9141.45103810567
344.75581008392874 9071.949584443768
345.82646370703696 9060.03828308781
346.8968418980512 8982.714220173804
347.96694474501055 9032.543852196755
349.0367723359268 8992.95247849241
350.106324758759 9013.530107032093
351.1756021014353 8853.454875553925
352.2446044518383 8929.211143277123
353.31333189781435 8943.473883154295
354.38178452716966 8821.081678708633
355.449962427665 8898.135341290446
356.51786568702846 8860.27859922242
357.58549439294256 8923.299492410353
358.6528486330535 8911.909881394578
359.71992849496564 8871.612356018943
360.7867340662433 8847.55997723765
361.8532654344144 8849.727239619548
362.9195226869597 8942.332032420052
363.9855059113288 8828.602288704064
365.05121519492604 8747.630219891736
366.11665062511565 8886.23062668979
367.1818122892273 8857.653107160662
368.2467002745434 8849.642039327906
369.31131466831175 8874.087036994784
370.375655557742 8840.18656855811
371.4397230299983 8815.068315219743
372.5035171722102 8867.972410954277
373.5670380714637 8789.363518187722
374.6302858148101 8912.691771814352
375.6932604892554 8847.867203968077
376.7559621817709 8853.984669039965
377.81839097928605 8835.336576062557
378.8805469686886 8769.654537554323
379.94243023683157 8905.614282148137
381.0040408705263 8739.748299021232
382.0653789565458 8647.487740400436
383.1264445816196 8718.740054756903
384.1872378324406 8730.380572376936
385.2477587956637 8645.682760811549
386.3080075579037 8634.722778473857
387.3679842057336 8489.47532600105
388.4276888256918 8602.310422068203
389.48712150426945 8510.895656965293
390.54628232792857 8514.774445623758
391.6051713830857 8467.645168700907
392.66378875611736 8427.99431508015
393.7221345333637 8429.423920661593
394.7802088011249 8360.081617062493
395.838011645661 8483.872056567689
396.89554315319765 8402.139853636474
397.9528034099112 8302.10168287588
399.00979250194723 8209.325712918831
400.06651051541485 8274.457192444728
401.1229575363741 8277.134758178741
402.17913365085224 8197.840414616112
403.23503894483656 8311.997256831377
404.2906735042761 8195.477911111413
405.3460374150818 8143.0253145098
406.401130763119 8177.986804296685
407.455953634224 8157.691817034045
408.5105061141876 8154.416944056005
409.56478828876243 8013.403683759662
410.6188002436629 8005.3201859259325
411.6725420645689 7992.031593873039
412.72601383711117 8047.77701457964
413.77921564689314 8107.698722197699
414.8321475794728 7958.6091077968285
415.88480972036814 7944.071701638379
416.93720215506437 7900.292813157101
417.9893249690049 7892.35199668994
419.04117824759123 7788.226944124182
420.09276207619223 7841.260999075013
421.144076540133 7845.599551591661
422.1951217247042 7855.1948017113145
423.24589771515275 7861.511724838846
424.2964045966928 7810.155991316536
425.34664245449494 7774.817368082882
426.3966113736933 7778.378044616933
427.4463114393875 7710.507614102462
428.49574273662984 7753.282735700054
429.5449053504417 7678.268065673708
430.5937993658026 7730.445633096261
431.6424248676558 7687.296412978343
432.6907819409007 7625.905819827541
433.73887067040596 7740.794116667271
434.7866911409965 7695.108611229538
435.8342434374608 7666.226969071502
436.88152764455117 7665.511830986909
437.9285438469724 7622.881657149679
438.9752921294057 7570.446482794728
440.02177257648145 7651.907410224987
441.06798527279716 7507.989652276733
442.1139303029122 7668.77502868284
443.1596077513459 7608.415569789684
444.2050177025794 7624.678842524893
445.25016024105753 7624.755302525351
446.2950354511886 7586.295562090219
447.33964341733736 7586.382436919698
448.383984223834 7520.9391152295675
449.4280579549686 7491.177266088465
450.471864694995 7520.072389474772
451.5154045281306 7528.862671987842
452.5586775385509 7504.345225398776
453.60168381039693 7522.269444203126
454.64442342776783 7614.779537750376
455.6868964747264 7530.736430621253
456.7291030353008 7463.477193538478
457.77104319347563 7606.9872326367595
458.8127170332027 7494.745775346082
459.854124638392 7573.4734221765
460.895266092919 7586.581767112596
461.93614148061897 7604.317490673527
462.97675088529104 7651.142851047756
464.01709439069236 7622.077178878533
465.0571720805492 7606.568165547559
466.0969840385442 7680.987698688351
467.1365303483253 7777.408471639952
468.17581109350067 7616.237027554332
469.2148263576437 7634.022277270968
470.2535762242878 7784.319444249333
471.29206077693016 7799.28824489852
472.33028009902773 7839.404828759228
473.3682342740012 7782.824848035119
474.40592338523857 7758.992305725932
475.4433475160804 7807.810114032247
476.4805067498364 7811.354879077919
477.51740116978 7790.925957239657
478.5540308591426 7898.41841266888
479.59039590112116 8071.442094425232
480.6264963788726 8015.727768069458
481.6623323755193 8118.520135064959
482.6979039741436 8178.180311060409
483.7332112577915 8384.855722085656
484.76825430947247 8494.67046693915
485.80303321215797 8437.16490320124
486.837548048783 8629.630728423583
487.8717989022425 8788.032407023591
488.90578585539697 8750.110192564887
489.9395089910686 8838.068087296311
490.97296839203955 8819.109794998381
492.00616414106116 8680.51732767641
493.0390963208429 8713.591875263306
494.0717650140559 8547.135175316453
495.10417030333883 8544.370857028953
496.1363122712901 8475.896446331146
497.16819100046814 8281.756313816753
498.1998065734024 8141.478969804919
499.2311590725767 8069.987085014732
500.26224858044407 7967.102996744348
501.2930751794156 7787.290651205001
502.3236389518679 7829.884846860916
503.35393998014115 7626.6027140642345
504.38397834653733 7626.033642303109
505.4137541333221 7540.325197806861
506.4432674227228 7568.619482247569
507.4725182969323 7447.543474309217
508.5015068381035 7476.36141361396
509.53023312835467 7461.997426474061
510.55869724976765 7413.312582955589
511.58689928438434 7368.447341363465
512.6148393142121 7296.136161399823
513.6425174212218 7440.189864804098
514.6699336873462 7359.120340763048
515.6970881944835 7395.166458008792
516.7239810244901 7338.2150516921
517.7506122591931 7360.935925034001
518.7769819803761 7302.703981172715
519.8030902697901 7374.45804812926
520.8289372091476 7307.5924359328765
521.8545228801249 7409.9939952374425
522.8798473643619 7381.1800719987195
523.9049107434621 7356.779576288584
524.9297130989908 7368.3628317280545
525.9542545124805 7362.002999751703
526.9785350654201 7329.295491279301
528.0025548392696 7334.377857434885
529.0263139154504 7238.889449939852
530.0498123753423 7414.841518831109
531.073050300296 7228.582494080256
532.0960277716204 7194.196330707414
533.1187448705896 7237.904658960471
534.1412016784416 7312.236772110968
535.1633982763833 7207.695804030542
536.1853347455726 7207.083196575528
537.2070111671401 7153.643569895224
538.2284276221817 7113.25932488133
539.2495841917516 7087.752705147041
540.2704809568677 6987.019114174839
541.2911179985167 7103.237470991165
542.3114953976419 7034.368795139291
543.3316132351592 6946.799142928554
544.3514715919409 6944.168386782464
545.3710705488247 6919.290436372011
546.3904101866156 6881.530686398696
547.4094905860784 6957.249457732856
548.4283118279418 6888.549247792505
549.4468739929034 6960.4060599083805
550.4651771616191 6954.525088744669
551.4832214147063 6901.002178529709
552.501006832761 7017.962988038811
553.5185334963226 6900.858497797683
554.5358014859103 7006.630446162597
555.5528108820035 6969.5321228766015
556.5695617650363 6929.189095279822
557.5860542154242 6939.7984155199565
558.6022883135283 6946.453900256468
559.6182641396881 6837.964460646879
560.6339817741991 6971.860710613155
561.6494412973225 6852.14170274647
562.6646427892883 7026.359313787977
563.6795863302796 6913.229027087621
564.694272000459 6878.402942176693
565.7086998799423 7022.700054843076
566.7228700488104 6948.41285548689
567.7367825871115 6822.357208396471
568.7504375748576 6912.574796491123
569.7638350920224 6902.688600820513
570.7769752185486 6856.069944918889
571.7898580343353 6860.124559123797
572.802483619258 6814.37295570258
573.8148520531431 6917.084537557469
574.8269634157932 6913.16877180032
575.8388177869692 6825.367320934138
576.8504152463938 6829.867157875061
577.8617558737587 6971.174327459941
578.8728397487175 6900.665378554013
579.883666950891 6912.66705466118
580.8942375598654 7096.311032773692
581.9045516551851 7173.888513051852
582.9146093163617 7343.1692870593815
583.924410622878 7210.839399381004
584.9339556541727 7221.450492798135
585.9432444896538 7367.313206452929
586.9522772086875 7360.703544357925
587.9610538906127 7339.436452302767
588.9695746147318 7280.937317476429
589.9778394603054 7317.36144059535
590.985848506567 7165.192847996681
591.9936018327098 7136.770961692411
593.0010995178891 6967.843712209437
594.0083416412344 7011.958563726042
595.0153282818283 6819.229345968121
596.0220595187293 6867.648911251663
597.0285354309508 6724.08619612866
598.0347560974806 6767.611668728512
599.0407215972609 6708.462011769259
600.0464320092051 6672.682011781768
601.0518874121954 6667.1271938537375
602.0570878850685 6658.989098110413
603.062033506636 6668.881359639379
604.0667243556636 6619.738533858642
605.0711605108936 6544.306569204812
606.0753420510264 6786.772337908484
607.0792690547278 6689.3828157007765
608.082941600629 6600.995422023062
609.0863597673306 6724.999552102747
610.0895236333909 6764.507662545312
611.0924332773357 6873.291709376756
612.0950887776617 6817.109587737161
613.0974902128219 6874.955774482773
614.0996376612384 7021.576851862917
615.1015312013005 7152.194925204356
616.1031709113595 7271.7959550152245
617.1045568697336 7234.498550319457
618.1056891547069 7346.399399968434
619.1065678445229 7510.812751321195
620.1071930173985 7704.240832807319
621.1075647515099 7801.676813811139
622.1076831250048 7803.804292915125
623.1075482159849 7979.023956451112
624.1071601025305 8034.958743664453
625.1065188626781 8110.148283919823
626.105624574433 8336.40733045816
627.1044773157682 8384.141494637199
628.1030771646128 8364.391563618701
629.1014241988742 8492.034325156641
630.0995184964158 8596.15253149542
631.0973601350688 8685.152640323084
632.0949491926294 8742.531673088193
633.0922857468631 8630.297804057334
634.089369875499 8730.791764458656
635.0862016562278 8690.063197359934
636.0827811667077 8470.501098260158
637.0791084845641 8532.867648262763
638.0751836873878 8360.17357368609
639.0710068527369 8429.058669906415
640.0665780581294 8143.400536314528
641.0618973810506 8061.026271594274
642.0569648989604 8078.115994379567
643.0517806892676 7836.535920375953
644.0463448293649 7815.806233565037
645.040657396592 7606.4736480859065
646.0347184682723 7434.229131752416
647.0285281216875 7270.008138959971
648.0220864340772 7188.70409985329
649.0153934826558 7103.751799046564
650.0084493446047 7036.698435874551
651.0012540970674 7014.752815711638
651.9938078171526 6898.7780182590695
652.9861105819346 6819.1645056035795
653.9781624684565 6909.206861286904
654.9699635537254 6708.765412503196
655.9615139147136 6753.1065643908205
656.9528136283589 6532.597947443787
657.9438627715699 6668.808925457398
658.9346614212154 6582.546411084028
659.925209654135 6381.613050761155
660.9155075471263 6429.970815610351
661.9055551769616 6422.1100390802185
662.895352620375 6492.586152032804
663.8848999540678 6376.371895984981
664.8741972547068 6228.604215186213
665.863244598926 6255.133190627864
666.8520420633213 6301.519937743474
667.8405897244611 6142.477669040345
668.8288876588758 6156.870869678931
669.8169359430613 6177.463257715595
670.8047346534822 6187.71681227823
671.7922838665672 6103.577485619401
672.7795836587156 6169.226526834051
673.766634106285 6245.952146596807
674.7534352856092 6062.278906819154
675.7399872729766 6040.4543899122045
676.7262901446538 6098.661075620648
677.712343976862 6104.484683668769
678.6981488457986 6189.837358833637
679.6837048276229 6010.206284393843
680.6690119984596 6077.523986804323
681.6540704344043 6067.961186264649
682.6388802115107 6054.168237045175
683.6234414058108 6016.32388606363
684.6077540932874 5973.297963533545
685.591818349907 5994.356488380982
686.575634251587 6030.57182343012
687.5592018742263 5945.944375015386
688.5425212936734 5947.160774578655
689.5255925857564 6095.008842592741
690.5084158262707 6004.742794867066
691.4909910909646 5960.199719570011
692.4733184555644 5915.646735130433
693.4553979957618 6036.2324187047925
694.4372297872123 6009.382530021792
695.4188139055404 5939.08376328202
696.4001504263324 5873.1263464645435
697.3812394251509 5955.722257602546
698.3620809775111 5983.522150635408
699.3426751589104 5918.198305696443
700.3230220448004 5935.6606761977655
701.3031217106054 6048.569043314242
702.2829742317172 6234.913769094011
703.2625796834873 5921.678182712277
704.2419381412474 5936.066504281652
705.22104968028 6052.051303867213
706.1999143758458 6002.211712133236
707.178532303169 6083.48358289702
708.1569035374378 6180.7620097004965
709.1350281538107 6218.806304115913
710.1129062274158 6300.925181482043
711.0905378333373 6511.734716025452
712.0679230466376 6658.8251932327785
713.0450619423427 6829.267114094406
714.0219545954424 7058.634255171601
714.9986010808989 7140.1279427690915
715.9750014736292 7410.182884543962
716.9511558485392 7673.7484870945045
717.9270642804786 7985.469852821494
718.9027268442787 8119.174877020116
719.8781436147328 8244.533085694864
720.8533146666014 8279.749560099777
721.828240074612 8367.356322211836
722.8029199134635 8265.244370239412
723.7773542578125 8162.650402405129
724.751543182294 7958.465763425481
725.7254867615029 7934.283803255466
726.6991850700015 7547.008698574458
727.6726381823228 7513.3395893129655
728.6458461729599 7399.648814282598
729.6188091163858 7228.67496957502
730.5915270870246 7261.3218085975295
731.5640001592856 7084.774690494925
732.536228407529 7074.954071032099
733.5082119060917 7197.879138497628
734.4799507292755 7099.616199555123
735.4514449513481 7128.173655818739
736.4226946465496 7230.765696424924
737.3936998890786 7237.412806299644
738.3644607531078 6991.150281600775
739.3349773127793 7038.444491132376
740.3052496421951 6978.9458117775675
741.27527781543 6710.26655602792
742.2450619065221 6624.039988781736
743.2146019894826 6578.645633469649
744.183898138288 6464.58915171245
745.1529504268801 6295.947242032466
746.1217589291682 6086.839768056174
747.0903237190341 6036.69795361142
748.058644870318 5958.970958212281
749.0267224568397 5885.9026503497325
749.994556552374 5680.797571707264
750.9621472306771 5749.938551005018
751.9294945654583 5710.2998212403045
752.8965986304011 5699.769186632444
753.8634594991636 5552.70877578444
754.8300772453586 5621.298505122171
755.7964519425768 5550.1913646431185
756.762583664371 5637.882513576841
757.7284724842611 5602.181623862199
758.6941184757416 5570.789555237675
759.6595217122667 5508.257042561585
760.6246822672638 5577.542561157165
761.5896002141235 5476.114862351064
762.5542756262093 5531.2532665093
763.5187085768503 5514.092825080117
764.4828991393406 5525.476674561434
765.4468473869474 5530.154167196633
766.4105533929032 5554.7532664878045
767.3740172304078 5430.774325051678
768.3372389726283 5556.626579597447
769.3002186926988 5357.625756664851
770.2629564637282 5364.756719158695
771.2254523587872 5329.695624324682
772.1877064509154 5341.18429872981
773.1497188131179 5215.664544819132
774.1114895183728 5234.146480976971
775.0730186396268 5151.361167778076
776.0343062497905 5169.364162553313
776.9953524217381 5146.488299898799
777.9561572283274 5217.064027305375
778.9167207423689 5160.827249179659
779.8770430366476 5085.088481479913
780.8371241839159 5114.644326009152
781.7969642568951 5043.576263041565
782.7565633282757 5271.309771500617
783.7159214707099 5123.909928722939
784.6750387568281 5096.355942604745
785.6339152592227 5096.265132783585
786.5925510504512 5062.906482341403
787.5509462030477 5189.237121548015
788.5091007895098 5065.774831297665
789.4670148823006 5089.535513196587
790.4246885538596 5082.0063204764065
791.3821218765861 5099.466872521062
792.3393149228505 4931.660361966422
793.2962677649975 5091.408239245089
794.2529804753303 5082.403426548597
795.20945312613 5098.379215065558
796.1656857896378 5061.422377914854
797.1216785380675 5090.525075250631
798.0774314435985 5106.855923606405
799.0329445783846 5214.471579714719
799.9882180145414 5163.696117750883
800.9432518241574 5130.697232740679
801.89804607929 5216.53067651378
802.852600851962 5243.963726321958
803.8069162141637 5226.5970607520485
804.760992237856 5295.547282578899
805.714828994971 5345.73594223357
806.6684265574077 5411.033459818268
807.6217849970271 5379.578520794295
808.574904385674 5277.393344800707
809.527784795142 5459.539772740905
810.4804262972102 5460.6639708813045
811.4328289636178 5329.596302096864
812.3849928660748 5243.065209517626
813.3369180762638 5186.124486316439
814.2886046658241 5285.917474196414
815.2400527063783 5146.078110464803
816.1912622695108 5137.647014560962
817.1422334267718 5139.5001123768
818.0929662496856 5031.68935215342
819.0434608097457 4935.114724316973
819.9937171784059 4912.351364552487
820.9437354271013 4872.768833952659
821.8935156272255 4958.01365458942
822.8430578501484 4870.963974680142
823.7923621672016 4719.904004996052
824.7414286496896 4802.8082600415855
825.6902573688876 4774.95986794312
826.6388483960363 4791.600422759086
827.5872018023492 4631.727509297987
828.5353176590033 4779.435609278085
829.4831960371503 4681.158643076222
830.4308370079016 4673.56120412091
831.3782406423525 4575.262037150112
832.3254070115545 4736.041242495156
833.2723361865319 4603.899754818527
834.2190282382799 4548.611271820703
835.1654832377644 4711.637614321664
836.1117012559116 4564.887627723085
837.0576823636256 4700.146847694931
838.003426631778 4601.316697118409
838.9489341312074 4537.089201460181
839.8942049327197 4689.711497726943
840.8392391070975 4675.645205130248
841.7840367250865 4594.382402394758
842.7285978573982 4578.841963686508
843.672922574724 4642.215189505607
844.6170109477152 4591.7242529997
845.560863046996 4668.525936659596
846.5044789431595 4557.348619009524
847.4478587067697 4535.525943807912
848.3910024083561 4654.499390635684
849.333910118421 4561.0459878876
850.2765819074339 4565.588882260482
851.2190178458332 4629.207421082769
852.161218004032 4725.310719050753
853.1031824524016 4570.262786558885
854.0449112612987 4627.442444754264
854.9864045010327 4696.95614704685
855.9276622418947 4561.179861711838
856.8686845541379 4643.129260762697
857.8094715079915 4582.116888339662
858.7500231736467 4727.2712887584685
859.690339621271 4662.684993105254
860.6304209209939 4647.108145684959
861.5702671429244 4570.4405367964455
862.5098783571284 4715.236832138269
863.4492546336569 4671.548607038565
864.3883960425155 4620.092958535268
865.3273026536863 4666.19167131936
866.2659745371238 4516.258200182309
867.2044117627465 4737.294182108374
868.1426144004472 4643.2646983632585
869.0805825200823 4704.1423708405
870.0183161914847 4694.214518538468
870.9558154844526 4791.28200970447
871.8930804687552 4799.822736181725
872.8301112141307 4702.5606249526645
873.7669077902865 4803.990945847173
874.7034702669062 4950.184340327482
875.6397987136315 4857.5565863165875
876.5758932000863 4921.28214255694
877.5117537958522 4986.563605377856
878.4473805704911 4912.164154718606
879.3827735935283 4908.556510966864
880.3179329344603 5082.053104879575
881.2528586627541 5037.532836986394
882.1875508478479 5138.748858414351
883.1220095591489 5025.640663440645
884.0562348660296 4959.959102093445
884.9902268378391 5084.178238008589
885.9239855438955 4972.896637707083
886.8575110534839 4885.522364258309
887.7908034358588 4987.041308151348
888.7238627602474 4920.4973237081595
889.6566890958475 4965.038570317035
890.5892825118208 4744.783782221537
891.5216430773125 4894.235255552247
892.4537708614189 4900.415106420781
893.3856659332196 4783.314423165952
894.3173283617652 4686.901740555606
895.2487582160684 4758.608893318558
896.179955565116 4679.5138101205075
897.110920477864 4665.4940019219775
898.0416530232451 4632.803083961465
898.9721532701478 4558.319112961284
899.9024212874428 4716.577610093243
900.8324571439662 4475.315141609653
901.7622609085302 4506.5132050343045
902.6918326499072 4494.385590257738
903.6211724368477 4507.619895367874
904.5502803380696 4647.737153454549
905.4791564222614 4593.221773510946
906.4078007580792 4455.828040059789
907.3362134141571 4458.417839860314
908.2643944590909 4601.551151286672
909.1923439614493 4465.584418411498
910.1200619897754 4480.679519753836
911.0475486125779 4624.83807295549
911.9748038983344 4478.8225534273715
912.9018279155007 4460.6395699141995
913.8286207324982 4414.413312366083
914.7551824177117 4527.566751615658
915.6815130395116 4445.095537302618
916.6076126662283 4325.356318981701
917.533481366163 4452.731052319139
918.4591192075914 4491.99137295037
919.3845262587565 4501.163389571683
920.3097025878706 4370.27409361031
921.2346482631237 4361.954037664209
922.1593633526682 4363.857562993854
923.0838479246304 4490.736060172929
924.0081020471061 4478.872873272365
924.9321257881656 4275.9199159469
925.8559192158464 4317.378697624268
926.7794823981512 4303.299231358256
927.7028154030686 4258.442457847901
928.6259182985414 4309.419870360407
929.5487911524906 4377.606954195815
930.4714340328119 4409.399546452109
931.3938470073608 4225.159521427841
932.3160301439748 4195.91150094819
933.2379835104548 4227.205347689089
934.1597071745709 4383.199723247444
935.0812012040769 4297.2980282320505
936.002465666681 4339.778562755183
936.9235006300696 4341.414861073139
937.8443061619055 4344.061039055838
938.7648823298077 4187.694001263729
939.6852292013809 4256.18322194103
940.6053468441951 4317.024117222204
941.5252353257874 4207.230763746622
942.4448947136698 4240.3277244903375
943.364325075323 4285.700622822371
944.2835264782043 4270.124635846727
945.2024989897309 4289.533503606916
946.1212426773054 4274.307666415904
947.0397576082851 4339.404555711566
947.9580438500125 4425.777629083768
948.8761014697939 4457.700297537213
949.7939305349064 4346.461551660835
950.7115311125999 4328.311659581029
951.6289032700952 4363.504385694387
952.5460470745875 4462.843197631998
953.4629625932339 4334.698358803932
954.3796498931715 4419.909405224129
955.2961090415029 4424.239379049313
956.2123401053068 4418.311066623666
957.1283431516276 4378.614484192194
958.0441182474842 4377.505771321863
958.9596654598663 4461.053477585945
959.8749848557309 4412.501615286902
960.7900765020167 4335.397075335162
961.7049404656209 4294.118010749167
962.6195768134185 4332.441056411865
963.5339856122537 4382.621903264093
964.4481669289453 4432.551989815274
965.3621208302793 4247.606308254641
966.2758473830145 4241.53045548753
967.1893466538822 4434.467052691163
968.1026187095813 4261.749721863649
969.0156636167867 4252.923092020367
969.9284814421426 4370.005905412797
970.8410722522622 4279.881602697462
971.753436113735 4203.638301785831
972.6655730931161 4223.227973249234
973.5774832569368 4329.76328196004
974.4891666716958 4228.311685007686
975.4006234038698 4200.865544972324
976.3118535198955 4178.668914736279
977.2228570861935 4271.289240173504
978.1336341691494 4292.256723334645
979.0441848351202 4103.30608365456
979.9545091504333 4245.940306548475
980.864607181391 4231.543991888711
981.7744789942699 4216.439505952059
982.6841246553086 4234.742301670203
983.5935442307236 4241.127536347687
984.5027377867027 4268.314736808193
985.4117053894024 4224.728884426628
986.3204471049557 4122.557212627695
987.2289629994648 4284.968416942638
988.1372531390007 4338.562151887808
989.0453175896091 4231.478187900513
989.9531564173067 4283.5476347801805
990.860769688079 4197.720023096123
991.7681574678918 4225.287521879624
992.6753198226706 4295.228317166304
993.582256818323 4229.722068362333
994.4889685207218 4218.524491678135
995.3954549957143 4387.724957088315
996.301716309119 4397.314689668458
997.2077525267232 4229.001050589669
998.1135637142943 4251.588057180935
999.0191499375615 4352.408237308714
999.924511262232 4413.015250618108
1000.8296477539861 4371.420680617217
1001.7345594784656 4253.518428362377
1002.6392465012996 4291.819103241684
1003.5437088880753 4352.931777411232
1004.4479467043584 4366.17395796022
1005.3519600156869 4206.202892917956
1006.2557488875718 4450.0706408601345
1007.1593133854858 4375.585734198442
1008.0626535748888 4208.670701739344
1008.9657695212009 4203.768385638197
1009.8686612898182 4416.824281269375
1010.7713289461135 4368.942112797122
1011.6737725554212 4278.951492000221
1012.5759921830577 4311.221933754425
1013.4779878943027 4299.618248843989
1014.379759754418 4355.41401817147
1015.2813078286254 4197.621859999495
1016.18263218213 4136.9473891131365
1017.0837328801026 4208.565759670389
1017.9846099876886 4313.021650695699
1018.8852635700023 4161.750387413328
1019.7856936921362 3999.4109541491803
1020.6859004191447 4221.068690634347
1021.5858838160675 4144.919566399377
1022.4856439479063 4042.674980315872
1023.3851808796389 3997.3245715536505
1024.2844946762143 4202.951763434695
1025.183585402554 4126.727033078068
1026.082453123554 3963.0067370556635
1026.9810979040776 4046.8767870325137
1027.8795198089647 3917.4225681127054
1028.777718903024 4029.6292733541973
1029.6756952510368 4004.8873192223946
1030.5734489177648 3953.5431387867147
1031.4709799679313 3989.1257349576467
1032.3682884662358 4117.578139564556
1033.2653744773506 3881.751289562617
1034.1622380659192 3937.2438147777525
1035.058879296559 3990.306332692643
1035.9552982338591 4069.558950098223
1036.8514949423825 3987.1902447303
1037.7474694866614 3969.549837169063
1038.6432219312028 3863.134301836987
1039.5387523404825 4070.967280972521
1040.4340607789582 3954.657179856024
1041.3291473110476 4003.8001983883996
1042.2240120011465 4086.119303223819
1043.1186549136273 4085.4413695802045
1044.0130761128294 3949.4790789679923
1044.9072756630649 4041.4336016669017
1045.8012536286205 4114.025989702154
1046.6950100737577 4120.372753919578
1047.588545062701 4175.608817738848
1048.481858659663 4110.644259708323
1049.3749509288118 4238.296694753839
1050.2678219343034 4133.098059398632
1051.1604717402515 4168.237254895694
1052.0529004107575 4067.646115734378
1052.9451080098825 4123.355803218397
1053.8370946016694 4124.541039422934
1054.7288602501267 4164.465637579034
1055.6204050192446 4165.101981042622
1056.511728972977 4128.257841547013
1057.402832175254 4161.2874182392325
1058.2937146899785 4054.6058400498805
1059.1843765810263 4098.78997037105
1060.0748179122456 4171.0276269577025
1060.9650387474576 4132.378898676478
1061.855039150456 4142.301251127051
1062.7448191850071 4054.369514820823
1063.6343789148505 4188.307925372512
1064.5237184037014 4211.989353738806
1065.412837715241 4144.163383138465
1066.3017369131267 4100.824810353099
1067.190416060992 4078.8940914450745
1068.0788752224398 4090.4195972613356
1068.9671144610438 4028.515162670135
1069.8551338403558 4153.764610379445
1070.7429334239023 4148.0492832810105
1071.6305132751695 4063.739385649276
1072.517873457633 4079.695237320016
1073.4050140347335 4086.1802428630763
1074.2919350698776 4073.0897234160648
1075.1786366264623 4060.5518150011885
1076.0651187678395 4073.40047240122
1076.95138155735 3994.2160412181956
1077.8374250582929 3924.3795701721
1078.7232493339507 4149.224361052626
1079.608854447577 3996.665894455139
1080.4942404623907 3936.034068459153
1081.3794074415982 4106.749246755155
1082.2643554483657 4110.034463779973
1083.149084545841 4081.040801861236
1084.033594797138 4101.725585857329
1084.9178862653516 4072.809113382579
1085.8019590135427 4228.20380862476
1086.6858131047484 4021.048363420827
1087.5694486019802 4219.272886702378
1088.4528655682225 4256.467740707081
1089.3360640664287 4344.6620998538765
1090.2190441595321 4256.510227727884
1091.1018059104317 4268.41663883904
1091.98434938201 4322.002040561991
1092.866674637111 4405.584377428093
1093.748781738559 4277.398355815732
1094.6306707491512 4187.007422744166
1095.5123417316554 4342.824158021791
1096.3937947488157 4289.487822125184
1097.2750298633455 4228.459660134216
1098.156047137938 4155.370729950626
1099.0368466352556 4257.835725688785
1099.9174284179317 4329.064227285104
1100.7977925485757 4018.102718135719
1101.6779390897755 4100.61988524913
1102.5578681040806 4039.3657718964096
1103.4375796540226 4113.322756026541
1104.3170738021054 3976.494535417455
1105.1963506108077 3860.4456222772933
1106.0754101425773 3848.7683949158964
1106.9542524598382 3918.2271126355504
1107.8328776249855 3844.4534777758317
1108.7112857003904 3749.259290506647
1109.5894767483987 3831.2461127479714
1110.4674508313292 3938.345680726184
1111.3452080114657 3756.550055125133
1112.2227483510815 3978.72285782673
1113.1000719124077 3891.9142702063828
1113.9771787576592 3997.5538056188097
1114.854068949022 3903.517954688963
1115.7307425486542 3950.5512784174075
1116.6071996186893 4034.224017749727
1117.483440221229 4248.360511789409
1118.3594644183577 3969.0816566164744
1119.235272272128 4009.600821201606
1120.1108638445658 4079.555585371495
1120.9862391976712 4310.386793939703
1121.8613983934229 4207.79992220034
1122.7363414937627 4252.116469995311
1123.6110685606182 4282.564175444898
1124.485579655884 4450.280846272928
1125.359874841426 4381.840279411846
1126.2339541790916 4359.8549632309605
1127.1078177306936 4580.292510831756
1127.9814655580267 4436.929079219493
1128.854897722851 4503.676510543009
1129.7281142869106 4477.521013760023
1130.6011153119125 4553.560597690963
1131.473900859548 4618.004761333965
1132.3464709914697 4518.18491254383
1133.2188257693178 4528.665845093843
1134.0909652546961 4344.781475237072
1134.96288950919 4388.363763991572
1135.8345985943506 4446.7211380789
1136.7060925717087 4312.611342672249
1137.57737150277 4342.45251159249
1138.4484354490069 4460.127649559734
1139.3192844718778 4218.135346759738
1140.1899186327992 4083.065830155484
1141.060337993178 4165.570316562698
1141.930542614382 4181.780317898738
1142.8005325577597 4005.649430757681
1143.670307884635 3990.0961680379223
1144.5398686563003 4015.5332414671043
1145.409214934025 4007.6375394853594
1146.2783467790541 3817.225300219214
1147.1472642526023 3910.3117659510344
1148.0159674158622 3926.181762973548
1148.8844563300026 3765.742209710535
1149.7527310561618 3708.3464263336828
1150.6207916554504 3671.7651805682412
1151.4886381889592 3656.897076928067
1152.3562707177498 3676.0856771424515
1153.2236893028585 3659.8768966540256
1154.090894005296 3595.0762676367713
1154.9578848860474 3631.102816808383
1155.8246620060709 3602.0765652275904
1156.6912254262988 3505.4008936389073
1157.5575752076438 3535.3443835137978
1158.42371141098 3639.413967523459
1159.2896340971656 3608.3187320409425
1160.1553433270346 3540.2865755402745
1161.0208391613887 3564.418412712811
1161.8861216610057 3561.5048566731807
1162.75119088664 3574.6074465910556
1163.6160468990201 3469.162550302477
1164.4806897588442 3498.8669669147944
1165.3451195267917 3581.423333059446
1166.2093362635114 3566.946198602095
1167.0733400296285 3555.0233849524857
1167.9371308857444 3514.244972896223
1168.8007088924278 3428.137354084631
1169.6640741102328 3546.457553527055
1170.5272265996773 3455.138682622254
1171.390166421259 3373.4320369738925
1172.252893635452 3476.9343769305697
1173.1154083026995 3612.564961060822
1173.977710483421 3579.679520674244
1174.8398002380145 3396.957304506166
1175.7016776268483 3513.0947676694254
1176.563342710264 3556.465204870823
1177.4247955485826 3425.321824587608
1178.2860362020947 3559.0928605454983
1179.147064731069 3381.9938912238226
1180.0078811957483 3581.8613228048644
1180.8684856563486 3531.659338807736
1181.7288781730604 3516.0787412421896
1182.589058806052 3560.5602491624995
1183.4490276154593 3682.342424556743
1184.3087846614017 3517.823151740539
1185.1683300039676 3556.7723058131073
1186.027663703222 3756.8278631904623
1186.8867858192025 3568.7188935792815
1187.7456964119228 3662.017100378449
1188.6043955413716 3619.735844117337
1189.4628832675116 3729.9152072782554
1190.3211596502842 3870.3157173739082
1191.179224749596 3795.733817942027
1192.0370786253388 3670.7779394402023
1192.8947213373758 3897.222787668327
1193.7521529455407 3901.188963840226
1194.6093735096438 3791.6370268272476
1195.466383089477 3790.5579710642837
1196.3231817447977 3828.0314083581943
1197.1797695353398 3991.9593234512367
1198.0361465208189 3678.1916652496307
1198.8923127609214 3772.4707437682873
1199.7482683153048 3923.006888752928
1200.6040132436028 4023.5867257174314
1201.459547605431 3817.9692302004573
1202.3148714603722 3920.436447902116
1203.1699848679855 3919.4928969122293
1204.0248878878065 3936.156961675088
1204.8795805793507 3721.900276931849
1205.7340630020935 3770.463250249342
1206.5883352155033 3925.4509204252818
1207.4423972790064 3893.635113757915
1208.2962492520237 3681.393721064368
1209.1498911939307 3776.02768781833
1210.0033231640937 3776.5939722087555
1210.8565452218427 3750.5946280691437
1211.7095574264913 3526.814929828544
1212.5623598373222 3645.533737744525
1213.4149525135963 3529.0611740718755
1214.2673355145507 3685.959382531268
1215.1195088993936 3540.8965426963514
1215.9714727273113 3575.8569183547997
1216.8232270574663 3658.4031955091996
1217.6747719489904 3404.3824405815526
1218.5261074609934 3454.4096727857986
1219.3772336525653 3514.3602840205917
1220.2281505827668 3513.9771429814377
1221.0788583106296 3666.364282181745
1221.9293568951707 3369.4892340619313
1222.7796463953746 3355.1937264316452
1223.629726870202 3563.081648951086
1224.4795983785934 3428.862187741031
1225.3292609794553 3392.094858178524
1226.1787147316809 3371.041900928439
1227.0279596941327 3410.624231695178
1227.8769959256424 3300.711030751474
1228.7258234850306 3382.613404841246
1229.5744424310833 3214.365562844937
1230.422852822563 3497.7079648461463
1231.2710547182105 3522.5150171117625
1232.119048176739 3354.6379548834316
1232.9668332568417 3234.0584017233195
1233.8144100171812 3437.6291863282045
1234.6617785163999 3448.268123537137
1235.508938813111 3156.0575171885216
1236.3558909659114 3269.915116225896
1237.2026350333617 3433.9145557228503
1238.049171074008 3455.1490788438655
1238.8954991463652 3280.217434751493
1239.741619308932 3306.9937768870864
1240.587531620169 3388.9773981232183
1241.4332361385277 3470.263368290382
1242.2787329224248 3268.714583122764
1243.1240220302534 3217.8736291855594
1243.9691035203869 3231.329424772708
1244.813977451171 3393.477494343606
1245.6586438809263 3336.9950087449893
1246.5031028679496 3136.963135648832
1247.3473544705157 3312.445732163897
1248.1913987468706 3340.222728005448
1249.0352357552383 3170.7771922485244
1249.8788655538228 3231.5109413166674
1250.7222882007918 3354.915964774619
1251.565503754302 3413.8604393607975
1252.4085122724755 3038.1662301371366
1253.2513138134182 3407.6180850313576
1254.0939084352049 3326.9102262751926
1254.9362961958905 3332.1245885228614
1255.7784771535007 3331.0875837298836
1256.6204513660432 3371.971083306437
1257.4622188915 3552.022621001116
1258.3037797878242 3340.301955499189
1259.1451341129468 3293.286153189557
1259.9862819247755 3436.069623757954
1260.8272232811978 3322.5165905178983
1261.6679582400666 3568.732683271027
1262.5084868592203 3283.5712923971973
1263.34880919647 3346.81834004543
1264.1889253095997 3414.0936604395747
1265.0288352563712 3526.652821362807
1265.8685390945266 3337.1336166868377
1266.7080368817751 3543.9630198378
1267.5473286758115 3628.254694362102
1268.386414534294 3536.6382944064
1269.2252945148703 3344.4907554518454
1270.0639686751547 3349.429683544764
1270.9024370727402 3413.8474298986084
1271.7406997651997 3442.115359150435
1272.5787568100714 3287.1968911189274
1273.4166082648808 3365.9534766898187
1274.2542541871244 3435.2351671007937
1275.091694634275 3656.807974211925
1275.9289296637817 3269.9316150394516
1276.7659593330663 3491.388651365891
1277.6027836995308 3440.9272889095846
1278.4394028205552 3584.713647794057
1279.2758167534867 3392.9612855349815
1280.112025555658 3400.5162676802115
1280.9480292843746 3484.2268032299953
1281.7838279969128 3289.730438313533
1282.6194217505326 3319.9743104566587
1283.4548106024686 3314.7496344148894
1284.289994609926 3352.8840755658503
1285.1249738300921 3463.2840728637993
1285.959748320127 3370.937765060849
1286.7943181371702 3300.453191263407
1287.6286833383328 3358.473765855724
1288.4628439807038 3460.6806856456706
1289.2968001213521 3351.4358075194004
1290.1305518173194 3370.919920991706
1290.9640991256183 3391.8640280134473
1291.7974421032523 3328.2820988584913
1292.630580807183 3272.398098461893
1293.463515294361 3434.448373385715
1294.29624562171 3579.52699781794
1295.12877184613 3388.5129658361816
1295.961094024493 3334.86447298105
1296.79321221365 3468.3719121098607
1297.6251264704333 3501.73143861485
1298.4568368516466 3762.848023318108
1299.2883434140658 3563.6819811899413
1300.1196462144526 3392.424940181156
1300.9507453095375 3610.0433017080077
1301.7816407560313 3616.9339143301854
1302.6123326106172 3587.0550175787766
1303.4428209299622 3559.618512288602
1304.2731057707024 3804.6846134906796
1305.1031871894502 3654.182551940287
1305.933065242798 3662.6085905074697
1306.7627399873181 3742.4459804650096
1307.5922114795467 3983.9080190447485
1308.4214797760123 3890.3312388321124
1309.2505449332057 3725.342359826808
1310.0794070076026 3801.6698472687253
1310.9080660556538 3950.281452748349
1311.736522133786 4033.2227522009707
1312.5647752983987 3759.3331862101777
1313.3928256058734 3680.115207383219
1314.2206731125661 3898.2141346258854
1315.048317874809 3955.416868645488
1315.8757599489109 3870.568489643658
1316.7029993911547 3972.247919763856
1317.5300362578055 4032.2085960502686
1318.356870605101 3868.004395528952
1319.183502489257 3859.8349003119656
1320.0099319664623 4029.32183657458
1320.836159092889 4074.626830368111
1321.66218392468 4162.696546108601
1322.4880065179532 3927.428627379337
1323.3136269288134 4091.413229709398
1324.1390452133292 4186.680390976603
1324.9642614275563 4185.02675938588
1325.7892756275214 4034.7001906764212
1326.6140878692295 3869.2596867185084
1327.4386982086617 4317.528286077269
1328.2631067017755 4096.127502449888
1329.0873134045069 4082.107203364022
1329.911318372764 3890.927411215432
1330.735121662441 3976.5960325758474
1331.558723329399 3850.735097512674
1332.3821234294774 3833.691636559192
1333.2053220185007 3830.8927405072645
1334.0283191522612 3710.0666021025477
1334.851114886529 3870.379389784546
1335.6737092770582 3581.550627394246
1336.4961023795695 3686.090975873112
1337.3182942497697 3579.003342167956
1338.1402849433325 3673.081055269299
1338.962074515921 3470.7719361779286
1339.7836630231632 3422.854093042776
1340.6050505206676 3772.575544023882
1341.426237064028 3702.2011356724643
1342.2472227088037 3444.2200194803904
1343.0680075105338 3345.5798363952636
1343.888591524741 3544.779281989971
1344.7089748069138 3589.466500654179
1345.5291574125276 3455.4490739658336
1346.3491393970307 3256.3949156415156
1347.168920815846 3520.9752913489015
1347.9885017243778 3516.384206703225
1348.8078821780036 3408.8356665513975
1349.6270622320844 3414.4648023325453
1350.4460419419447 3295.6584859326795
1351.2648213629054 3527.7217623210745
1352.0834005502438 3179.955772078659
1352.90177955923 3275.1044554098744
1353.7199584451064 3445.613680012209
1354.5379372630887 3331.744525547218
1355.355716068374 3342.7539494215825
1356.1732949161305 3184.882670087857
1356.9906738615155 3257.8070532076626
1357.8078529596478 3297.9492119775196
1358.6248322656375 3331.454523816653
1359.441611834567 3220.1679193051655
1360.2581917214866 3349.4984366044237
1361.0745719814367 3298.6213249426655
1361.890752669433 3201.2853221037085
1362.7067338404577 3216.536790150848
1363.5225155494845 3396.9250958572266
1364.3380978514506 3439.148583561221
1365.1534808012839 3062.605965541471
1365.9686644538815 3088.0104488069805
1366.783648864117 3411.0199526933625
1367.5984340868417 3380.9294009998985
1368.413020176893 3308.248884306447
1369.2274071890715 3142.9663335776295
1370.0415951781652 3275.3342028652123
1370.8555841989346 3264.7440092974803
1371.6693743061223 3115.710175973673
1372.48296555444 3047.818260406896
1373.2963579985844 3258.8227692937626
1374.1095516932255 3250.5135199209726
1374.9225466930166 2989.494097041276
1375.7353430525782 3167.2067941649616
1376.5479408265164 3180.2353110641775
1377.36034006941 3322.544713745114
1378.1725408358216 3271.080020425175
1378.9845431802805 2964.529276581641
1379.796347157304 3567.0914745525797
1380.6079528213813 3276.9437589867316
1381.4193602269788 2961.804238443346
1382.230569428546 3092.185449326571
1383.0415804805016 3335.3345319885834
1383.852393437246 3189.7388267440174
1384.6630083531563 3172.2929925178673
1385.4734252825892 3090.873457107802
1386.2836442798798 3173.806871700014
1387.0936653993322 3283.1305636365605
1387.9034886952395 3175.1203117001746
1388.713114221864 3252.123847850341
1389.5225420334482 3229.499130299381
1390.331772184214 3220.26314784004
1391.1408047283585 2967.275404149873
1391.9496397200564 3202.1530270380886
1392.758277213461 3305.5240865324113
1393.5667172627054 3367.3581454525215
1394.3749599218918 3120.803644882594
1395.1830052451114 3063.6327387782894
1395.9908532864265 3259.311842508679
1396.7985040998774 3276.141873651824
1397.6059577394808 3070.6960249924487
1398.4132142592352 3180.549177060352
1399.2202737131156 3077.3049018527745
1400.027136155073 3293.5827831133124
1400.8338016390353 3071.4685091932047
1401.6402702189134 3142.1012151216028
1402.446541948586 3225.6319403084963
1403.2526168819204 3077.8345606368416
1404.058495072757 3040.3877176496726
1404.8641765749107 3201.0496121931405
1405.6696614421799 3213.516831667104
1406.4749497283356 3495.224949546298
1407.280041487129 3115.1855777586125
1408.084936772295 2934.1534016877463
1408.8896356375335 3275.187077451311
1409.6941381365323 3217.4589123171118
1410.498444322955 3007.413074980247
1411.3025542504402 3022.8207093827023
1412.106467972606 3137.0708665783836
1412.9101855430508 3091.8307391259345
1413.7137070153458 2882.7572994174134
1414.5170324430437 3039.1608419367303
1415.320161879672 3135.799928960999
1416.1230953787435 3306.959503490594
1416.925832993742 2930.3841655493097
1417.7283747781275 2863.9356479545986
1418.5307207853439 3136.1262088442177
1419.3328710688093 3017.063259601352
1420.134825681922 2858.532862337285
1420.9365846780584 2975.2715387813837
1421.7381481105713 3220.528403899263
1422.539516032788 3101.088809794129
1423.3406884980232 2925.4086193534704
1424.1416655595604 2963.697301335053
1424.942447270665 3108.5175573298557
1425.7430336845828 3140.4197181188238
1426.5434248545298 2900.973175820332
1427.3436208337116 3193.0620124778097
1428.143621675301 3043.1200070037294
1428.9434274324558 3325.2474632812364
1429.7430381583108 2976.042218430057
1430.5424539059713 3106.0379443281468
1431.3416747285337 3455.4913950722357
1432.1407006790632 3289.901946257431
1432.9395318106053 3257.413475317097
1433.7381681761835 3083.329198453549
1434.5366098288014 3299.8611266740118
1435.3348568214424 3318.457408052271
1436.1329092070573 3115.333058680155
1436.9307670385879 3197.000885981086
1437.7284303689503 3374.543685193907
1438.5258992510335 3446.4226331889317
1439.3231737377118 3248.360064304254
1440.1202538818306 3199.4568745654738
1440.9171397362225 3238.7552888629025
1441.7138313536925 3242.939116588877
1442.5103287870243 3203.870895046958
1443.3066320889775 3168.7138932468433
1444.1027413122956 3321.991434099201
1444.8986565096966 3179.189901492361
1445.694377733882 3148.1802571197472
1446.4899050375207 3040.710301805486
1447.2852384732687 3074.5836518996075
1448.0803780937622 3249.6316501668016
1448.8753239516063 2965.018851841584
1449.6700760993954 2882.8689766970897
1450.464634589689 3007.1688747764792
1451.2589994750397 3253.728902250439
1452.0531708079689 2895.223395500987
1452.8471486409799 2895.0268331816437
1453.6409330265524 3202.541114005592
1454.4345240171442 3022.22389428403
1455.2279216651987 2909.8672871925214
1456.0211260231263 2990.62318942394
1456.8141371433194 3322.2495115619176
1457.6069550781594 3147.9560910311598
1458.3995798799897 2830.7949084451275
1459.1920116011424 2862.5357417212927
1459.98425029393 2865.2836197650845
1460.7762960106338 2855.795948111551
1461.5681488035225 2913.7148152744794
1462.3598087248392 2954.767604059718
1463.1512758268036 3142.0126175844734
1463.942550161617 2804.3403753390326
1464.7336317814625 2816.1277296213184
1465.524520738496 2812.1742367066267
1466.3152170848552 2741.060024827446
1467.1057208726506 2737.627265727605
1467.8960321539817 2747.5937909417935
1468.6861509809169 2623.481538053219
1469.4760774055085 2663.6107572407827
1470.265811479785 2757.5282493766344
1471.055353255755 2594.1410116411844
1471.844702785409 2553.0699669257706
1472.6338601207044 2569.442380769044
1473.4228253135934 2780.145245266428
1474.2115984159936 2451.0539707858843
1475.0001794798063 2460.7386357703435
1475.7885685569145 2658.7213731840484
1476.576765699172 2642.9693703044322
1477.3647709584238 2548.9460002230007
1478.1525843864802 2791.1522136756143
1478.9402060351367 2678.089682792842
1479.7276359561693 2691.5575310453014
1480.514874201328 2572.085241573149
1481.3019208223468 2402.7485605638876
1482.0887758709323 2293.444093364289
1482.8754393987747 2721.933543316908
1483.6619114575406 2382.023818075647
1484.4481920988783 2487.9859099288033
1485.2342813744108 2457.3726335952415
1486.0201793357446 2774.5327922434167
1486.8058860344572 2433.6084656458524
1487.591401522117 2494.466502251284
1488.3767258502594 2472.3628275976002
1489.1618590704056 2530.4355416441804
1489.9468012340494 2246.280168323335
1490.7315523926754 2536.8086260688074
1491.5161125977356 2569.414853875907
1492.3004819006637 2557.944961787153
1493.084660352877 2309.8552349286583
1493.8686480057622 2490.6896904855357
1494.6524449106964 2697.9544996572313
1495.4360511190262 2777.7042857388087
1496.219466682087 2555.943800144243
1497.0026916511779 2468.9737028943064
1497.7857260775945 2530.186872427254
1498.5685700125996 2593.2586346948965
1499.3512235074395 2413.3764903119386
1500.133686613337 2374.657795257726
1500.9159593814966 2463.5943328092553
1501.698041863101 2399.488572081941
1502.4799341093094 2335.410700147835
1503.2616361712662 2265.0547273843285
1504.043148100087 2593.822179734711
1504.8244699468742 2598.4522563996334
1505.6056017626997 2394.327065085981
1506.3865435986281 2359.303698417686
1507.1672955056893 2565.6360398406546
1507.9478575348967 2411.9050851679713
1508.7282297372512 2512.9788489389584
1509.5084121637192 2447.7539670892165
1510.2884048652577 2485.8445224507127
1511.0682078927948 2372.1931328569826
1511.8478212972423 2414.6432270573596
1512.6272451294917 2391.3010388883567
1513.4064794404076 2518.9357251739243
1514.1855242808433 2548.638312590153
1514.9643797016215 2408.6010303544617
1515.743045753552 2612.0644282036983
1516.5215224874191 2583.308814123923
1517.2998099539836 2357.4171371720117
1518.077908203999 2523.098787390517
1518.8558172881785 2452.703108460149
1519.633537257234 2566.5611647065816
1520.4110681618404 2531.2071950630516
1521.1884100526604 2443.381129102746
1521.9655629803365 2444.7044819533717
1522.7425269954856 2589.784786202704
1523.5193021487103 2791.995860606357
1524.2958884905856 2436.9448259385085
1525.0722860716687 2502.519456163621
1525.848494942502 2495.7482972464854
1526.624515153595 2443.485817636187
1527.4003467554485 2493.1202194144544
1528.175989798534 2671.311899059186
1528.9514443333064 2545.164101407484
1529.726710410203 2727.2736602815285
1530.5017880796331 2462.316104404589
1531.276677391992 2477.468316099127
1532.0513783976457 2764.6383054154803
1532.825891146953 2561.989762479668
1533.6002156902414 2599.300034070045
1534.3743520778207 2557.5278735840698
1535.1483003599806 2644.330222606045
1535.9220605869923 2596.428073506666
1536.6956328091019 2646.3965186211644
1537.4690170765407 2557.813857563284
1538.242213439511 2718.496463759118
1539.015221948208 2579.8495630972493
1539.78804265279 2552.824118569908
1540.560675603405 2422.5730320804882
1541.3331208501804 2710.040390154845
1542.1053784432224 2667.870953761783
1542.8774484326168 2611.168883914618
1543.649330868422 2537.4554548066376
1544.4210258006842 2568.404906428087
1545.1925332794308 2574.492446522566
1545.9638533546604 2514.52416768873
1546.7349860763552 2434.0184681421865
1547.5059314944829 2817.815644004417
1548.27668965898 2584.347445418138
1549.0472606197673 2550.4807805808323
1549.817644426752 2472.0122166045835
1550.5878411298072 2738.8048743508084
1551.3578507787988 2613.122474306382
1552.1276734235635 2489.0653480040737
1552.8973091139233 2589.619138630246
1553.6667578996767 2707.3856753668706
1554.436019830604 2523.744907463257
1555.20509495646 2527.2879072611768
1555.9739833269869 2427.690449946942
1556.7426849919011 2576.3925694560835
1557.511200000903 2804.25820573081
1558.2795284036674 2666.1019488851516
1559.0476702498509 2499.1372477544987
1559.8156255890954 2750.57383420813
1560.5833944710157 2924.991186636495
1561.3509769452048 2512.3444016904205
1562.1183730612447 2586.191383018233
1562.8855828686865 2580.868149091401
1563.6526064170703 2905.61284255059
1564.4194437559127 2686.136084435982
1565.1860949347047 2517.3359974004957
1565.9525600029283 2899.508728571067
1566.7188390100328 3008.06576370514
1567.4849320054564 2543.7592293519347
1568.250839038612 2587.799467941377
1569.0165601588997 2673.4401198611367
1569.7820954156887 2757.7705470538963
1570.5474448583373 2721.3216914294117
1571.31260853618 2642.297001715016
1572.0775864985299 2435.767318195534
1572.8423787946813 2703.3993919482205
1573.6069854739108 2649.4531901597024
1574.371406585471 2736.183775565655
1575.1356421785986 2787.8424469491756
1575.899692302506 2667.408869780634
1576.6635570063845 2713.2314866745432
1577.4272363394157 2686.2217435777666
1578.190730350747 2691.728526180947
1578.9540390895163 2716.769223337648
1579.7171626048384 2431.62287680143
1580.480100945806 2628.618887900776
1581.2428541614918 2634.8114686023996
1582.0054223009538 2705.2460104918036
1582.767805413223 2727.1406237846923
1583.5300035473156 2713.4791655882973
1584.292016752228 2976.153727548606
1585.0538450769309 2805.226016924697
1585.8154885703807 2496.565442521148
1586.5769472815136 2469.8604032382354
1587.3382212592405 2663.3903541029827
1588.099310552463 2779.1723353799252
1588.8602152100484 2592.616825462298
1589.6209352808564 2723.671568867863
1590.3814708137234 2640.0453646594897
1591.14182185746 2611.5364448290143
1591.9019884608679 2462.562620957234
1592.6619706727215 2443.73661390084
1593.4217685417734 2571.78128057249
1594.1813821167616 2756.650003339916
1594.9408114464022 2524.170826141556
1595.7000565793933 2511.8512586442534
1596.459117564409 2581.416750944621
1597.2179944501113 2469.35990849724
1597.9766872851324 2492.1404283505594
1598.735196118092 2650.054678215266
1599.4935209975883 2623.5757477768793
1600.2516619721973 2766.2144245942586
1601.0096190904787 2442.8791900535152
1601.7673924009723 2458.307701793203
1602.524981952196 2388.0276192156716
1603.2823877926476 2431.276959715055
1604.0396099708087 2398.589818802883
1604.7966485351371 2340.4068563551627
1605.5535035340745 2349.3456811847204
1606.3101750160404 2698.362399938459
1607.0666630294363 2346.9845091293
1607.822967622642 2304.974046091394
1608.5790888440224 2500.04409009415
1609.3350267419137 2669.810946829441
1610.0907813646445 2541.9626492716075
1610.8463527605145 2464.6987721067885
1611.601740977805 2555.9303745822835
1612.356946064785 2536.6665825801415
1613.1119680696902 2253.4945131865106
1613.8668070407512 2345.349524147251
1614.6214630261748 2353.528523074772
1615.375936074137 2496.481820201694
1616.1302262328118 2380.6222680957185
1616.8843335503425 2528.2728842516162
1617.638258074854 2357.1679400013218
1618.391999854457 2431.5844245129383
1619.1455589372363 2561.1188613369973
1619.8989353712623 2439.004218060067
1620.65212920458 2240.446918384132
1621.4051404852235 2243.6665517174024
1622.1579692611976 2364.937084427485
1622.9106155804966 2297.5321763812963
1623.663079491087 2400.743835517262
1624.4153610409248 2504.2984287703885
1625.1674602779385 2370.5371392348384
1625.9193772500403 2291.1408798044317
1626.6711120051277 2562.506411810487
1627.4226645910676 2379.014284575634
1628.174035055721 2278.974973593745
1628.9252234469168 2484.3307582695084
1629.676229812474 2323.509095440727
1630.4270542001905 2736.6237080653
1631.1776966578382 2424.4338003812186
1631.9281572331747 2332.1589933671635
1632.678435973945 2609.0905124102646
1633.4285329278573 2484.4363635331383
1634.1784481426203 2149.953133140779
1634.9281816659113 2347.8107105876697
1635.677733545388 2585.4950092394397
1636.4271038286934 2486.4234795616558
1637.176292563452 2549.107443665521
1637.9252997972635 2614.745348430414
1638.674125577716 2534.261432379172
1639.4227699523672 2757.828218664509
1640.171232968767 2234.1896373918526
1640.9195146744423 2599.425682252534
1641.6676151168977 2586.933724824814
1642.4155343436178 2715.20399333079
1643.1632724020765 2562.0529264860247
1643.9108293397167 2603.927633420986
1644.658205203974 2493.9823909749284
1645.4054000422566 2522.8972695155708
1646.1524139019566 2551.630266356442
1646.8992468304423 2421.547464415807
1647.6458988750728 2499.08415184699
1648.3923700831765 2568.4474828742595
1649.1386605020743 2555.11744664617
1649.8847701790564 2717.541729450157
1650.6306991614038 2661.1605071473477
1651.3764474963682 2858.9613896949872
1652.1220152311944 2386.7671191504037
1652.867402413096 2768.7677536180977
1653.6126090892776 2633.2023767514884
1654.3576353069184 2823.2161255920246
1655.1024811131829 2631.2743084253716
1655.8471465552066 2599.117090482355
1656.5916316801213 2786.478107426863
1657.3359365350298 2733.7962286019424
1658.0800611670165 2540.13712886751
1658.824005623148 2684.5826319743596
1659.5677699504722 2579.602786548146
1660.3113541960192 2736.6144762114086
1661.054758406799 2536.745972243172
1661.7979826297997 2433.9887213539505
1662.5410269119966 2503.314385057709
1663.283891300338 2798.905876677335
1664.0265758417645 2561.661647649972
1664.7690805831826 2668.4202914449274
1665.5114055714948 2656.4549677888704
1666.2535508535748 2938.7440986544216
1666.9955164762814 2404.443440905761
1667.7373024864555 2505.7801289189274
1668.478908930916 2657.4645704673367
1669.220335856462 2478.9505546190708
1669.9615833098778 2468.491715028178
1670.7026513379296 2425.2510969001974
1671.44353998736 2645.9556588220485
1672.1842493048916 2521.01359873045
1672.9247793372379 2392.5016071628606
1673.6651301310812 2613.4495875983766
1674.4053017330934 2416.011900557099
1675.1452941899242 2603.4945858240235
1675.885107548207 2077.6044397016835
1676.6247418545518 2263.055154793002
1677.3641971555535 2296.861446368997
1678.1034734977893 2570.914708379769
1678.8425709278108 2419.479653231575
1679.5814894921605 2464.5096298859844
1680.320229237359 2436.098561173821
1681.0587902098978 2639.233587184139
1681.7971724562685 2355.0664269338276
1682.5353760229264 2199.457484936976
1683.2734009563173 2461.799983090351
1684.0112473028657 2238.964989068584
1684.7489151089794 2399.204377939445
1685.4864044210462 2400.0790194896317
1686.2237152854377 2075.057136772819
1686.960847748498 2441.9698009185586
1687.6978018565642 2154.370887101133
1688.434577655944 2125.085125774656
1689.1711751929379 2134.2640882228366
1689.9075945138156 2387.419114767009
1690.6438356648396 2191.972546989531
1691.3798986922448 1888.4766076021085
1692.1157836422499 2161.590264131002
1692.851490561059 2081.695675953096
1693.587019494853 2166.996188905546
1694.3223704897991 1886.797716000993
1695.0575435920364 1848.4507155066665
1695.792538847696 1909.6438835990143
1696.527356302886 1970.8437122869104
1697.2619960036936 1874.5628510848856
1697.9964579961907 1971.2742768683972
1698.730742326432 1680.3466099820228
1699.4648490404488 1709.7891367765726
1700.1987781842563 1999.319737818943
1700.9325298038548 2017.324717602662
1701.6661039452174 2256.8494677438657
1702.3995006543082 1953.7515352223804
1703.1327199770658 1982.9588559498163
1703.865761959416 1788.9283364704515
1704.598626647261 2121.947347711218
1705.3313140864866 1784.4195292559612
1706.0638243229587 1782.2728934262436
1706.7961574025303 1976.9971049799867
1707.528313371029 1889.4337336123785
1708.260292274268 1707.8582219274508
1708.9920941580403 1855.504318969513
1709.7237190681226 1847.920138585289
1710.4551670502697 1931.223100268154
1711.18643815022 1610.976897304496
1711.9175324136959 1675.9655267106434
1712.6484498863938 1741.0656627090289
1713.379190614005 1745.1413014734476
1714.109754642188 1835.4537048256038
1714.8401420165883 1709.12189766235
1715.570352782839 2028.8161933978995
1716.3003869865497 1826.7271686238746
1717.0302446733076 1590.7845934740471
1717.7599258886876 1754.008724472457
1718.4894306782444 1675.3417397946039
1719.2187590875183 2027.4402451597512
1719.9479111620203 1943.9516944264803
1720.6768869472544 1703.2079044546558
1721.4056864887025 1998.1854741133411
1722.1343098318284 2052.3738288350764
1722.8627570220742 1722.6292208518705
1723.591028104871 1721.8593420553211
1724.3191231256242 1582.0366073956625
1725.0470421297232 1702.0629136703585
1725.7747851625427 1815.3717566570126
1726.5023522694337 1940.7292332143454
1727.2297434957363 1716.5505400958002
1727.9569588867635 1535.7677104305028
1728.6839984878152 1846.4592652454903
1729.4108623441734 1867.0788781153158
1730.1375505011038 1887.9035382616523
1730.8640630038426 1657.4056543446309
1731.5903998976264 1571.199368577039
1732.316561227657 1840.0778841716387
1733.0425470391274 1570.0952777112707
1733.7683573772065 1706.2865575830997
1734.4939922870508 1646.0484856553526
1735.2194518137949 1835.8635248578182
1735.9447360025606 1708.4780116145134
1736.669844898439 1725.5218619773816
1737.3947785465189 1549.420784258124
1738.1195369918605 1604.256668216634
1738.8441202795093 1705.6772031880378
1739.5685284544943 1812.4741842843675
1740.292761561821 1722.6022532749678
1741.0168196464838 1846.973406554279
1741.7407027534518 1800.568105801886
1742.464410927687 1695.0743303970826
1743.187944214118 1626.3269075457602
1743.9113026576688 1670.4415269414185
1744.634486303241 1658.636855059698
1745.3574951957125 1713.0645017156614
1746.0803293799509 1819.2679384628937
1746.8029889008048 1679.2293142940064
1747.5254738031017 1778.049475569899
1748.2477841316504 1605.368748853298
1748.969919931249 1610.0743303893732
1749.6918812466665 1653.4574193546155
1750.4136681226646 1803.011389342609
1751.1352806039777 1585.507916996645
1751.856718735331 1462.2590778365534
1752.5779825614281 1420.3570568339833
1753.2990721269507 1666.1274293116912
1754.0199874765676 1714.7350031164733
1754.7407286549314 1437.645932688953
1755.4612957066693 1678.7069979845255
1756.1816886763954 1477.3024326970722
1756.9019076087097 1699.7916312263417
1757.6219525481865 1761.3005059845916
1758.3418235393856 1617.6115727188824
1759.061520626854 1617.707538221389
1759.7810438551096 1856.6715554641232
1760.5003932686614 1540.8185266128496
1761.2195689119999 1728.9495608616453
1761.938570829594 1720.3800821393409
1762.657399065898 1631.0432061631643
1763.376053665348 1504.0080338426746
1764.0945346723602 1542.003479915845
1764.812842131334 1843.71429888384
1765.5309760866512 1546.8607438588126
1766.2489365826787 1535.648366167498
1766.9667236637597 1592.3277141334456
1767.684337374223 1360.192422115983
1768.401777758383 1546.5631998729837
1769.1190448605284 1579.0887401189138
1769.836138724937 1435.0846588324282
1770.5530593958665 1592.1492058896415
1771.2698069175603 1943.2953771510608
1771.9863813342326 1748.3482316511734
1772.702782690094 1524.244455979707
1773.4190110293293 1810.1254948392773
1774.1350663961111 1768.7416911870835
1774.8509488345844 1535.6352915271439
1775.5666583888924 1628.6241270964636
1776.2821951031437 1754.4263380596803
1776.9975590214362 1541.3332477995077
1777.7127501878585 1748.8483683614172
1778.4277686464684 1720.5031638360172
1779.1426144413108 1685.00354803644
1779.8572876164162 1785.9033495874949
1780.571788215797 1403.805600233704
1781.2861162834415 1626.9537522088872
1782.0002718633277 1557.787637383992
1782.7142549994132 1713.927552100362
1783.4280657356376 1656.7329245784192
1784.141704115922 1541.2498498055224
1784.855170184177 1560.2841084581441
1785.5684639842839 1652.7692781398005
1786.2815855601148 1729.1522830012934
1786.9945349555237 1805.6323401029254
1787.707312214343 1553.5442353768317
1788.4199173803918 1461.2156345885896
1789.132350497468 1368.8549561899586
1789.8446116093583 1597.556265179543
1790.556700759822 1407.4463790232603
1791.2686179926077 1525.3684464537935
1791.9803633514493 1552.345256700635
1792.6919368800554 1399.9490901149961
1793.4033386221236 1612.9423452150738
1794.1145686213295 1637.5631452378395
1794.8256269213307 1901.1116827738392
1795.536513565774 1629.5521927956695
1796.247228598284 1441.04557085651
1796.9577720624693 1573.8597810116319
1797.6681440019165 1660.918014500304
1798.3783444602013 1541.6808336432223
1799.0883734808776 1581.8430597590757
1799.7982311074884 1655.7722415444307
1800.5079173835475 1558.209689571686
1801.2174323525633 1634.5202347324514
1801.9267760580187 1577.8901375369753
1802.635948543386 1646.719454027633
1803.3449498521113 1430.2902724371663
1804.0537800276325 1586.7374479421583
1804.7624391133668 1549.6299328448113
1805.47092715271 1395.6771679868941
1806.1792441890484 1388.2966244342629
1806.8873902657433 1589.1683684144
1807.5953654261448 1562.8922408424223
1808.3031697135812 1533.2781765920731
1809.0108031713662 1506.1109925228443
1809.71826584279 1443.098636603205
1810.425557771141 1550.6067100688247
1811.1326789996747 1844.7564509237097
1811.839629571632 1544.0641523622453
1812.5464095302468 1483.1260592441508
1813.2530189187182 1559.7147906705572
1813.959457780249 1502.7913646196043
1814.6657261580076 1548.4991044686985
1815.371824095153 1432.2077578533886
1816.0777516348262 1355.5407790660477
1816.78350882015 1278.84298109755
1817.4890956942272 1242.6861051915464
1818.1945123001533 1527.0730265427724
1818.8997586809928 1465.9581147533722
1819.6048348798067 1429.077241485563
1820.3097409396287 1537.1575584211107
1821.0144769034796 1880.1436553470699
1821.7190428143622 1643.5274394452917
1822.423438715261 1591.294726520307
1823.1276646491478 1464.1954270128642
1823.8317206589727 1672.9387151476556
1824.5356067876692 1580.9406817764107
1825.2393230781581 1539.2828900204365
1825.942869573335 1323.5864227775323
1826.646246316086 1419.7169237307023
1827.3494533492758 1633.6323427918098
1828.052490715756 1554.116503674469
1828.7553584583547 1472.073915231786
1829.458056619891 1600.4311785111936
1830.1605852431585 1488.9890540053652
1830.8629443709433 1372.479332870495
1831.5651340460063 1473.3249144178087
1832.2671543110919 1364.444971354579
1832.9690052089318 1342.8309309202878
1833.6706867822395 1321.293396564713
1834.3721990737104 1562.0831113844492
1835.0735421260233 1616.6504399013138
1835.774715981841 1482.070148941353
1836.4757206838058 1692.308535009639
1837.1765562745459 1528.5680199643703
1837.8772227966747 1363.035926409516
1838.5777202927839 1417.0010690843333
1839.2780488054523 1422.8827001123213
1839.9782083772352 1323.7274739435454
1840.6781990506806 1358.393831682591
1841.378020868313 1393.0770490545758
1842.0776738726418 1592.6480538514122
1842.777158106157 1398.6619351431539
1843.4764736113375 1456.8231313368926
1844.1756204306403 1561.1786255942327
1844.8745986065078 1482.2394109920501
1845.5734081813607 1282.2565698783778
1846.2720491976124 1388.34912494651
1846.970521697649 1430.8041140379278
1847.6688257238511 1553.3490595091102
1848.3669613185684 1474.270063612114
1849.0649285241452 1223.5511037176466
1849.7627273829057 1580.4489096819013
1850.460357937156 1475.0752589306805
1851.1578202291857 1305.4717847252346
1851.8551143012664 1515.9976409397673
1852.5522401956569 1388.3923978118805
1853.2491979545957 1369.5727824815863
1853.9459876203055 1351.0087365845488
1854.6426092349902 1311.1156544329115
1855.3390628408451 1359.2979900524613
1856.0353484800362 1728.6127398430774
1856.7314661947203 1544.2730535896078
1857.4274160270397 1303.5372769836024
1858.123198019115 1461.953009265747
1858.8188122130487 1190.5024438946223
1859.5142586509319 1486.780755659119
1860.209537374838 1500.9411171083948
1860.9046484268183 1431.8311401606725
1861.599591848917 1642.1270608713355
1862.294367683151 1503.4816022332357
1862.988975971528 1375.037068876118
1863.6834167560355 1487.3818541630353
1864.3776900786452 1572.01473658701
1865.0717959813119 1410.205991670075
1865.7657345059724 1365.8855570923413
1866.4595056945564 1551.8777208565202
1867.1531095889586 1588.0173394738754
1867.846546231076 1288.6894472579065
1868.5398156627743 1595.9103401063792
1869.2329179259123 1307.5260558824336
1869.9258530623283 1678.3910946010633
1870.618621113843 1387.796624607597
1871.3112221222636 1214.278804140685
1872.0036561293764 1332.0394203332528
1872.695923176956 1427.0975964928066
1873.3880233067594 1583.8579242672317
1874.0799565605212 1343.8547381767426
1874.7717229799673 1441.7936948068498
1875.4633226068036 1672.1601494114614
1876.1547554827175 1610.864703695878
1876.8460216493859 1352.550758169356
1877.5371211484617 1445.5685876372436
1878.2280540215852 1604.1801824353201
1878.9188203103804 1271.7253131718635
1879.6094200564548 1444.5880169945644
1880.299853301396 1372.9995857873523
1880.9901200867826 1570.1253681347148
1881.6802204541673 1475.4021543615784
1882.3701544450942 1479.147125780828
1883.059922101087 1195.6586443220453
1883.7495234636517 1273.4666310072078
1884.4389585742792 1351.361058966386
1885.1282274744517 1295.2411876913006
1885.8173302056166 1423.6073058205602
1886.506266809225 1552.1469246933727
1887.195037326701 1251.4232157351719
1887.8836417994517 1410.4392800217704
1888.5720802688702 1767.3113075884944
1889.260352776333 1578.0429495615695
1889.9484593632042 1564.0354839340262
1890.63640007082 1324.2051908976775
1891.3241749405151 1321.6921172496518
1892.0117840135954 1552.580285296729
1892.6992273313572 1457.7477849212476
1893.3865049350788 1352.8569034557959
1894.0736168660223 1767.8850893447793
1894.7605631654333 1499.084974460383
1895.4473438745408 1626.3422741803868
1896.133959034556 1334.7993487899198
1896.820408686679 1500.3197581564186
1897.506692872088 1630.3262276611827
1898.192811631945 1435.2174022239574
1898.8787650073991 1419.7863618941296
1899.5645530395832 1480.3630729948416
1900.2501757696118 1497.6513431115864
1900.9356332385796 1264.1618817274184
1901.620925487574 1625.1014474491528
1902.3060525576602 1475.0368988243388
1902.9910144898859 1552.7649495271166
1903.6758113252872 1288.8865435167459
1904.3604431048789 1559.6822446516194
1905.0449098696663 1522.219968031869
1905.7292116606295 1322.3172313714633
1906.4133485187394 1220.5897808311934
1907.0973204849488 1422.5828657210686
1907.7811276001976 1284.5422082088876
1908.4647699053967 1350.9168658666995
1909.1482474414588 869.9093657394018
1909.8315602492694 1237.890897979689
1910.5147083696957 1642.309790387136
1911.1976918436012 1257.504699254456
1911.880510711815 1287.943019717844
1912.5631650151681 1331.7267988461126
1913.2456547944657 1375.5382703790372
1913.927980090495 1336.8554953955133
1914.6101409440362 1316.5764718461114
1915.2921373958416 1432.962723999786
1915.9739694866603 1384.1095732515607
1916.655637257214 1577.5292435912065
1917.3371407482136 1437.1098825381018
1918.0184800003572 1638.2697396666108
1918.6996550543154 1581.9878699727312
1919.3806659507554 1426.305093262209
1920.0615127303208 1469.9032266349786
1920.7421954336423 1590.564779685688
1921.4227141013343 1524.5252253130454
1922.103068773993 1529.9781262330039
1922.783259492202 1546.61898426093
1923.4632862965227 1424.6493155668436
1924.1431492275078 1341.7188719973642
1924.8228483256917 1145.0490629878427
1925.5023836315922 1247.54082211801
1926.1817551857057 1418.8388672305832
1926.8609630285227 1590.4644091901016
1927.5400072005123 1546.0076822192161
1928.218887742125 1376.1617973604966
1928.8976046938005 1256.6642570963866
1929.5761580959588 1524.2589083706653
1930.2545479890086 1445.217371313251
1930.9327744133352 1099.1749635450778
1931.6108374093164 1429.7828771748989
1932.2887370173066 1274.1642056834721
1932.9664732776473 1581.2065799523514
1933.6440462306673 1432.869152118301
1934.3214559166754 1359.7609539292187
1934.9987023759659 1676.2789096634394
1935.675785648813 1568.1529922529592
1936.3527057754836 1135.5308993668564
1937.029462796223 1699.5719855804807
1937.70605675126 1278.575868508965
1938.3824876808085 1229.5724609182594
1939.058755625072 1364.2790529978374
1939.7348606242267 1288.615951424533
1940.4108027184448 1362.6421341955058
1941.0865819478713 1440.659476559684
1941.7621983526478 1243.3244590967017
1942.4376519728921 1226.543390391103
1943.1129428487038 1430.2375309467147
1943.7880710201734 1538.3624704835242
1944.4630365273733 1444.882750625741
1945.1378394103576 1170.312872681352
1945.8124797091714 1100.720449724719
1946.4869574638324 1030.9513641470771
1947.161272714353 1276.9752080672279
1947.8354255007234 1493.4921654369018
1948.5094158629272 1356.631976850361
1949.1832438409183 1515.534607656955
1949.8569094746435 1480.098922572549
1950.530412804037 1609.3461339536427
1951.2037538690092 1557.4321826123448
1951.8769327094578 1340.362784359281
1952.5499493652678 1443.5321086498247
1953.222803876306 1635.3067060041603
1953.895496282421 1565.517690540475
1954.5680266234522 1513.072768414859
1955.2403949392155 1560.868546148722
1955.9126012695142 1281.9945068208458
1956.5846456541403 1273.049647363456
1957.2565281328643 1342.22375802192
1957.9282487454457 1479.9282221273409
1958.5998075316202 1663.843727947836
1959.27120453112 1295.2244222654383
1959.9424397836501 1453.9255284939145
1960.613513328908 1517.829657761802
1961.2844252065697 1394.47281852257
1961.9551754563017 1270.881479357731
1962.6257641177453 1277.7062254597888
1963.29619123054 1212.7157176123055
1963.966456834296 1193.8099979999338
1964.6365609686181 1288.0248708991755
1965.306503673086 1395.1059732262543
1965.976284987275 1327.8632077577827
1966.645904950734 1413.3174888829117
1967.315363603002 1364.17640918496
1967.9846609836077 1314.927531442027
1968.6537971320486 1232.5072567684801
1969.3227720878222 1490.634887437512
1969.9915858904042 1360.7239186134136
1970.660238579252 1456.0332774290569
1971.3287301938108 1320.2038491441392
1971.997060773514 1353.4890813769393
1972.665230357772 1300.8849143825705
1973.3332389859843 1224.592802528146
1974.0010866975335 1183.9709162011586
1974.6687735317864 1458.7765385708904
1975.3362995280932 1419.3400354803537
1976.003664725793 1503.9775969383177
1976.6708691642052 1425.566599324045
1977.3379128826364 1346.9286582199652
1978.004795920373 1567.7949891114731
1978.6715183166925 1328.1021123420435
1979.3380801108524 1540.6784682950777
1980.0044813420973 1337.1338480068391
1980.6707220496555 1187.3051776558248
1981.3368022727373 1311.025193986881
1982.0027220505417 1395.0619350735337
1982.66848142225 1063.1466651638923
1983.3340804270283 1105.2261970009986
1983.999519104027 1336.894660229815
1984.6647974923835 1365.3428265856821
1985.329915631215 1571.6256322656204
1985.99487355963 1260.4600547262337
1986.6596713167146 1544.4281538166572
1987.3243089415428 1218.4337661848385
1987.9887864731754 1564.2717603748622
1988.6531039506553 1214.4651399356426
1989.3172614130071 1212.9784272854833
1989.9812588992481 1211.5082389132654
1990.645096448372 1112.4324287297563
1991.3087740993633 1395.9466805399347
1991.9722918911848 1210.7489087052654
1992.635649862792 1447.2299700997983
1993.2988480531185 1326.7620138291063
1993.9618865010852 1287.4175774742346
1994.6247652455968 1248.05067900141
1995.287484325545 1186.2560046493022
1995.9500437798033 1261.0258977526391
1996.6124436472292 1200.2352285760403
1997.2746839666706 1242.0538155205895
1997.936764776954 1283.984840655659
1998.598686116895 1236.3466237833625
1999.2604480252903 1608.1341807608198
1999.9220505409212 1491.864844079149
2000.5834937025593 1257.0177642805627
2001.2447775489582 1278.8847697341432
2001.9059021188514 1465.5168016647233
2002.5668674509616 1254.3781793197875
2003.2276735839987 1349.2424038602135
2003.8883205566508 1256.2374717978137
2004.5488084075987 1163.0623240102095
2005.2091371755014 1227.9661172646672
2005.8693068990033 1061.2371214896552
2006.5293176167397 1084.8747593324522
2007.1891693673224 1108.6506080438398
2007.848862189354 1107.6710822453936
2008.5083961214223 1237.6525677097338
2009.1677712020955 1230.756452529829
2009.8269874699254 1186.4466621920915
2010.4860449634598 1193.1767732595504
2011.1449437212177 1199.9948636816437
2011.8036837817108 1428.49356949601
2012.4622651834325 1298.668876221661
2013.1206879648653 1377.1364435898731
2013.7789521644736 1225.9379417590987
2014.4370578207036 1482.8119440525822
2015.0950049719922 1311.8208632181297
2015.7527936567585 1453.0044031051416
2016.4104239134067 1219.5847334963003
2017.067895780323 1722.7125745760216
2017.725209295886 1648.862598523537
2018.3823644984514 1574.7668266751975
2019.0393614263648 1256.14008831246
2019.6962001179545 1275.9192468689207
2020.3528806115355 1472.5441818198556
2021.0094029454067 1386.0259857512422
2021.6657671578487 1234.1499520719196
2022.321973287133 1308.6173215682834
2022.9780213715148 1295.533883221774
2023.6339114492293 1301.7920932169186
2024.2896435585026 1379.0540087525808
2024.9452177375442 1176.849520794002
2025.600634024544 1443.9936393467322
2026.2558924576842 1449.6967576198062
2026.9109930751292 1460.8466459232757
2027.565935915025 1265.08890283816
2028.2207210155066 1626.500995742628
2028.8753484146964 1677.0873753196163
2029.529818150695 1568.7871950982046
2030.1841302615903 1460.0342910154363
2030.8382847854573 1254.6931227173786
2031.4922817603601 1421.631798546915
2032.1461212243357 1294.2191296649964
2032.7998032154192 1243.088653427268
2033.4533277716218 1079.7254762547748
2034.1066949309443 1356.506337856261
2034.7599047313688 1166.3081783905395
2035.4129572108704 1418.1320414632062
2036.0658524074006 1318.9805138396841
2036.7185903589016 1476.4983146619638
2037.3711711032956 1327.6794451400028
2038.023594678496 1389.582338421675
2038.675861122394 1122.408460208047
2039.3279704728757 1145.7620506187272
2039.9799227678031 1169.2743248783713
2040.6317180450278 1341.53336616522
2041.2833563423865 1314.3855423054397
2041.9348376977014 1658.5285071368435
2042.5861621487784 1525.8757419644878
2043.2373297334088 1682.5846136573412
2043.8883404893695 1597.3758141568717
2044.5391944544208 1511.8358352925375
2045.1898916663158 1564.59822770278
2045.8404321627804 1632.9619139609779
2046.4908159815368 1251.2256445178323
2047.1410431602853 1221.7566843009486
2047.7911137367173 1177.599602357362
2048.441027748504 1187.7233919510932
2049.090785233302 1197.8127026280806
2049.7403862287592 1135.4913149111983
2050.389830772503 1133.7632653020244
2051.0391189021466 1132.0655726639102
2051.688250655294 1349.6215140570046
2052.337226069527 1223.3317979325507
2052.986045182417 1441.393313001394
2053.634708031521 1070.7817860880737
2054.283214654375 1447.0736461856136
2054.931565088511 1130.1499269549452
2055.579759371436 1031.7577938961003
2056.2277975406523 1314.0365259053465
2056.8756796336384 1452.9925559553924
2057.5234056878617 1129.062651455992
2058.1709757407752 1222.4363231551947
2058.8183898298194 1317.978798495683
2059.465647992416 1413.425360380291
2060.1127502659747 1584.7118062717084
2060.759696687888 1490.256635548926
2061.4064872955405 1395.7951948365023
2062.053122126292 1138.7110277345628
2062.699601217497 1337.3524377792087
2063.345924606485 1039.4748364648233
2063.992092330587 1313.2160241740114
2064.638104427102 1230.8717479927593
2065.283960933324 1512.9241289719016
2065.92966188653 1389.7594403598991
2066.5752073239855 1259.6846791280782
2067.2205972829397 1464.279768912239
2067.86583180062 1326.750412459011
2068.5109109142522 1369.4503480341361
2069.15583466104 1235.7671559127903
2069.8006030781708 1101.960812572928
2070.445216202821 1220.9623380367298
2071.089674072153 1394.7761124196961
2071.7339767233116 1606.3813885800387
2072.3781241934303 1344.7129674069888
2073.0221165196253 1483.4805345175366
2073.6659537390024 1338.0658645621052
2074.3096358886505 1389.0897475060679
2074.953163005637 1299.5920510114365
2075.596535127028 1149.382097823199
2076.2397522898664 1179.883672640798
2076.882814531182 1312.3835248751102
2077.5257218879924 1457.6601900432727
2078.1684743973 1224.5929568271213
2078.8110720960885 1420.4678557770915
2079.453515021336 1180.723144424044
2080.095803209997 1388.8059997647354
2080.7379366990135 1334.367500789563
2081.37991552532 1484.5879897197547
2082.0217397258275 1451.9547866442665
2082.6634093374414 1381.8850658522356
2083.3049243970418 1311.7971580640801
2083.9462849415067 1463.6305129435127
2084.587491007689 1385.0581615553206
2085.2285426324324 1436.9362788633243
2085.869439852564 1368.8106345227352
2086.510182704902 1280.9506988911455
2087.1507712262483 1415.181244172869
2087.791205453381 1175.4264246624637
2088.4314854230743 1365.3955848122628
2089.0716111720867 1337.5042394856673
2089.7115827371617 921.6848302205999
2090.351400155023 1102.0653062928268
2090.991063462385 1282.8225452917725
2091.6305726959527 919.5638454862128
2092.2699278924047 1355.3289102911356
2092.9091290884153 1210.8958102321408
2093.548176320641 1049.8243000897487
2094.187069625721 1064.4251493991142
2094.8258090402887 1079.0576780561778
2095.464394600951 1411.9510143685695
2096.102826344313 1337.2373781565852
2096.741104306955 1578.3624434058852
2097.379228525453 1252.0131632305533
2098.017199036358 980.267430532286
2098.6550158762147 1408.0091090562623
2099.2926790815527 1581.8156384996914
2099.9301886888825 1329.5671074448678
2100.5675447347076 1170.1719118855176
2101.2047472555114 1200.412856878911
2101.841796287761 1230.720375235734
2102.47869186792 1389.802503738037
2103.1154340324265 1135.9921388331443
2103.752022817709 1399.9532511119112
2104.388458260184 1257.488069310991
2105.024740396251 1299.391973378219
2105.660869262292 1170.842199327984
2106.296844894685 1500.563863071309
2106.93266732978 1421.0218929292791
2107.5683366039284 1233.6022115066228
2108.2038527534532 1353.7495693361402
2108.8392158146726 1343.431289190875
2109.4744258238843 1154.1030285637867
2110.1094828173755 1154.3746965657542
2110.744386831422 1257.0491694740347
2111.3791379022787 1360.0122707583091
2112.01373606619 1456.0144528666253
2112.648181359389 1409.569103849531
2113.28247381809 1446.5227111400484
2113.916613478492 1387.7380053708703
2114.550600376786 1446.4821635063545
2115.1844345491445 1178.372316927712
2115.818116031729 1098.161206339313
2116.451644860679 1283.21497531074
2117.085021072133 1186.9620785385036
2117.718244702204 1286.925131645616
2118.3513157869984 1102.4302561760405
2118.984234362604 973.792218529204
2119.617000465092 1043.0910172903298
2120.249614130529 1181.0399105155698
2120.8820753949585 1319.2085616359257
2121.5143842944162 1196.4362870595442
2122.14654086492 1333.746614410912
2122.7785451424734 1507.075997576739
2123.4103971630702 1455.2383364044028
2124.042096962681 1403.440240445239
2124.6736445772767 1585.31172198036
2125.305040042802 1484.36530728595
2125.936283395191 1383.140367599764
2126.567374670365 1397.3341073019953
2127.198313904233 1193.267202042793
2127.8291011326855 1169.765752396334
2128.4597363916037 1146.076124344072
2129.0902197168507 1313.6778829802627
2129.720551144279 1472.7253540475751
2130.3507307097225 1631.8990876217636
2130.980758449008 1475.9594808111324
2131.6106343979427 1503.6314918254504
2132.2403585923203 1531.2568296711484
2132.8699310679276 1623.125009693175
2133.499351860526 1276.8100967181686
2134.1286210058715 1276.1812372947452
2134.7577385397053 1373.0722012825524
2135.3867044977487 1470.1308406687053
2136.0155189157176 1579.9068912968692
2136.644181829308 1592.2626578097452
2137.2726932742025 1207.5048823188476
2137.901053286074 1516.9815910275652
2138.5292619005777 1071.4310849431772
2139.1573191533535 1223.1222732946915
2139.7852250800315 1468.1578956312655
2140.4129797162295 1458.1838351915233
2141.0405830975433 1124.4647750340232
2141.6680352595613 1179.12396433308
2142.2953362378576 1233.9012973422825
2142.9224860679915 1209.8356326346427
2143.549484785508 1175.6103221269275
2144.1763324259373 1246.3751604203985
2144.803029024799 1063.833264816815
2145.429574617594 1119.3179527420823
2146.0559692398165 1336.0129312485567
2146.682212926942 1230.316969130938
2147.308305714432 1312.4844055866245
2147.9342476377333 1557.468557640775
2148.5600387322847 1573.648895761652
2149.185679033506 1318.666592669141
2149.8111685768017 1220.1617427972815
2150.4365073975678 1092.2986276517922
2151.061695531187 1121.3215138608807
2151.686733013021 1515.856169253133
2152.311619878423 1459.8723033848262
2152.9363561627342 1224.5773985243195
2153.560941901278 1100.2337484126751
2154.1853771293663 1270.544661372517
2154.809661882293 1249.7398522530948
2155.433796195348 1624.3481870203805
2156.0577801037944 1539.1225022060985
2156.681613642895 1453.657598169358
2157.3052968478896 1160.956211596982
2157.928829754006 1524.2238762135732
2158.552212396462 1420.5714571340477
2159.1754448104566 1220.9892148586753
2159.7985270311783 1021.3188191507827
2160.4214590938027 876.3044830788892
2161.0442410334927 891.1752896311185
2161.6668728853874 973.3002125002165
2162.289354684628 1055.6130839310504
2162.911686466332 1303.7001886512717
2163.533868265602 1367.029141355125
2164.1559001175337 1514.665998778805
2164.7777820572046 1421.2124530091492
2165.399514119681 1365.208062526919
2166.021096340013 999.8927377831812
2166.6425287532384 1338.7476675462553
2167.263811394385 1037.98025654898
2167.8849442984574 1041.55785875344
2168.505927500455 1045.2498992611904
2169.126761035366 1422.4131983985778
2169.7474449381552 1144.4846956706851
2170.367979243778 1045.2257235426516
2170.9883639871823 1504.0486252448825
2171.608599203293 1155.719118631764
2172.2286849270276 1573.8912654900885
2172.8486211932886 1722.0543419986402
2173.4684080369625 1325.0413739001037
2174.0880454929265 1003.4857253284375
2174.7075335960417 945.2929422561652
2175.3268723811543 1041.0365650466729
2175.9460618831 1137.0359349213118
2176.565102136701 1190.2123701002743
2177.1839931767627 1233.596979976079
2177.802735038078 1277.1139653668522
2178.421327755432 1112.4067875688525
2179.0397713635866 909.9200399481263
2179.658065897298 1180.6845868879293
2180.276211391305 1494.831050494539
2180.8942078803357 1251.7586004820735
2181.5120553991 1474.1828998704282
2182.129753982299 1395.3707924303083
2182.7473036646206 1316.3891412137295
2183.3647044807367 1265.48432681223
2183.9819564653044 1043.6266573420994
2184.599059652968 1248.324934429305
2185.216014078367 1444.0996589257413
2185.832819776113 1461.3833513993436
2186.4494767808137 1478.624453919113
2187.065985127063 1365.164422380913
2187.682344849436 1248.6301087038812
2188.298555982501 1217.8754071184876
2188.9146185608097 1186.9905104809716
2189.530532618901 1325.126694013278
2190.1462981912937 1381.930246019645
2190.761915312507 1279.6961373512368
2191.377384017036 1355.7197028324417
2191.9927043393654 1254.7613850039984
2192.6078763139667 1465.3972536243691
2193.2228999753006 1081.7542275139667
2193.837775357808 1295.4294501333593
2194.452502495922 1105.1730340354975
2195.0670814240602 1207.6644524361398
2195.6815121766285 977.1513723929316
2196.2957947880186 946.5656246184229
2196.9099292926057 915.921427681553
2197.523915724758 1333.6041155975206
2198.137754118825 1167.045368078502
2198.7514445091456 1653.5143361965943
2199.3649869300443 1683.0071082310562
2199.9783814158327 1712.6394463545294
2200.5916280008096 1771.4471481705507
2201.2047267192593 1582.5264288117874
2201.8176776054515 1215.6497247708128
2202.430480693649 1078.348498237337
2203.0431360180955 1403.6791781961356
2203.6556436130195 1418.0557389767825
2204.268003512645 919.5227391408165
2204.8802157511727 1190.2284048391523
2205.492280362796 1239.4784922542485
2206.1041973816937 1288.9025031981555
2206.715966842032 1367.9103284793991
2207.3275887779655 1403.5507620611518
2207.93906322363 1309.8040828528872
2208.550390213153 1484.486095919517
2209.1615697806465 1508.532740181095
2209.7726019602105 1138.9385967754713
2210.3834867859277 1080.4575459105713
2210.9942242918787 1058.4675843148584
2211.6048145121167 1280.7403103432562
2212.2152574806914 1816.8877848454667
2212.825553231638 1222.4396277399235
2213.435701798975 1967.0879253544488
2214.045703216707 1301.625583448525
2214.655557518832 952.7288003165977
2215.2652647393297 1008.8699115005924
2215.874824912169 797.042247958492
2216.4842380713 905.2366514187428
2217.09350425067 1013.7596852526849
2217.7026234842033 1338.38117021499
2218.311595805819 1422.7825368505132
2218.9204212494133 1244.5860285536348
2219.52909984888 1621.9682074322623
2220.137631638092 995.4691093394019
2220.7460166509154 1606.7039599283385
2221.354254921198 1063.3789319421485
2221.9623464827764 1266.7320739286813
2222.5702913694713 1367.025870679993
2223.178089615096 1539.4023864151675
2223.7857412534486 1281.7816705928296
2224.39324631831 914.1937306334161
2225.000604843457 1245.1962287609988
2225.607816862641 1569.5127088564916
2226.214882409611 1345.472704249625
2226.8218015180973 1447.6311674617903
2227.4285742218217 1309.7446402168157
2228.0352005544864 1345.2553951011641
2228.6416805497847 1175.867579284964
2229.248014241399 1006.2689503106146
2229.8542016629945 1044.4847992414793
2230.460242848223 1285.7896136768206
2231.0661378307304 1143.6040803331123
2231.671886644139 1001.282550339491
2232.277489322065 1076.0040002818685
2232.8829458981127 890.6110054318245
2233.48825640587 1275.2270074711018
2234.0934208789095 1820.4730725561178
2234.6984393507955 1649.811186453039
2235.3033118550793 1360.8895939085191
2235.9080384252975 1164.9590868967466
2236.5126190949723 1008.1931868572428
2237.1170538976166 1022.1476528950467
2237.721342866729 1036.142157035556
2238.32548603579 1187.7192645448217
2238.9294834382763 1311.7024323979567
2239.533335107646 1306.8816192453119
2240.1370410773434 1215.4934182073248
2240.740601380803 1188.5509498911265
2241.3440160514474 1186.5541229676114
2241.9472851226783 1415.4251743682744
2242.550408627896 1265.0235367991022
2243.1533866004793 1261.6754284731055
2243.756219073799 1258.342932285582
2244.3589060812064 1061.7418432207
2244.961447656049 1062.691808014812
2245.5638438316564 1119.834993548819
2246.166094641343 1333.940102774207
2246.7682001184166 1213.8014076839374
2247.3701602961664 1057.868365568413
2247.971975207871 1382.396122587355
2248.5736448867974 1508.5035231276595
2249.175169366197 1193.2448600192954
2249.7765486793123 1192.7998306014115
2250.3777828593684 1295.026046203232
2250.9788719395783 1191.665114056314
2251.579815953146 1366.9625308567697
2252.1806149332606 1115.6457856197815
2252.781268913097 1323.8800004004988
2253.381777925817 1173.7777978642757
2253.9821420045737 1385.281298972903
2254.5823611825035 1401.1059292370155
2255.1824354927303 1321.1795623433688
2255.782364968365 1146.8198431555488
2256.38214964251 972.2545343190084
2256.9817895482483 1068.9800942655215
2257.5812847186553 1111.8449007476725
2258.180635186791 1181.8597761296364
2258.779840985704 1065.5697368006818
2259.37890214843 1191.4167947097335
2259.97781870799 1252.7308300299437
2260.5765906973957 1314.1647824701834
2261.175218149645 1390.793833790922
2261.773701097718 1290.819540912456
2262.3720395745895 1264.7104131514675
2262.970233613216 1238.5132832294908
2263.568283246548 1156.204485497979
2264.1661885075137 994.9317444659416
2264.763949429038 1106.327074059442
2265.3615660440246 1424.2194519620307
2265.959038385374 980.3209187790595
2266.5563664859637 1044.0903716138575
2267.153550378669 1108.0052310816236
2267.7505900963424 1506.1652497491714
2268.3474856718312 1178.4950060863184
2268.9442371379664 1146.1014834241919
2269.5408445275643 1292.291066967267
2270.1373078734377 1428.1298794067493
2270.7336272083758 1151.255290094843
2271.32980256516 1056.0037479502541
2271.925833976562 1329.9440176782769
2272.5217214753357 1342.030283857432
2273.117465094223 1079.182640106755
2273.7130648659586 1204.7744887807658
2274.308520823257 1142.8550491535689
2274.903832998827 1435.1124923404218
2275.4990014253563 1331.649749343014
2276.094026135528 1399.2804227469583
2276.6889071620117 1272.3432648896114
2277.2836445374614 1135.844391515009
2277.878238294519 1088.8028553607767
2278.472688465812 997.5007851426568
2279.066995083962 906.027210385101
2279.6611581815705 1182.7477663946572
2280.255177791232 1439.7235250964645
2280.8490539455233 1301.8461070205526
2281.442786677013 1519.8263876891087
2282.0363760182554 1269.150018381409
2282.6298220017943 1169.166901821816
2283.223124660155 1692.7464054000552
2283.816284025859 1071.8010387569527
2284.4093001314086 1562.1855087570016
2285.002173009292 980.42401413419
2285.5949026919952 1457.7790616886848
2286.1874892119777 1028.191539142473
2286.7799326016993 1271.1179220141178
2287.3722328936 854.3932128280567
2287.964390120109 837.9275952585546
2288.556404313642 1320.5298028585153
2289.1482755066027 1594.293349909781
2289.7400037313873 1242.2755357714686
2290.3315890203703 1085.4032018474495
2290.9230314059205 1114.7007599618466
2291.5143309203904 1144.080485115091
2292.1054875961236 1168.817562816686
2292.6965014654506 1565.8857949775438
2293.287372560684 953.8651704787414
2293.878100914131 1054.85750582892
2294.468686558086 1156.09948328388
2295.059129524827 1197.1401252275696
2295.649429846617 1147.4957573077027
2296.239587555716 1097.7112304322616
2296.8296026843636 1114.783604638804
2297.419475264791 1164.5704790314483
2298.0092053292137 1214.377813513134
2298.598792909839 1424.993374974534
2299.1882380388597 1382.8603138850817
2299.777540748455 1545.6735674558684
2300.3667010707904 1341.4320266236668
2300.9557190380256 1440.0813972892777
2301.544594682302 1244.229808003144
2302.1333280357503 1550.0387397668987
2302.721919130485 1371.7157905594065
2303.3103679986198 1538.1652146848999
2303.898674672242 1437.8785674839978
2304.486839183437 1150.8072704026845
2305.0748615642697 1090.6412057175423
2305.6627418468015 1312.8355960391887
2306.2504800630704 1139.836151038539
2306.8380762451143 1194.5063019677623
2307.425530424949 802.4479774702555
2308.012842634582 1244.2545107854776
2308.6000129060103 1722.758978214287
2309.187041271214 1893.6829965956142
2309.773927762164 1700.6996482420404
2310.3606724108213 1507.3074181230386
2310.9472752491274 1024.9078059727665
2311.5337363090184 1577.9286807268934
2312.120055622414 1243.1974347277674
2312.706233221221 1162.9253388272214
2313.2922691373424 903.8426966349746
2313.8781634026564 1040.295533109676
2314.463916049037 1177.0658061133795
2315.049527108342 1431.7286269247536
2315.6349966124235 1441.6518769170757
2316.2203245931123 1206.791175396354
2316.8055110822315 1450.746859659975
2317.3905561115935 1284.687543408692
2317.9754597129977 1011.5700544848039
2318.560221918229 1018.5011371195209
2319.1448427590603 1025.4701567788923
2319.729322267256 1059.8788329150193
2320.313660474563 1147.5989938124767
2320.8978574127195 1290.5127610952322
2321.481913113452 1433.8690955268216
2322.0658276084705 1082.1626132512722
2322.6496009294806 1093.7196056537337
2323.233233108165 1207.3765060579267
2323.8167241762058 1088.4398204492065
2324.4000741652617 1329.8503786163055
2324.983283106987 1281.178805221204
2325.5663510330232 1292.8155674576674
2326.1492779749933 1304.3276572444895
2326.7320639645204 1544.9179617664988
2327.3147090332004 1151.48568410813
2327.897213212629 1166.6710447359478
2328.4795765343843 1181.7884260669573
2329.0617990300307 1143.6412444706157
2329.643880731124 1445.407128166637
2330.22582166921 1050.3614425654182
2330.807621875816 976.6278939744537
2331.3892813824623 902.8597518249899
2331.9708002206517 1034.3274867160833
2332.5521784218818 1191.5897204214486
2333.133416017634 1349.2226490864218
2333.7145130393765 1207.6906222524174
2334.295469518571 1450.9194436849436
2334.876285486658 1505.3758880340367
2335.456960975076 1523.264267994999
2336.037496015242 1541.2190174774946
2336.6178906385667 1289.7083751554203
2337.198144876451 1238.1013773959799
2337.778258760278 1265.2867821441346
2338.3582323214214 1329.4552115208458
2338.938065591243 1393.7394053947073
2339.517758601087 1419.3974044021477
2340.0973113822965 1271.0194876809041
2340.676723966193 1332.7217474929853
2341.255996384094 1273.6519147743843
2341.835128667295 1274.9478393366926
2342.4141208470883 1276.2434423722095
2342.992972954751 1298.3300523581559
2343.5716850215467 1233.7622383027754
2344.1502570787306 710.8752679668859
2344.7286891575386 1067.6346325474951
2345.3069812892045 1637.0716738529318
2345.885133504944 1530.4980014291064
2346.4631458359618 1261.7190023603673
2347.04101831345 950.6732609567674
2347.6187509685915 1080.2807807825752
2348.196343832553 1154.202991430607
2348.7737969364935 1149.6674789500887
2349.351110311558 1143.4032697543785
2349.9282839888765 1007.8274529148205
2350.5053179995757 959.5647668482909
2351.0822123747585 1100.3184820901567
2351.658967145526 1330.693333034013
2352.2355823429643 1285.3884878623812
2352.812057998144 1240.072520893836
2353.3883941421263 1116.5647911637195
2353.9645908059647 1158.1525730525834
2354.540648020693 1199.8732381228679
2355.116565817336 1231.139712192697
2355.6923442269126 1152.2283842709523
2356.2679832804224 1073.1356932944848
2356.8434830088518 1205.119659786061
2357.41884344318 1048.8491493216732
2357.994064614377 990.5384049985408
