#exp_cfg={"servo_angle": 0.0, "laser_lim": 100.0, "servo_angle_to": 18.0, "laser_wup": 0.0, "bt_dev": "EnSpectr-25AE3", "laser_wdn_max": 0.0, "frames": 10.0, "servo_used": 0, "servo_calib_use": 0, "laser_wdn_min": 0.0, "servo_pix_from": 90.0, "cooler_tout": 300.0, "servo_angle_from": 0.0, "servo_calib": "[-1.9174921013161362e-09, 3.9322238269163779e-05, -0.27385609119055809, 653.59552119713567]", "laser_autoctl": 0, "servo_pix_to": 3682.0, "laser_pw": 100.0, "cooler_on": 0, "laser_volt": 4.0, "cooler_autoctl": 0, "cooler_curr": 70.0, "cooler_startup": 10.0, "laser_fixed_pw": 0, "gain": 1.3, "offset": 2.53059635486, "servo_calib_degree": 3.0, "laser_curr": 55.0, "shutter": 8200.0, "servo_calib_step": 1.0, "laser_fixed_curr": 0, "exp": 2000.0, "ccd_volt": 4.7, "bt_addr": "00:06:66:62:5A:E3", "servo_delay": 500.0, "laser_autooff": 1}
#proc_cfg={"flat_auto_wnd": 200.0, "flat_auto_fr": 200.0, "flat_auto_shift": 5.0, "yconv": 1, "flatten": 1, "flatten_strength": 100.0, "xfrom": 300.0, "auto_max_frame": 2000.0, "auto_signal": 48000.0, "flat_auto_tol": 0.1, "autoclip": 1, "xrel_range": 0.0, "flat_auto_to": 4000.0, "intensity_adj": 1.0, "xrel": 7852.0, "rmhot": 1, "flat_auto_slit": 4.999999999999997, "auto_ini_exp": 300.0, "auto_off": 0, "xto": 2860.0, "flat_auto_ref": "", "flat_auto_rank": 1, "autobackg": 0, "xrel_adj": 0.0, "auto_black_lvl": 1, "base_wnd": 100.0, "sub_baseline": 0, "xconv": 2, "auto_max_exp": 1000.0, "auto_total_exp": 10000.0, "auto_exp": 0, "rmripple": 0, "black_lvl": 8268.2125, "shutter_clip_adj": 0.0, "auto_bckg": 0, "flat_auto_thr": 0.9, "subbackg": 1}
316.8218498245369 13835.04468457412
317.89969571804795 13724.296530507625
318.977263876126 13694.138383428406
320.05455438786703 13633.863975774735
321.1315673423287 13638.813873136436
322.2083028285215 13682.807948265481
323.2847609354267 13490.19148347752
324.3609417519747 13460.140002451222
325.43684536705587 13368.399989821288
326.5124718695279 13467.390665374598
327.58782134820103 13306.623606840778
328.66289389184385 13310.898672808864
329.7376895891921 13153.174448696605
330.8122085289342 13206.562580799437
331.88645079971866 13242.06043041978
332.9604164901575 13138.17047021809
334.03410568881554 13052.827372079528
335.1075184842266 13242.13937766245
336.18065496487543 13003.731265654333
337.2535152192122 13021.481746933212
338.32609933564163 13045.190966325143
339.39840740253203 12840.371185382237
340.4704395082099 12915.394790156926
341.5421957409617 12933.611684045267
342.6136761890357 12945.932036046559
343.6848809406365 12837.943923416435
344.75581008392874 12804.217426704652
345.82646370703696 12766.739325957518
346.8968418980512 12786.411292323568
347.96694474501055 12809.33543505813
349.0367723359268 12763.755565579979
350.106324758759 12692.367534859684
351.1756021014353 12556.336282642831
352.2446044518383 12599.95268381181
353.31333189781435 12641.580244488137
354.38178452716966 12605.849610599373
355.449962427665 12532.36182703968
356.51786568702846 12529.82651357442
357.58549439294256 12651.157067474607
358.6528486330535 12635.145247065142
359.71992849496564 12470.07920845968
360.7867340662433 12527.187361838161
361.8532654344144 12558.111435174991
362.9195226869597 12628.203749997112
363.9855059113288 12502.324890088581
365.05121519492604 12430.27331309999
366.11665062511565 12534.16285651764
367.1818122892273 12532.82401763658
368.2467002745434 12528.219646040654
369.31131466831175 12514.95632695292
370.375655557742 12548.471393920328
371.4397230299983 12420.456814883019
372.5035171722102 12363.64761187694
373.5670380714637 12363.314425388578
374.6302858148101 12491.0539027487
375.6932604892554 12428.939535481995
376.7559621817709 12461.655322299961
377.81839097928605 12318.793027828335
378.8805469686886 12360.059757953775
379.94243023683157 12458.569081058542
381.0040408705263 12325.936070041553
382.0653789565458 12248.75342651838
383.1264445816196 12269.45211791682
384.1872378324406 12197.558817276204
385.2477587956637 12242.736539895017
386.3080075579037 12147.283809126377
387.3679842057336 12052.197311031043
388.4276888256918 12140.671269188051
389.48712150426945 12086.273459932567
390.54628232792857 12130.420871522412
391.6051713830857 11996.319149031091
392.66378875611736 12034.222725367788
393.7221345333637 11899.962006086524
394.7802088011249 11948.863182194964
395.838011645661 11968.73114624525
396.89554315319765 11936.99082527692
397.9528034099112 11812.675399266816
399.00979250194723 11791.501628018443
400.06651051541485 11784.068165706505
401.1229575363741 11810.538573151623
402.17913365085224 11789.363924819369
403.23503894483656 11877.406988231753
404.2906735042761 11706.208421319829
405.3460374150818 11598.121691016266
406.401130763119 11677.600746719596
407.455953634224 11731.414024876827
408.5105061141876 11663.4649027481
409.56478828876243 11567.582297296012
410.6188002436629 11545.11454182414
411.6725420645689 11529.379362744035
412.72601383711117 11489.3409177225
413.77921564689314 11616.783607355626
414.8321475794728 11493.963422848921
415.88480972036814 11364.428203552687
416.93720215506437 11439.146081896735
417.9893249690049 11414.626567118592
419.04117824759123 11310.869849415305
420.09276207619223 11309.511619531073
421.144076540133 11369.095220231819
422.1951217247042 11289.636947306257
423.24589771515275 11285.093643616063
424.2964045966928 11260.32293403645
425.34664245449494 11256.619072006612
426.3966113736933 11285.81367194646
427.4463114393875 11198.016113197262
428.49574273662984 11223.547279476259
429.5449053504417 11150.287457972237
430.5937993658026 11240.263118963938
431.6424248676558 11150.437831659965
432.6907819409007 11171.982582694529
433.73887067040596 11139.984789257931
434.7866911409965 11166.004598251942
435.8342434374608 11043.795852212717
436.88152764455117 11091.696302129596
437.9285438469724 11082.1106693828
438.9752921294057 11085.731504361445
440.02177257648145 11011.765086682979
441.06798527279716 10921.26228442803
442.1139303029122 11117.01573361381
443.1596077513459 11082.907826764644
444.2050177025794 10956.280766729002
445.25016024105753 11037.674184083326
446.2950354511886 10987.452954615355
447.33964341733736 10985.64077434874
448.383984223834 10874.552946727235
449.4280579549686 10911.535077120574
450.471864694995 10914.512001288604
451.5154045281306 10996.805076610564
452.5586775385509 10933.834669940656
453.60168381039693 10966.188138737594
454.64442342776783 10993.413715804596
455.6868964747264 10966.47216365574
456.7291030353008 10886.778268075279
457.77104319347563 11015.33704640036
458.8127170332027 10966.59001357013
459.854124638392 10983.940104741554
460.895266092919 11070.004116533006
461.93614148061897 11105.7880570178
462.97675088529104 11161.482913108408
464.01709439069236 11106.576767795617
465.0571720805492 11071.986688297187
466.0969840385442 11132.902285591266
467.1365303483253 11331.14913800679
468.17581109350067 11230.394956494925
469.2148263576437 11216.99060735281
470.2535762242878 11314.730085068135
471.29206077693016 11410.364429103389
472.33028009902773 11431.51652911974
473.3682342740012 11353.211108808093
474.40592338523857 11379.673192302409
475.4433475160804 11389.2876925005
476.4805067498364 11437.094398799383
477.51740116978 11338.638680772061
478.5540308591426 11533.908450155286
479.59039590112116 11591.47134972654
480.6264963788726 11562.875798801011
481.6623323755193 11673.475550622366
482.6979039741436 11726.783168177928
483.7332112577915 11846.8521463398
484.76825430947247 12002.348307183713
485.80303321215797 12000.872085072104
486.837548048783 12159.774556514933
487.8717989022425 12158.19646652418
488.90578585539697 12189.999688467753
489.9395089910686 12223.910994855638
490.97296839203955 12202.24936578693
492.00616414106116 12023.288929549395
493.0390963208429 12028.323280712322
494.0717650140559 11976.14350517187
495.10417030333883 11922.93122300059
496.1363122712901 11827.482930447954
497.16819100046814 11637.200496242425
498.1998065734024 11548.59892707302
499.2311590725767 11446.018236109685
500.26224858044407 11276.295354059153
501.2930751794156 11257.844532466275
502.3236389518679 11222.57301111757
503.35393998014115 11034.716613859498
504.38397834653733 11084.07529621988
505.4137541333221 11080.894116164285
506.4432674227228 10942.869770248362
507.4725182969323 10903.091106968448
508.5015068381035 10895.283689777232
509.53023312835467 10894.32987614198
510.55869724976765 10841.544852639438
511.58689928438434 10786.45084020449
512.6148393142121 10680.14777946987
513.6425174212218 10800.406807605375
514.6699336873462 10779.817371901805
515.6970881944835 10822.243354305876
516.7239810244901 10732.870415662434
517.7506122591931 10803.110961044076
518.7769819803761 10772.299520586399
519.8030902697901 10767.988291872327
520.8289372091476 10833.282494127741
521.8545228801249 10878.168763333517
522.8798473643619 10756.310338324492
523.9049107434621 10825.596753937336
524.9297130989908 10762.699022102232
525.9542545124805 10852.608140660108
526.9785350654201 10794.326727024814
528.0025548392696 10860.201440269879
529.0263139154504 10671.306129350898
530.0498123753423 10823.782087983813
531.073050300296 10742.344203111987
532.0960277716204 10725.238180424098
533.1187448705896 10700.78676115222
534.1412016784416 10708.262452155925
535.1633982763833 10635.553254727973
536.1853347455726 10594.053533174569
537.2070111671401 10532.462127210792
538.2284276221817 10561.38228557325
539.2495841917516 10492.230113514464
540.2704809568677 10439.315505486597
541.2911179985167 10549.477618174626
542.3114953976419 10402.094344394385
543.3316132351592 10336.247318011847
544.3514715919409 10367.117736632139
545.3710705488247 10334.987014631615
546.3904101866156 10324.862420707988
547.4094905860784 10358.053210904789
548.4283118279418 10369.098544774864
549.4468739929034 10348.911771481058
550.4651771616191 10334.810529012979
551.4832214147063 10345.25505232205
552.501006832761 10428.361331145872
553.5185334963226 10347.593959215255
554.5358014859103 10423.334070172608
555.5528108820035 10305.204535512747
556.5695617650363 10249.386195411707
557.5860542154242 10353.236542411638
558.6022883135283 10346.544268872676
559.6182641396881 10257.988062282944
560.6339817741991 10402.795700667053
561.6494412973225 10283.10398557175
562.6646427892883 10404.253127978802
563.6795863302796 10284.191182166975
564.694272000459 10269.560418850862
565.7086998799423 10438.030766957847
566.7228700488104 10296.722084533158
567.7367825871115 10236.768456002534
568.7504375748576 10248.664627591224
569.7638350920224 10229.672168132445
570.7769752185486 10211.605110030941
571.7898580343353 10199.231567468098
572.802483619258 10115.997804683933
573.8148520531431 10326.247386996198
574.8269634157932 10241.124586443306
575.8388177869692 10219.219377118327
576.8504152463938 10145.238531960647
577.8617558737587 10362.452538899563
578.8728397487175 10217.352674973661
579.883666950891 10178.920908115582
580.8942375598654 10418.095194213203
581.9045516551851 10414.029526534501
582.9146093163617 10615.78649049077
583.924410622878 10423.236380971672
584.9339556541727 10519.20292707576
585.9432444896538 10586.651242511489
586.9522772086875 10553.11706351276
587.9610538906127 10622.081094833618
588.9695746147318 10522.54135332951
589.9778394603054 10506.471487393366
590.985848506567 10383.596303603257
591.9936018327098 10430.817565781286
593.0010995178891 10241.096536875166
594.0083416412344 10241.16240401202
595.0153282818283 10107.690198084727
596.0220595187293 10100.26223543424
597.0285354309508 10048.664627238382
598.0347560974806 9974.87125326545
599.0407215972609 9979.334317001289
600.0464320092051 9900.598166762637
601.0518874121954 9940.982692576894
602.0570878850685 9924.04876144866
603.062033506636 9969.268996505887
604.0667243556636 9894.623412016479
605.0711605108936 9838.558292938835
606.0753420510264 10065.26943745941
607.0792690547278 10021.274470992103
608.082941600629 9941.410661796957
609.0863597673306 10044.461451016436
610.0895236333909 10127.797480686248
611.0924332773357 10335.354678053214
612.0950887776617 10268.24410054189
613.0974902128219 10384.368116213389
614.0996376612384 10517.57463135428
615.1015312013005 10623.579045141145
616.1031709113595 10732.272266825663
617.1045568697336 10737.649721917707
618.1056891547069 10901.259050051174
619.1065678445229 11145.337405256736
620.1071930173985 11358.995501317542
621.1075647515099 11381.158412118077
622.1076831250048 11469.499890274827
623.1075482159849 11519.919085039352
624.1071601025305 11593.955153047358
625.1065188626781 11642.332715956165
626.105624574433 11880.061506094198
627.1044773157682 11861.587865477073
628.1030771646128 11877.51320787926
629.1014241988742 11950.703014805691
630.0995184964158 12007.292708046829
631.0973601350688 12064.157588029952
632.0949491926294 12182.899241440446
633.0922857468631 11924.19209451797
634.089369875499 12058.80759792127
635.0862016562278 12011.576199358398
636.0827811667077 11778.225518475087
637.0791084845641 11813.374913963056
638.0751836873878 11610.663114805242
639.0710068527369 11683.767262953963
640.0665780581294 11424.690675169575
641.0618973810506 11372.407739968756
642.0569648989604 11313.210876770936
643.0517806892676 11070.2629627664
644.0463448293649 10925.51661944269
645.040657396592 10912.007145823673
646.0347184682723 10783.32298360406
647.0285281216875 10589.880233685326
648.0220864340772 10488.998833924847
649.0153934826558 10441.660078571007
650.0084493446047 10370.83184344973
651.0012540970674 10308.748563163139
651.9938078171526 10169.138809708142
652.9861105819346 10135.92770845685
653.9781624684565 10169.896763461975
654.9699635537254 10014.096744317296
655.9615139147136 10022.947694973318
656.9528136283589 9880.484759706125
657.9438627715699 9967.410809725996
658.9346614212154 9889.528823035658
659.925209654135 9694.958704168297
660.9155075471263 9757.153942125311
661.9055551769616 9689.85496061148
662.895352620375 9812.026099143954
663.8848999540678 9588.470978187313
664.8741972547068 9589.261690873765
665.863244598926 9496.80187313694
666.8520420633213 9607.571627077956
667.8405897244611 9395.967936364492
668.8288876588758 9384.994714234865
669.8169359430613 9450.794030161444
670.8047346534822 9432.458094378819
671.7922838665672 9304.170240427899
672.7795836587156 9368.012571636715
673.766634106285 9495.748628533029
674.7534352856092 9280.789305565038
675.7399872729766 9345.475641608076
676.7262901446538 9329.623915423737
677.712343976862 9338.289655983457
678.6981488457986 9383.461322949162
679.6837048276229 9275.583153750384
680.6690119984596 9254.031941806365
681.6540704344043 9284.903917589461
682.6388802115107 9220.227209465516
683.6234414058108 9193.617984033252
684.6077540932874 9193.495545413969
685.591818349907 9254.225546682681
686.575634251587 9319.97150896742
687.5592018742263 9210.660442625292
688.5425212936734 9115.253860898143
689.5255925857564 9279.107531623375
690.5084158262707 9238.787110526802
691.4909910909646 9183.822568389038
692.4733184555644 9120.299040066335
693.4553979957618 9267.473164608606
694.4372297872123 9310.640859683659
695.4188139055404 9284.162835057981
696.4001504263324 9198.710086695046
697.3812394251509 9273.95337883285
698.3620809775111 9240.636294729446
699.3426751589104 9307.532702034112
700.3230220448004 9294.577334065863
701.3031217106054 9385.360249349502
702.2829742317172 9541.811533669827
703.2625796834873 9347.80760860048
704.2419381412474 9383.817505917204
705.22104968028 9577.946223073901
706.1999143758458 9630.326348701892
707.178532303169 9694.300535902124
708.1569035374378 9819.397955717957
709.1350281538107 10010.423219304848
710.1129062274158 10168.73046553175
711.0905378333373 10505.464284856042
712.0679230466376 10722.769934303476
713.0450619423427 11091.723415496988
714.0219545954424 11474.294249882025
714.9986010808989 11714.540614946547
715.9750014736292 12169.366711562701
716.9511558485392 12599.564049268982
717.9270642804786 12765.234512525745
718.9027268442787 13027.891534273827
719.8781436147328 13120.845185099945
720.8533146666014 13109.910622893827
721.828240074612 13128.292806601976
722.8029199134635 12952.910431771868
723.7773542578125 12687.973040923946
724.751543182294 12458.063794976137
725.7254867615029 12203.446743063558
726.6991850700015 11851.914324176678
727.6726381823228 11723.882030309866
728.6458461729599 11561.428309288627
729.6188091163858 11403.50371339737
730.5915270870246 11366.875259205914
731.5640001592856 11229.025251356237
732.536228407529 11335.19133427166
733.5082119060917 11466.475770467488
734.4799507292755 11300.207386945485
735.4514449513481 11408.68114323866
736.4226946465496 11491.582166061207
737.3936998890786 11446.670819318035
738.3644607531078 11224.691819021666
739.3349773127793 11104.678696254085
740.3052496421951 10999.541060907464
741.27527781543 10788.616384032415
742.2450619065221 10400.765251502837
743.2146019894826 10268.698585718861
744.183898138288 10088.195559526512
745.1529504268801 9921.88152036375
746.1217589291682 9518.854668755925
747.0903237190341 9481.52692953773
748.058644870318 9322.469472298442
749.0267224568397 9300.474251436504
749.994556552374 9043.859820661923
750.9621472306771 8992.511219587226
751.9294945654583 8933.71907895918
752.8965986304011 8888.724536296037
753.8634594991636 8762.5627575362
754.8300772453586 8881.37354275175
755.7964519425768 8798.423595208218
756.762583664371 8791.967062359128
757.7284724842611 8715.584603590418
758.6941184757416 8639.155763076691
759.6595217122667 8677.729415704172
760.6246822672638 8713.258114756178
761.5896002141235 8599.45153970213
762.5542756262093 8589.398274969495
763.5187085768503 8624.720696617853
764.4828991393406 8615.590527072092
765.4468473869474 8586.239612093566
766.4105533929032 8598.314252931177
767.3740172304078 8488.854560920448
768.3372389726283 8611.314304322044
769.3002186926988 8438.57744740989
770.2629564637282 8446.43559968314
771.2254523587872 8429.27646831447
772.1877064509154 8370.133865760688
773.1497188131179 8264.26207834018
774.1114895183728 8256.926361518043
775.0730186396268 8264.584458216937
776.0343062497905 8209.196935938342
776.9953524217381 8177.512307901385
777.9561572283274 8311.062303850882
778.9167207423689 8215.007373865537
779.8770430366476 8166.287604298288
780.8371241839159 8187.338678677191
781.7969642568951 8174.742456213174
782.7565633282757 8380.610206518639
783.7159214707099 8159.336664688749
784.6750387568281 8255.220137392113
785.6339152592227 8193.597113099018
786.5925510504512 8222.530167020715
787.5509462030477 8258.655603334459
788.5091007895098 8180.862766038741
789.4670148823006 8155.065677036939
790.4246885538596 8213.458728557298
791.3821218765861 8208.675591652509
792.3393149228505 8133.744924193843
793.2962677649975 8221.508282163077
794.2529804753303 8174.895485415616
795.20945312613 8223.683852692624
796.1656857896378 8116.934054998244
797.1216785380675 8093.704431446238
798.0774314435985 8276.095397373134
799.0329445783846 8354.639080059209
799.9882180145414 8311.441206954736
800.9432518241574 8207.41257274312
801.89804607929 8352.399170789433
802.852600851962 8436.271761023327
803.8069162141637 8404.624079446003
804.760992237856 8435.154376406008
805.714828994971 8564.839323485212
806.6684265574077 8579.095934698875
807.6217849970271 8546.2541655267
808.574904385674 8454.007849224816
809.527784795142 8571.579201511742
810.4804262972102 8596.140053915946
811.4328289636178 8429.660290761272
812.3849928660748 8327.621608340358
813.3369180762638 8338.045271095181
814.2886046658241 8351.777470074447
815.2400527063783 8168.956808427315
816.1912622695108 8135.64132154258
817.1422334267718 8236.327604949543
818.0929662496856 8087.030506618535
819.0434608097457 7867.870887204444
819.9937171784059 7958.114274675117
820.9437354271013 7866.4014324699
821.8935156272255 7930.85445667545
822.8430578501484 7775.705463812471
823.7923621672016 7637.684191649112
824.7414286496896 7766.436648590456
825.6902573688876 7803.40213178568
826.6388483960363 7838.020698985328
827.5872018023492 7654.991141132443
828.5353176590033 7741.654550497546
829.4831960371503 7686.382113353288
830.4308370079016 7595.902065335863
831.3782406423525 7705.904917499027
832.3254070115545 7680.511882430159
833.2723361865319 7584.706748934043
834.2190282382799 7531.985010616627
835.1654832377644 7659.157645632859
836.1117012559116 7519.754393927637
837.0576823636256 7736.932151424122
838.003426631778 7579.57709682996
838.9489341312074 7476.120601974806
839.8942049327197 7657.991743448571
840.8392391070975 7696.304319135068
841.7840367250865 7613.620557762066
842.7285978573982 7567.9479089824
843.672922574724 7710.632073665259
844.6170109477152 7619.143533594417
845.560863046996 7632.611110232679
846.5044789431595 7583.652183826812
847.4478587067697 7567.510843029064
848.3910024083561 7764.774890747854
849.333910118421 7552.310020601889
850.2765819074339 7568.739216739748
851.2190178458332 7706.46489622285
852.161218004032 7703.932611190494
853.1031824524016 7611.531200592335
854.0449112612987 7617.245083630905
854.9864045010327 7666.762222709744
855.9276622418947 7587.304788779448
856.8686845541379 7608.956501439879
857.8094715079915 7602.6284674388635
858.7500231736467 7622.851952274938
859.690339621271 7704.259763886662
860.6304209209939 7628.729597727333
861.5702671429244 7458.611274887805
862.5098783571284 7699.539495132808
863.4492546336569 7691.251453171569
864.3883960425155 7660.689241868892
865.3273026536863 7661.222199065363
866.2659745371238 7680.660047442722
867.2044117627465 7805.362966894507
868.1426144004472 7683.679423076741
869.0805825200823 7780.41827064668
870.0183161914847 7808.987594188276
870.9558154844526 7832.49674887903
871.8930804687552 7817.007931425995
872.8301112141307 7805.39582230744
873.7669077902865 7873.315023919106
874.7034702669062 7981.941812816377
875.6397987136315 7862.743686723346
876.5758932000863 7998.440633267159
877.5117537958522 8040.7671494551105
878.4473805704911 7972.509405158302
879.3827735935283 7959.248181229491
880.3179329344603 8150.355581019957
881.2528586627541 8128.253330352144
882.1875508478479 8193.87837151578
883.1220095591489 8050.856741776665
884.0562348660296 8009.000258995977
884.9902268378391 8152.794970675551
885.9239855438955 8024.179798401246
886.8575110534839 7973.312134461941
887.7908034358588 8006.789279586815
888.7238627602474 7973.272641374964
889.6566890958475 7975.628163865183
890.5892825118208 7802.743869941766
891.5216430773125 7840.07646445531
892.4537708614189 7859.758012302683
893.3856659332196 7779.488498190051
894.3173283617652 7696.263074616414
895.2487582160684 7730.259593777277
896.179955565116 7710.261346532158
897.110920477864 7559.291701163585
898.0416530232451 7553.123817038718
898.9721532701478 7521.899310514336
899.9024212874428 7666.304592563916
900.8324571439662 7544.750388155958
901.7622609085302 7483.745045360575
902.6918326499072 7462.754380290683
903.6211724368477 7490.231252302336
904.5502803380696 7592.961946471868
905.4791564222614 7631.568430667308
906.4078007580792 7471.625262644508
907.3362134141571 7498.305772012971
908.2643944590909 7622.6262253940495
909.1923439614493 7442.899773380986
910.1200619897754 7478.644338857523
911.0475486125779 7638.555293101516
911.9748038983344 7576.489466642342
912.9018279155007 7543.068760516401
913.8286207324982 7431.52976831423
914.7551824177117 7573.336644537672
915.6815130395116 7464.584642691065
916.6076126662283 7436.071569178552
917.533481366163 7459.6329785373655
918.4591192075914 7463.869657460922
919.3845262587565 7528.338164019154
920.3097025878706 7351.323623192223
921.2346482631237 7342.3578941487185
922.1593633526682 7379.621463208699
923.0838479246304 7432.469275848596
924.0081020471061 7504.3221485660715
924.9321257881656 7358.114985359514
925.8559192158464 7338.793643847397
926.7794823981512 7290.796885395689
927.7028154030686 7234.979498053848
928.6259182985414 7202.250303742141
929.5487911524906 7386.3820676422065
930.4714340328119 7379.146492155084
931.3938470073608 7215.9146808027435
932.3160301439748 7215.466333992006
933.2379835104548 7296.752105525009
934.1597071745709 7380.372039330873
935.0812012040769 7273.607556039521
936.002465666681 7416.366710076477
936.9235006300696 7361.633644084855
937.8443061619055 7358.236237086402
938.7648823298077 7214.995945105099
939.6852292013809 7285.473369355996
940.6053468441951 7374.6119427104295
941.5252353257874 7342.506611684243
942.4448947136698 7336.006859779193
943.364325075323 7299.665663044907
944.2835264782043 7361.31572024818
945.2024989897309 7368.8207819754725
946.1212426773054 7398.466442257656
947.0397576082851 7531.015771132222
947.9580438500125 7681.58136209457
948.8761014697939 7610.905549304518
949.7939305349064 7616.186134199978
950.7115311125999 7505.400620159022
951.6289032700952 7568.619937717793
952.5460470745875 7740.927533915284
953.4629625932339 7611.010192932625
954.3796498931715 7654.46833862138
955.2961090415029 7696.969701583385
956.2123401053068 7636.093799113047
957.1283431516276 7592.4769237866
958.0441182474842 7521.645269914761
958.9596654598663 7659.45751262519
959.8749848557309 7597.016691006211
960.7900765020167 7551.901131736055
961.7049404656209 7482.060633373198
962.6195768134185 7585.288686420038
963.5339856122537 7466.58328821285
964.4481669289453 7525.295235288228
965.3621208302793 7441.086208511279
966.2758473830145 7453.203756264037
967.1893466538822 7576.378586845467
968.1026187095813 7438.036096824881
969.0156636167867 7411.3563893421015
969.9284814421426 7471.495542885791
970.8410722522622 7369.93234586972
971.753436113735 7410.10146157232
972.6655730931161 7319.546765335775
973.5774832569368 7434.468436096043
974.4891666716958 7321.185570642045
975.4006234038698 7271.789179742002
976.3118535198955 7208.40390732467
977.2228570861935 7410.317768438608
978.1336341691494 7379.972112381109
979.0441848351202 7211.162248910227
979.9545091504333 7377.128891266968
980.864607181391 7306.784546157333
981.7744789942699 7299.249509579992
982.6841246553086 7297.730613001035
983.5935442307236 7300.110428221687
984.5027377867027 7336.32688554796
985.4117053894024 7299.681696312579
986.3204471049557 7287.708846121668
987.2289629994648 7382.36638500742
988.1372531390007 7439.503099865465
989.0453175896091 7362.543144025818
989.9531564173067 7433.195501246584
990.860769688079 7267.979786269035
991.7681574678918 7348.672871377911
992.6753198226706 7430.403953254725
993.582256818323 7351.553037578032
994.4889685207218 7324.532618217529
995.3954549957143 7572.542661590184
996.301716309119 7476.588024894666
997.2077525267232 7375.050567144605
998.1135637142943 7397.068277963612
999.0191499375615 7537.655822827672
999.924511262232 7516.904649312583
1000.8296477539861 7491.154551461796
1001.7345594784656 7373.774212411229
1002.6392465012996 7408.012246208617
1003.5437088880753 7505.342549061136
1004.4479467043584 7436.055107606243
1005.3519600156869 7266.48988156214
1006.2557488875718 7448.638890634036
1007.1593133854858 7432.452407763111
1008.0626535748888 7324.441527437109
1008.9657695212009 7187.150548697539
1009.8686612898182 7503.150642427558
1010.7713289461135 7446.237952253221
1011.6737725554212 7293.206576980568
1012.5759921830577 7316.084538862543
1013.4779878943027 7242.716467195681
1014.379759754418 7298.89884979451
1015.2813078286254 7289.259986797164
1016.18263218213 7162.726883409897
1017.0837328801026 7227.958022312538
1017.9846099876886 7318.339935811894
1018.8852635700023 7157.383424628644
1019.7856936921362 7107.676018545809
1020.6859004191447 7238.114889922363
1021.5858838160675 7113.207890962144
1022.4856439479063 7088.5740052519595
1023.3851808796389 7102.516605319793
1024.2844946762143 7223.240948907363
1025.183585402554 7126.252865047635
1026.082453123554 6888.5810397212745
1026.9810979040776 7065.006991754852
1027.8795198089647 6989.244541534955
1028.777718903024 7026.774555838923
1029.6756952510368 6971.886509331611
1030.5734489177648 6954.876170874324
1031.4709799679313 6992.708805233495
1032.3682884662358 7151.836678624279
1033.2653744773506 6878.929599231179
1034.1622380659192 6924.281760181577
1035.058879296559 7053.6216012648565
1035.9552982338591 7160.528069364227
1036.8514949423825 7002.78151114192
1037.7474694866614 7002.398109531413
1038.6432219312028 6964.659443687198
1039.5387523404825 7154.692499473147
1040.4340607789582 7074.5280062252
1041.3291473110476 7032.2981151294425
1042.2240120011465 7107.787758041845
1043.1186549136273 7090.885207781537
1044.0130761128294 7094.754185402067
1044.9072756630649 7079.990648361118
1045.8012536286205 7256.275314020265
1046.6950100737577 7197.937767538936
1047.588545062701 7324.263560520296
1048.481858659663 7269.038210685702
1049.3749509288118 7409.527385841854
1050.2678219343034 7303.016884241295
1051.1604717402515 7310.371740531113
1052.0529004107575 7233.266533218906
1052.9451080098825 7447.126412001261
1053.8370946016694 7391.980972919717
1054.7288602501267 7351.199284840759
1055.6204050192446 7412.853485938224
1056.511728972977 7462.036939153181
1057.402832175254 7445.0797913445695
1058.2937146899785 7292.421185705287
1059.1843765810263 7254.14220695844
1060.0748179122456 7438.983120832755
1060.9650387474576 7348.4466443282845
1061.855039150456 7335.734661297511
1062.7448191850071 7344.555056776287
1063.6343789148505 7336.271278625228
1064.5237184037014 7453.949486215073
1065.412837715241 7325.612211304704
1066.3017369131267 7189.381186602579
1067.190416060992 7190.522388656287
1068.0788752224398 7247.8098584761565
1068.9671144610438 7151.705735391454
1069.8551338403558 7326.427242134554
1070.7429334239023 7334.565028957544
1071.6305132751695 7185.489815509842
1072.517873457633 7288.505873489448
1073.4050140347335 7199.873941324187
1074.2919350698776 7283.562863644795
1075.1786366264623 7260.817639996625
1076.0651187678395 7254.2310870764195
1076.95138155735 7201.554851600522
1077.8374250582929 7205.791312475703
1078.7232493339507 7380.312956388082
1079.608854447577 7331.707904953723
1080.4942404623907 7321.879778821129
1081.3794074415982 7423.493409613175
1082.2643554483657 7428.336178018102
1083.149084545841 7402.9612469041385
1084.033594797138 7378.484364387255
1084.9178862653516 7463.1742032288985
1085.8019590135427 7725.29283928242
1086.6858131047484 7512.956005491319
1087.5694486019802 7676.537278866691
1088.4528655682225 7639.740963273785
1089.3360640664287 7837.498951164684
1090.2190441595321 7753.323959003993
1091.1018059104317 7759.721101596748
1091.98434938201 8000.913702066835
1092.866674637111 8003.103497955109
1093.748781738559 7884.054324785502
1094.6306707491512 7690.57665978862
1095.5123417316554 7982.7606308371805
1096.3937947488157 7774.446835429485
1097.2750298633455 7696.334987031511
1098.156047137938 7690.637233652924
1099.0368466352556 7759.912910289473
1099.9174284179317 7758.455234707745
1100.7977925485757 7410.908197029184
1101.6779390897755 7446.896146590513
1102.5578681040806 7434.481415511279
1103.4375796540226 7408.0327109396285
1104.3170738021054 7265.797075604429
1105.1963506108077 7185.384811327768
1106.0754101425773 7216.9714001290795
1106.9542524598382 7151.358227091655
1107.8328776249855 7135.2015409151645
1108.7112857003904 7054.446250618486
1109.5894767483987 7071.449033525003
1110.4674508313292 7182.542931835336
1111.3452080114657 7011.2346358567665
1112.2227483510815 7047.088556988722
1113.1000719124077 7086.066754227815
1113.9771787576592 7162.891472325394
1114.854068949022 7048.550377383205
1115.7307425486542 7134.371576716109
1116.6071996186893 7189.714193610789
1117.483440221229 7372.621861506028
1118.3594644183577 7212.339054297672
1119.235272272128 7244.442289700734
1120.1108638445658 7378.460186178747
1120.9862391976712 7509.596378017448
1121.8613983934229 7470.801070064782
1122.7363414937627 7549.618814161897
1123.6110685606182 7556.06340004529
1124.485579655884 7609.025660271145
1125.359874841426 7635.143656168337
1126.2339541790916 7649.019738990489
1127.1078177306936 7917.15929451808
1127.9814655580267 7708.171464841708
1128.854897722851 7722.178265340194
1129.7281142869106 7758.567623027574
1130.6011153119125 7830.647760332817
1131.473900859548 7837.685142248566
1132.3464709914697 7718.3310145675205
1133.2188257693178 7720.776657762084
1134.0909652546961 7580.223975277984
1134.96288950919 7518.346576956106
1135.8345985943506 7598.633471873871
1136.7060925717087 7388.179930928182
1137.57737150277 7498.997253011965
1138.4484354490069 7480.658090756374
1139.3192844718778 7308.939845158324
1140.1899186327992 7173.087469016204
1141.060337993178 7348.95950034715
1141.930542614382 7219.408213738434
1142.8005325577597 7129.698737025024
1143.670307884635 6986.3003268704515
1144.5398686563003 7020.422264162211
1145.409214934025 6946.2422735043565
1146.2783467790541 6809.266756841918
1147.1472642526023 6847.010542112635
1148.0159674158622 6961.288997101559
1148.8844563300026 6741.747693548653
1149.7527310561618 6740.372650250218
1150.6207916554504 6604.00455835771
1151.4886381889592 6622.3793804779125
1152.3562707177498 6713.225211977711
1153.2236893028585 6646.033243572767
1154.090894005296 6534.26499856567
1154.9578848860474 6583.864828828108
1155.8246620060709 6587.461395435159
1156.6912254262988 6340.227378288708
1157.5575752076438 6460.140336152985
1158.42371141098 6618.160669639323
1159.2896340971656 6588.793729834867
1160.1553433270346 6476.6184193398885
1161.0208391613887 6469.057344968623
1161.8861216610057 6597.121305127778
1162.75119088664 6525.989414892889
1163.6160468990201 6492.748509824138
1164.4806897588442 6366.980897300278
1165.3451195267917 6486.536945039994
1166.2093362635114 6485.629427412144
1167.0733400296285 6434.548895006683
1167.9371308857444 6374.235074316891
1168.8007088924278 6487.636992911734
1169.6640741102328 6503.711809882478
1170.5272265996773 6432.084664772872
1171.390166421259 6419.091233980624
1172.252893635452 6484.844540990846
1173.1154083026995 6619.80831501095
1173.977710483421 6587.227904397159
1174.8398002380145 6349.228696780776
1175.7016776268483 6517.048501380386
1176.563342710264 6539.179504147123
1177.4247955485826 6439.312383474402
1178.2860362020947 6583.168972509338
1179.147064731069 6459.984670495063
1180.0078811957483 6622.418181516565
1180.8684856563486 6530.215437669729
1181.7288781730604 6588.760702321846
1182.589058806052 6676.902112857347
1183.4490276154593 6738.532253610274
1184.3087846614017 6565.32193667276
1185.1683300039676 6613.077210894303
1186.027663703222 6891.100368750673
1186.8867858192025 6771.41814392932
1187.7456964119228 6780.186006817066
1188.6043955413716 6736.866159820884
1189.4628832675116 6924.374975005201
1190.3211596502842 6941.694161742349
1191.179224749596 7020.6103677590245
1192.0370786253388 6795.0045141983555
1192.8947213373758 7047.816609452219
1193.7521529455407 7145.1444000486545
1194.6093735096438 6939.3020641737485
1195.466383089477 6974.639891749384
1196.3231817447977 7038.138558032964
1197.1797695353398 7075.062395852006
1198.0361465208189 6942.093204041748
1198.8923127609214 7014.504280365744
1199.7482683153048 7000.166747821684
1200.6040132436028 7141.851218463022
1201.459547605431 7018.891809454547
1202.3148714603722 7010.227341039461
1203.1699848679855 7013.204921508802
1204.0248878878065 7095.367118873926
1204.8795805793507 6797.88898942337
1205.7340630020935 6974.643467464668
1206.5883352155033 6954.948073242987
1207.4423972790064 6997.946993437629
1208.2962492520237 6816.806483451847
1209.1498911939307 6875.141961966922
1210.0033231640937 6837.355294734103
1210.8565452218427 6778.009689664282
1211.7095574264913 6598.185980190525
1212.5623598373222 6665.3077563838915
1213.4149525135963 6589.728734404067
1214.2673355145507 6637.940492890583
1215.1195088993936 6576.230905136543
1215.9714727273113 6562.701659904509
1216.8232270574663 6733.576998457973
1217.6747719489904 6472.691878216444
1218.5261074609934 6448.771167067872
1219.3772336525653 6443.153291601008
1220.2281505827668 6612.226297926767
1221.0788583106296 6595.657067547465
1221.9293568951707 6388.498795864261
1222.7796463953746 6318.115665518688
1223.629726870202 6469.745212396751
1224.4795983785934 6410.218552037906
1225.3292609794553 6377.1224985852705
1226.1787147316809 6214.355858525863
1227.0279596941327 6346.658887049087
1227.8769959256424 6253.000770431363
1228.7258234850306 6352.63969810974
1229.5744424310833 6176.510563179353
1230.422852822563 6260.616214067931
1231.2710547182105 6408.623342469317
1232.119048176739 6257.378176882147
1232.9668332568417 6104.921281262866
1233.8144100171812 6246.623531330489
1234.6617785163999 6306.966515997378
1235.508938813111 6115.56697831087
1236.3558909659114 6195.846257000129
1237.2026350333617 6300.27702663552
1238.049171074008 6325.453756972834
1238.8954991463652 6164.943973634496
1239.741619308932 6196.136563402415
1240.587531620169 5134.241958955651
1241.4332361385277 6264.276232762526
1242.2787329224248 6170.311750305278
1243.1240220302534 6114.383811816829
1243.9691035203869 6094.629061968584
1244.813977451171 6258.281041253283
1245.6586438809263 6207.405143766236
1246.5031028679496 6024.058536699062
1247.3473544705157 6196.551440474751
1248.1913987468706 6158.770417262831
1249.0352357552383 6097.464718408726
1249.8788655538228 6203.466047374206
1250.7222882007918 6376.957854259259
1251.565503754302 6266.530351198153
1252.4085122724755 6097.457989467136
1253.2513138134182 6317.312438842345
1254.0939084352049 6388.331648717753
1254.9362961958905 6211.7275951455
1255.7784771535007 6241.491297049737
1256.6204513660432 6334.973168943632
1257.4622188915 6518.000551784994
1258.3037797878242 6342.629703390989
1259.1451341129468 6216.198982905959
1259.9862819247755 6351.470866293914
1260.8272232811978 6379.033681218004
1261.6679582400666 6550.8745285518435
1262.5084868592203 6363.888806445759
1263.34880919647 6362.275560415327
1264.1889253095997 6523.434788946501
1265.0288352563712 6511.747924309404
1265.8685390945266 6405.823012236115
1266.7080368817751 6414.62482169893
1267.5473286758115 6647.204177973111
1268.386414534294 6563.910989817379
1269.2252945148703 6358.598050403691
1270.0639686751547 6418.290761800895
1270.9024370727402 6456.297942452124
1271.7406997651997 6436.147531674933
1272.5787568100714 6373.8825115426525
1273.4166082648808 6398.48958388119
1274.2542541871244 6501.496398132031
1275.091694634275 6581.856854814565
1275.9289296637817 6358.123314393035
1276.7659593330663 6452.6430437575045
1277.6027836995308 6474.921008624438
1278.4394028205552 6489.153765220892
1279.2758167534867 6329.26511232833
1280.112025555658 6423.460018515572
1280.9480292843746 6612.8546455021715
1281.7838279969128 6196.819706802738
1282.6194217505326 6383.850728873112
1283.4548106024686 6253.941596415387
1284.289994609926 6320.608720925422
1285.1249738300921 6393.32392820559
1285.959748320127 6363.307647347813
1286.7943181371702 6279.610900454995
1287.6286833383328 6399.246633880404
1288.4628439807038 6399.735568660473
1289.2968001213521 6385.5186620088225
1290.1305518173194 6355.516443811238
1290.9640991256183 6495.207610638772
1291.7974421032523 6363.8370301523555
1292.630580807183 6462.784904895978
1293.463515294361 6526.393393676902
1294.29624562171 6627.517302565541
1295.12877184613 6572.969206175815
1295.961094024493 6502.013863390863
1296.79321221365 6629.539345867344
1297.6251264704333 6671.742674217831
1298.4568368516466 6895.67748854132
1299.2883434140658 6740.5309623535995
1300.1196462144526 6607.433339863482
1300.9507453095375 6853.876404782772
1301.7816407560313 6819.613158801306
1302.6123326106172 6817.151405134896
1303.4428209299622 6817.193702163972
1304.2731057707024 7127.656354742071
1305.1031871894502 6957.367069870646
1305.933065242798 6942.937518611437
1306.7627399873181 7013.8148445078505
1307.5922114795467 7244.242065356286
1308.4214797760123 7139.542797528573
1309.2505449332057 7074.048442407278
1310.0794070076026 7122.090274272513
1310.9080660556538 7385.300620821123
1311.736522133786 7342.355050298339
1312.5647752983987 7262.461002275375
1313.3928256058734 7120.937734068361
1314.2206731125661 7431.126023086884
1315.048317874809 7445.5350209494645
1315.8757599489109 7370.267094867212
1316.7029993911547 7351.404677515253
1317.5300362578055 7587.500828210333
1318.356870605101 7375.93889957004
1319.183502489257 7494.312116806577
1320.0099319664623 7518.398697902019
1320.836159092889 7670.853872254682
1321.66218392468 7623.089695267621
1322.4880065179532 7458.316374959666
1323.3136269288134 7642.246368356973
1324.1390452133292 7741.823716497967
1324.9642614275563 7769.967185305481
1325.7892756275214 7603.669573974417
1326.6140878692295 7416.06514097181
1327.4386982086617 7819.076434150536
1328.2631067017755 7572.625503758017
1329.0873134045069 7550.209077110859
1329.911318372764 7464.455056934933
1330.735121662441 7427.31149674035
1331.558723329399 7354.446415440643
1332.3821234294774 7245.850750243179
1333.2053220185007 7217.952772950875
1334.0283191522612 7156.598634552973
1334.851114886529 7216.32477820815
1335.6737092770582 6943.928768421574
1336.4961023795695 6917.499183456549
1337.3182942497697 6805.358151995208
1338.1402849433325 6828.594814507062
1338.962074515921 6623.92997074594
1339.7836630231632 6535.58792929772
1340.6050505206676 6906.256003862371
1341.426237064028 6651.974296157807
1342.2472227088037 6505.799146674532
1343.0680075105338 6369.738968828422
1343.888591524741 6477.647127528935
1344.7089748069138 6504.933179130385
1345.5291574125276 6352.963822580832
1346.3491393970307 6238.079923197581
1347.168920815846 6384.553092001379
1347.9885017243778 6516.655527903069
1348.8078821780036 6263.229594583867
1349.6270622320844 6261.596743588605
1350.4460419419447 6344.206022275555
1351.2648213629054 6269.566525856312
1352.0834005502438 6157.796539444931
1352.90177955923 6096.0016274498785
1353.7199584451064 6286.344511549592
1354.5379372630887 6175.687330119979
1355.355716068374 6122.032082074256
1356.1732949161305 5985.823885070961
1356.9906738615155 6146.005372919686
1357.8078529596478 6123.218360871063
1358.6248322656375 6257.470697608018
1359.441611834567 5983.566051186008
1360.2581917214866 6183.952266336474
1361.0745719814367 6097.473465516463
1361.890752669433 6049.264520548741
1362.7067338404577 5943.920090771943
1363.5225155494845 6209.763523648505
1364.3380978514506 6230.8114992641085
1365.1534808012839 5987.3513746832205
1365.9686644538815 5812.0874395581395
1366.783648864117 6261.844838143809
1367.5984340868417 6165.16574147725
1368.413020176893 5990.693488050807
1369.2274071890715 6092.304972414849
1370.0415951781652 6229.410080875647
1370.8555841989346 6073.528207636962
1371.6693743061223 5914.005009122858
1372.48296555444 5716.297474673175
1373.2963579985844 6039.575699155619
1374.1095516932255 6088.2274742959935
1374.9225466930166 5757.346737878737
1375.7353430525782 5989.428683738241
1376.5479408265164 5894.13306891057
1377.36034006941 5993.7043127347415
1378.1725408358216 6009.5483551690495
1378.9845431802805 5814.77343327342
1379.796347157304 6184.715095939723
1380.6079528213813 5988.20270106468
1381.4193602269788 5848.2192874641005
1382.230569428546 5793.803028783482
1383.0415804805016 6152.239953090262
1383.852393437246 5993.27759536006
1384.6630083531563 5907.153297116983
1385.4734252825892 5863.856129146445
1386.2836442798798 5979.552392273313
1387.0936653993322 6031.274272523244
1387.9034886952395 5874.695647153761
1388.713114221864 5961.161519763749
1389.5225420334482 6104.706080391624
1390.331772184214 5947.028799161387
1391.1408047283585 5800.437427249568
1391.9496397200564 5917.372207798429
1392.758277213461 6103.398458234848
1393.5667172627054 6049.786426246156
1394.3749599218918 5925.26720280852
1395.1830052451114 5742.732802264976
1395.9908532864265 5887.501470638333
1396.7985040998774 6002.036266327656
1397.6059577394808 5786.194301909991
1398.4132142592352 5972.228555313648
1399.2202737131156 5822.421894106844
1400.027136155073 5932.658969307003
1400.8338016390353 5785.523371286255
1401.6402702189134 5755.832359824681
1402.446541948586 5885.101841191774
1403.2526168819204 5728.570972704592
1404.058495072757 5762.507662599549
1404.8641765749107 5759.373875895808
1405.6696614421799 5783.118958833368
1406.4749497283356 6068.499082137294
1407.280041487129 5709.002896186101
1408.084936772295 5544.64829932089
1408.8896356375335 5956.425834021504
1409.6941381365323 5751.259945108019
1410.498444322955 5577.481311446947
1411.3025542504402 5751.477291261964
1412.106467972606 5826.645078032272
1412.9101855430508 5814.797045083642
1413.7137070153458 5539.7420105686115
1414.5170324430437 5702.114713690974
1415.320161879672 5769.447786925016
1416.1230953787435 5990.0007893770735
1416.925832993742 5646.809247150545
1417.7283747781275 5603.745556605295
1418.5307207853439 5817.473006231637
1419.3328710688093 5822.934165611687
1420.134825681922 5633.042120043267
1420.9365846780584 5672.475137525316
1421.7381481105713 5843.201368065091
1422.539516032788 5841.9329540370445
1423.3406884980232 5832.056156375751
1424.1416655595604 5752.236996643544
1424.942447270665 5907.973105128831
1425.7430336845828 5955.259236801198
1426.5434248545298 5870.204544012908
1427.3436208337116 6050.8947841103745
1428.143621675301 6032.104665334291
1428.9434274324558 6128.039057886994
1429.7430381583108 5960.074564574982
1430.5424539059713 5991.063000977925
1431.3416747285337 6473.962901530544
1432.1407006790632 6186.750998040114
1432.9395318106053 6139.932636622074
1433.7381681761835 6000.502347590338
1434.5366098288014 6326.173986974029
1435.3348568214424 6316.769149612873
1436.1329092070573 6100.192064536307
1436.9307670385879 6151.338445955507
1437.7284303689503 6287.5156804607595
1438.5258992510335 6323.084358013728
1439.3231737377118 6177.28374649589
1440.1202538818306 6122.330664003676
1440.9171397362225 6099.374929826336
1441.7138313536925 6193.311124518706
1442.5103287870243 6155.320349378204
1443.3066320889775 6036.773465773578
1444.1027413122956 6307.562397867771
1444.8986565096966 6049.620620900559
1445.694377733882 6077.181142526694
1446.4899050375207 5864.314017036269
1447.2852384732687 5998.410933548149
1448.0803780937622 6042.854763989515
1448.8753239516063 5872.704474291382
1449.6700760993954 5587.558487545892
1450.464634589689 5814.142870287406
1451.2589994750397 6005.7983562133995
1452.0531708079689 5711.026877581465
1452.8471486409799 5618.837361289343
1453.6409330265524 5979.693425677581
1454.4345240171442 5693.871261316186
1455.2279216651987 5677.641752879852
1456.0211260231263 5485.521419591025
1456.8141371433194 5921.43694124101
1457.6069550781594 5823.802064914967
1458.3995798799897 5542.857784523136
1459.1920116011424 5516.298825256683
1459.98425029393 5434.521568208322
1460.7762960106338 5436.248676010357
1461.5681488035225 5454.172853304675
1462.3598087248392 5472.573293708221
1463.1512758268036 5586.997434331221
1463.942550161617 5305.7569130800675
1464.7336317814625 5192.07375038521
1465.524520738496 5414.980135470687
1466.3152170848552 5199.027802823262
1467.1057208726506 5318.200908664849
1467.8960321539817 5139.796350098783
1468.6861509809169 5015.984941863162
1469.4760774055085 5104.894139134764
1470.265811479785 5159.647929610809
1471.055353255755 5037.818474926935
1471.844702785409 4974.957706886041
1472.6338601207044 4954.855645380853
1473.4228253135934 5057.53025964037
1474.2115984159936 4764.865946022181
1475.0001794798063 4700.1437119533575
1475.7885685569145 4914.897883531187
1476.576765699172 4874.8706351025685
1477.3647709584238 4816.041286444959
1478.1525843864802 4983.290361599997
1478.9402060351367 4859.928411458748
1479.7276359561693 4880.65559477347
1480.514874201328 4659.723344619884
1481.3019208223468 4595.407029162897
1482.0887758709323 4601.807057912026
1482.8754393987747 4802.047319626441
1483.6619114575406 4602.737435628621
1484.4481920988783 4642.386290417439
1485.2342813744108 4760.368537370285
1486.0201793357446 4926.019361904536
1486.8058860344572 4543.130969083303
1487.591401522117 4570.927293707718
1488.3767258502594 4643.368181655773
1489.1618590704056 4710.611588335237
1489.9468012340494 4411.882350642796
1490.7315523926754 4688.988744261277
1491.5161125977356 4762.280737243726
1492.3004819006637 4681.340740192568
1493.084660352877 4413.102324186401
1493.8686480057622 4669.120926612004
1494.6524449106964 4814.425646495936
1495.4360511190262 4922.257034536536
1496.219466682087 4671.277140597178
1497.0026916511779 4617.794279276495
1497.7857260775945 4792.653620285506
1498.5685700125996 4693.695675750223
1499.3512235074395 4584.465036072051
1500.133686613337 4547.0163389221
1500.9159593814966 4627.676725750139
1501.698041863101 5101.377622147529
1502.4799341093094 4570.15261927237
1503.2616361712662 4484.617685146978
1504.043148100087 4714.783626688821
1504.8244699468742 4704.990438621346
1505.6056017626997 4495.58181409222
1506.3865435986281 4485.5172016409315
1507.1672955056893 4689.1992874192965
1507.9478575348967 4572.722614754589
1508.7282297372512 4799.394362566246
1509.5084121637192 4680.212703151579
1510.2884048652577 4734.379448710237
1511.0682078927948 4560.831370733626
1511.8478212972423 4581.276800175039
1512.6272451294917 4504.683248096014
1513.4064794404076 4763.448464462383
1514.1855242808433 4773.502548806666
1514.9643797016215 4654.414586912841
1515.743045753552 4767.509857199334
1516.5215224874191 4788.305305519969
1517.2998099539836 4623.066898616014
1518.077908203999 4665.079547875481
1518.8558172881785 4624.614104059345
1519.633537257234 4880.803654811043
1520.4110681618404 4828.830217518796
1521.1884100526604 4748.885478978509
1521.9655629803365 4645.679636237547
1522.7425269954856 4913.625154607036
1523.5193021487103 5137.241773721418
1524.2958884905856 4736.19357705104
1525.0722860716687 4748.908693894055
1525.848494942502 4706.342721865749
1526.624515153595 4756.3433454958
1527.4003467554485 4780.560516842775
1528.175989798534 4834.29290361144
1528.9514443333064 4763.770720127506
1529.726710410203 4861.176552135408
1530.5017880796331 4677.730590858998
1531.276677391992 4604.920734605103
1532.0513783976457 4926.119250917986
1532.825891146953 4680.328233459319
1533.6002156902414 4923.916842584796
1534.3743520778207 4745.666810882567
1535.1483003599806 4785.501127141025
1535.9220605869923 4776.6295395724455
1536.6956328091019 4806.339590564181
1537.4690170765407 4734.151101775975
1538.242213439511 4764.440761925352
1539.015221948208 4711.845743033333
1539.78804265279 4604.010729029774
1540.560675603405 4601.653428179441
1541.3331208501804 4862.257070472062
1542.1053784432224 4887.063362404989
1542.8774484326168 4724.757200381815
1543.649330868422 4608.171828566391
1544.4210258006842 4778.304431727601
1545.1925332794308 4713.466002343282
1545.9638533546604 4687.5321512610035
1546.7349860763552 4609.389752440569
1547.5059314944829 4948.168424460059
1548.27668965898 4699.7813962112905
1549.0472606197673 4713.088512408243
1549.817644426752 4533.813312453956
1550.5878411298072 4877.953976011593
1551.3578507787988 4739.815810912211
1552.1276734235635 4619.617191309061
1552.8973091139233 4764.968496228895
1553.6667578996767 4918.794244445094
1554.436019830604 4695.552140235103
1555.20509495646 4648.637151506175
1555.9739833269869 4597.638792563472
1556.7426849919011 4832.208868184598
1557.511200000903 4952.815209534665
1558.2795284036674 4736.88611429831
1559.0476702498509 4701.778773081131
1559.8156255890954 4920.318570056108
1560.5833944710157 5124.069835430251
1561.3509769452048 4772.065011749338
1562.1183730612447 4793.063043079415
1562.8855828686865 4983.756360498564
1563.6526064170703 5126.156669923777
1564.4194437559127 5042.850157745607
1565.1860949347047 4787.860270747466
1565.9525600029283 5154.575708827157
1566.7188390100328 5133.1132588969795
1567.4849320054564 4824.5723821474985
1568.250839038612 4903.435062285155
1569.0165601588997 4892.341708443595
1569.7820954156887 5092.083352643548
1570.5474448583373 4793.405864878761
1571.31260853618 4860.508749513297
1572.0775864985299 4790.002003087985
1572.8423787946813 5034.887244485641
1573.6069854739108 4859.706425937136
1574.371406585471 4933.49675306857
1575.1356421785986 5136.981093611589
1575.899692302506 4915.6754090589375
1576.6635570063845 5125.846271395517
1577.4272363394157 4993.080746719579
1578.190730350747 5061.308907111387
1578.9540390895163 5225.898670365944
1579.7171626048384 4903.072447777833
1580.480100945806 4832.277315363242
1581.2428541614918 4979.10199793155
1582.0054223009538 5102.071304989275
1582.767805413223 4992.806579419902
1583.5300035473156 4959.260739226966
1584.292016752228 5196.60159826272
1585.0538450769309 5067.578931014312
1585.8154885703807 4853.200801895972
1586.5769472815136 4740.101391157565
1587.3382212592405 4898.953816295239
1588.099310552463 5017.446789610718
1588.8602152100484 4837.5826429730305
1589.6209352808564 4911.654621463412
1590.3814708137234 4780.189790041494
1591.14182185746 4851.722319748436
1591.9019884608679 4656.1769846575235
1592.6619706727215 4559.754263852157
1593.4217685417734 4778.0828684497055
1594.1813821167616 4895.766896793445
1594.9408114464022 4617.765751387702
1595.7000565793933 4633.125941219469
1596.459117564409 4816.26701365919
1597.2179944501113 4665.29188078447
1597.9766872851324 4462.029928765903
1598.735196118092 4637.202773691289
1599.4935209975883 4640.036216653193
1600.2516619721973 4712.067196179072
1601.0096190904787 4483.932489777464
1601.7673924009723 4537.673674192132
1602.524981952196 4491.807768503484
1603.2823877926476 4411.79708319913
1604.0396099708087 4479.852586063424
1604.7966485351371 4347.266810772911
1605.5535035340745 4413.573764007413
1606.3101750160404 4660.5425044511
1607.0666630294363 4314.387049874912
1607.822967622642 4360.360130070259
1608.5790888440224 4563.939774132386
1609.3350267419137 4594.3912440665645
1610.0907813646445 4373.797663518942
1610.8463527605145 4406.331742158677
1611.601740977805 4493.564717603368
1612.356946064785 4508.401975334951
1613.1119680696902 4242.600882350916
1613.8668070407512 4321.707439532039
1614.6214630261748 4338.608733598985
1615.375936074137 4478.900748560185
1616.1302262328118 4368.400364331856
1616.8843335503425 4432.129705080315
1617.638258074854 4357.501873498761
1618.391999854457 4406.234692996151
1619.1455589372363 4558.434055522507
1619.8989353712623 4379.176540491011
1620.65212920458 4234.48414832732
1621.4051404852235 4273.0583681485095
1622.1579692611976 4229.558590104977
1622.9106155804966 4172.434903665971
1623.663079491087 4285.472207142775
1624.4153610409248 4404.381425717989
1625.1674602779385 4269.2458074594315
1625.9193772500403 4185.68127689315
1626.6711120051277 4439.839827730127
1627.4226645910676 4328.92748327847
1628.174035055721 4013.380878095075
1628.9252234469168 4259.724342759889
1629.676229812474 4161.544259828961
1630.4270542001905 4555.242959706971
1631.1776966578382 4302.446987884639
1631.9281572331747 4260.918430327276
1632.678435973945 4465.733632329064
1633.4285329278573 4301.605150703664
1634.1784481426203 4067.2166710158554
1634.9281816659113 4183.387297704479
1635.677733545388 4376.751318182401
1636.4271038286934 4315.862718168772
1637.176292563452 4349.898492998234
1637.9252997972635 4274.837387814548
1638.674125577716 4282.685480287427
1639.4227699523672 4687.991284959887
1640.171232968767 4157.37308604526
1640.9195146744423 4224.742126357182
1641.6676151168977 4435.037872911754
1642.4155343436178 4559.569702380977
1643.1632724020765 4434.8483366788205
1643.9108293397167 4324.587314104519
1644.658205203974 4286.0289292563575
1645.4054000422566 4776.4166360866575
1646.1524139019566 4286.828508440305
1646.8992468304423 4227.81125852701
1647.6458988750728 4379.19955847215
1648.3923700831765 4399.600265385179
1649.1386605020743 4420.9602486903
1649.8847701790564 4514.577002105669
1650.6306991614038 4557.543201805646
1651.3764474963682 4612.059729516126
1652.1220152311944 4216.780653097212
1652.867402413096 4488.0573546706955
1653.6126090892776 4562.933683388849
1654.3576353069184 4643.629217368264
1655.1024811131829 4433.980091021649
1655.8471465552066 4379.2734991760135
1656.5916316801213 4513.472742810872
1657.3359365350298 4466.906386728613
1658.0800611670165 4416.369821386912
1658.824005623148 4419.8558734318885
1659.5677699504722 4406.774024473944
1660.3113541960192 4435.8584900516025
1661.054758406799 4446.084088748039
1661.7979826297997 4407.7329416988405
1662.5410269119966 4292.401582195041
1663.283891300338 4577.5452420502015
1664.0265758417645 4355.133488068708
1664.7690805831826 4427.912404466438
1665.5114055714948 4478.6630388955
1666.2535508535748 4645.291457542442
1666.9955164762814 4149.4340157396855
1667.7373024864555 4315.377261179705
1668.478908930916 4406.723303486177
1669.220335856462 4292.645766129267
1669.9615833098778 4249.973644744618
1670.7026513379296 4202.879709211249
1671.44353998736 4331.508305645022
1672.1842493048916 4206.999851184145
1672.9247793372379 4218.697968119643
1673.6651301310812 4257.185199895899
1674.4053017330934 4127.662241746553
1675.1452941899242 4276.12977429452
1675.885107548207 3907.1874172640005
1676.6247418545518 3969.94559802248
1677.3641971555535 4034.8501033145126
1678.1034734977893 4224.44626887419
1678.8425709278108 4045.719659052063
1679.5814894921605 4210.604417776557
1680.320229237359 4113.708518267176
1681.0587902098978 4161.823373839874
1681.7971724562685 3948.482859420338
1682.5353760229264 3850.063820731578
1683.2734009563173 4123.517224668964
1684.0112473028657 3855.5393722105755
1684.7489151089794 4073.11616157759
1685.4864044210462 4018.0398166844216
1686.2237152854377 3734.651059311742
1686.960847748498 4024.7062358557014
1687.6978018565642 3666.729294761164
1688.434577655944 3722.8165325151685
1689.1711751929379 3683.398384788981
1689.9075945138156 3869.7442217539365
1690.6438356648396 3696.7340431141556
1691.3798986922448 3430.9491730084037
1692.1157836422499 3745.409842685885
1692.851490561059 3700.2661951808755
1693.587019494853 3680.2759378292417
1694.3223704897991 3585.5812779211833
1695.0575435920364 3433.6059981644003
1695.792538847696 3922.432817074559
1696.527356302886 3401.2373486128395
1697.2619960036936 3312.942875680555
1697.9964579961907 3356.970857580108
1698.730742326432 3153.0849467011494
1699.4648490404488 3274.0837738220903
1700.1987781842563 3302.2605808331564
1700.9325298038548 3499.8353168017843
1701.6661039452174 3585.51333334426
1702.3995006543082 3396.983327472705
1703.1327199770658 3413.204070125515
1703.865761959416 3305.434767823515
1704.598626647261 3552.848554634352
1705.3313140864866 3194.420979217611
1706.0638243229587 3079.3167664280254
1706.7961574025303 3340.0588762827874
1707.528313371029 3275.0799615869337
1708.260292274268 3119.765227190969
1708.9920941580403 3250.0195141323115
1709.7237190681226 3298.8734916842986
1710.4551670502697 3268.38025476239
1711.18643815022 2994.815770708663
1711.9175324136959 3471.3981214135906
1712.6484498863938 3229.529005095272
1713.379190614005 2962.317321049556
1714.109754642188 3095.0606025055786
1714.8401420165883 3118.300099076431
1715.570352782839 3414.6642972852087
1716.3003869865497 3213.0751338936
1717.0302446733076 3008.9432205272055
1717.7599258886876 3019.1204844593653
1718.4894306782444 3417.283000897228
1719.2187590875183 2948.9700448545477
1719.9479111620203 3425.391450020417
1720.6768869472544 2923.311870271374
1721.4056864887025 3324.911742114494
1722.1343098318284 3318.7959289775476
1722.8627570220742 3112.4149357970227
1723.591028104871 2901.1392129806695
1724.3191231256242 2838.931586129777
1725.0470421297232 2925.3413289014434
1725.7747851625427 3117.0105183987043
1726.5023522694337 3123.462576592682
1727.2297434957363 3026.4926413231124
1727.9569588867635 2849.3809357867694
1728.6839984878152 3100.400130300407
1729.4108623441734 2676.551930136519
1730.1375505011038 3106.335059506151
1730.8640630038426 2902.466839667172
1731.5903998976264 2847.651150894334
1732.316561227657 2981.598044457701
1733.0425470391274 2801.596425057485
1733.7683573772065 2971.8922909663506
1734.4939922870508 2898.74712837616
1735.2194518137949 2907.4890771221753
1735.9447360025606 3002.9006802838417
1736.669844898439 2904.677698410652
1737.3947785465189 2827.3948740257206
1738.1195369918605 2644.3266712050436
1738.8441202795093 2916.2656668409604
1739.5685284544943 3003.29372140848
1740.292761561821 2990.755147868675
1741.0168196464838 2951.2515511976007
1741.7407027534518 2997.4664662846526
1742.464410927687 2956.339985680951
1743.187944214118 2850.028329576565
1743.9113026576688 2849.683988390956
1744.634486303241 2868.7338923459997
1745.3574951957125 2878.0175737257673
1746.0803293799509 3089.1667971953348
1746.8029889008048 2981.9152656878823
1747.5254738031017 2931.636793224818
1748.2477841316504 2814.1476342824776
1748.969919931249 2841.7053692516265
1749.6918812466665 2797.37033254007
1750.4136681226646 3005.373861284378
1751.1352806039777 2820.8767804017302
1751.856718735331 2620.5637914136546
1752.5779825614281 2604.004119508335
1753.2990721269507 2868.215867459856
1754.0199874765676 2943.1045590065614
1754.7407286549314 2689.2172071522573
1755.4612957066693 2859.838727060839
1756.1816886763954 2843.902363664251
1756.9019076087097 2799.4728871585417
1757.6219525481865 2986.965405918909
1758.3418235393856 2769.693848698126
1759.061520626854 2777.4643433837973
1759.7810438551096 2986.423435628636
1760.5003932686614 2638.155676344951
1761.2195689119999 3025.98032798533
1761.938570829594 2860.3366236538245
1762.657399065898 2892.5232864969275
1763.376053665348 2607.5887802262887
1764.0945346723602 2563.029297784037
1764.812842131334 2959.1471908908484
1765.5309760866512 2678.193965889547
1766.2489365826787 2719.2275001403304
1766.9667236637597 2745.4810125909753
1767.684337374223 2428.4285867311255
1768.401777758383 2623.812198034048
1769.1190448605284 2604.4825997376283
1769.836138724937 2622.423384014216
1770.5530593958665 2796.6946887839217
1771.2698069175603 2824.482224284725
1771.9863813342326 2813.33343907681
1772.702782690094 2805.206566815769
1773.4190110293293 2923.520435094909
1774.1350663961111 2825.7614172799
1774.8509488345844 2678.9091336246724
1775.5666583888924 2745.6145423895027
1776.2821951031437 2919.3494454203437
1776.9975590214362 2672.6704523804447
1777.7127501878585 2872.972292411401
1778.4277686464684 2816.6245290793836
1779.1426144413108 2915.824462056043
1779.8572876164162 2906.291264685471
1780.571788215797 2540.477702160015
1781.2861162834415 2739.8154315768106
1782.0002718633277 2683.8228630383733
1782.7142549994132 2806.4569770841795
1783.4280657356376 2743.0540632667194
1784.141704115922 2622.091010424783
1784.855170184177 2712.2563675649103
1785.5684639842839 2762.795989782608
1786.2815855601148 2388.006905298648
1786.9945349555237 2798.3104008271857
1787.707312214343 2476.5209688709574
1788.4199173803918 2975.3085351220834
1789.132350497468 2606.512348250608
1789.8446116093583 2685.4290563909985
1790.556700759822 2457.4686360943206
1791.2686179926077 2711.6305115995287
1791.9803633514493 2651.9698173506945
1792.6919368800554 2385.815809003959
1793.4033386221236 2717.458321315216
1794.1145686213295 2751.441177088121
1794.8256269213307 2914.7174651167043
1795.536513565774 2765.43719493602
1796.247228598284 2403.4848679131546
1796.9577720624693 2581.618377509726
1797.6681440019165 2649.992484150488
1798.3783444602013 2742.2736492809627
1799.0883734808776 2707.0270744904547
1799.7982311074884 2716.0555796485487
1800.5079173835475 2587.22386771511
1801.2174323525633 2716.326085261907
1801.9267760580187 2710.853451862674
1802.635948543386 2662.2704829810023
1803.3449498521113 2553.99378849299
1804.0537800276325 2659.835748079039
1804.7624391133668 2611.7986365639254
1805.47092715271 2442.7716137474854
1806.1792441890484 2508.1982158548103
1806.8873902657433 2678.3060763071535
1807.5953654261448 2598.0061179025884
1808.3031697135812 2531.7522482434642
1809.0108031713662 2565.98996945933
1809.71826584279 2595.2273239943493
1810.425557771141 2612.7530552585768
1811.1326789996747 3019.99865115941
1811.839629571632 2667.446093858912
1812.5464095302468 2531.185130556255
1813.2530189187182 2739.224986383245
1813.959457780249 2601.0131414575476
1814.6657261580076 2815.8324350317102
1815.371824095153 2576.44956133194
1816.0777516348262 2796.527528485492
1816.78350882015 2251.064624731652
1817.4890956942272 2400.261020679608
1818.1945123001533 2520.3975717934145
1818.8997586809928 2507.568196860534
1819.6048348798067 2450.325477595913
1820.3097409396287 2544.7088519120766
1821.0144769034796 2878.979801250797
1821.7190428143622 2647.0137508354956
1822.423438715261 2726.134981536273
1823.1276646491478 2643.928196687936
1823.8317206589727 2542.220057186659
1824.5356067876692 2520.178874636734
1825.2393230781581 2552.6905225889996
1825.942869573335 2376.7186539039276
1826.646246316086 2459.6235756157644
1827.3494533492758 2567.8122945575146
1828.052490715756 2684.507311536198
1828.7553584583547 2496.7517859257414
1829.458056619891 2591.74538314611
1830.1605852431585 2525.2513492057915
1830.8629443709433 2335.857286011394
1831.5651340460063 2577.8183290650004
1832.2671543110919 2244.3955432738076
1832.9690052089318 2636.1109049800484
1833.6706867822395 2252.0536071747297
1834.3721990737104 2661.569196744255
1835.0735421260233 2561.5367142649143
1835.774715981841 2547.2188301650995
1836.4757206838058 2896.8645443791806
1837.1765562745459 2461.7443196706417
1837.8772227966747 2438.9938987182827
1838.5777202927839 2428.7796519612148
1839.2780488054523 2425.0796127917492
1839.9782083772352 2405.454499648159
1840.6781990506806 2807.096988771952
1841.378020868313 2472.424158374549
1842.0776738726418 2526.083551484508
1842.777158106157 2372.6626020256635
1843.4764736113375 2413.157199967707
1844.1756204306403 2589.3774251660666
1844.8745986065078 2493.600165895922
1845.5734081813607 2362.0800637185484
1846.2720491976124 2483.4231599713553
1846.970521697649 2433.5242698505836
1847.6688257238511 2538.012197419602
1848.3669613185684 2437.3561763607
1849.0649285241452 2187.525101752844
1849.7627273829057 2492.7563322750348
1850.460357937156 2514.296103369757
1851.1578202291857 2245.0884663992238
1851.8551143012664 2486.300710380449
1852.5522401956569 2371.4917353835053
1853.2491979545957 2648.0918459864006
1853.9459876203055 2269.8755440392565
1854.6426092349902 2383.76831215881
1855.3390628408451 2420.5052609671197
1856.0353484800362 2657.678729845455
1856.7314661947203 2568.140441904977
1857.4274160270397 2189.087209371419
1858.123198019115 2480.5099930965143
1858.8188122130487 2211.5976340737534
1859.5142586509319 2480.097105558807
1860.209537374838 2372.815308212939
1860.9046484268183 2402.3968755319847
1861.599591848917 2540.50609589108
1862.294367683151 2332.161133229395
1862.988975971528 2379.0651633475045
1863.6834167560355 2460.8084079842924
1864.3776900786452 2593.144142844948
1865.0717959813119 2446.869118915997
1865.7657345059724 2276.003668261107
1866.4595056945564 2435.626766615209
1867.1531095889586 2478.568818803544
1867.846546231076 2208.8073767529772
1868.5398156627743 2550.920055858193
1869.2329179259123 2316.7580262066185
1869.9258530623283 2564.0778014225184
1870.618621113843 2328.5958054785397
1871.3112221222636 2191.8231553646115
1872.0036561293764 2227.787349987832
1872.695923176956 2508.105622660543
1873.3880233067594 2502.066707714344
1874.0799565605212 2302.3676853852585
1874.7717229799673 2487.3776810736367
1875.4633226068036 2581.0314835046743
1876.1547554827175 2539.0007174994257
1876.8460216493859 2381.231123417069
1877.5371211484617 2365.4959570874025
1878.2280540215852 2584.9977714065603
1878.9188203103804 2265.7136963810212
1879.6094200564548 2407.4621302768746
1880.299853301396 2325.9758904273917
1880.9901200867826 2503.4166708721323
1881.6802204541673 2466.21799969264
1882.3701544450942 2446.6961693099106
1883.059922101087 2238.594877442223
1883.7495234636517 2521.3504752966537
1884.4389585742792 2309.368194665561
1885.1282274744517 2135.382582373172
1885.8173302056166 2241.5712937182425
1886.506266809225 2347.905228040877
1887.195037326701 2104.8641620231288
1887.8836417994517 2207.2944754414657
1888.5720802688702 2666.669689436633
1889.260352776333 2518.3368808794594
1889.9484593632042 2593.704303565394
1890.63640007082 2191.5870361832467
1891.3241749405151 2213.9940564463586
1892.0117840135954 2447.414987561773
1892.6992273313572 2406.3338367839524
1893.3865049350788 2136.7878581458494
1894.0736168660223 2636.13634624192
1894.7605631654333 2459.863697672771
1895.4473438745408 2135.4120765646194
1896.133959034556 2722.12943793421
1896.820408686679 2420.6346898757047
1897.506692872088 2541.2547831096704
1898.192811631945 2343.0553671683583
1898.8787650073991 2401.376821565781
1899.5645530395832 2516.83204803064
1900.2501757696118 2440.684050283534
1900.9356332385796 2102.8226123996074
1901.620925487574 2609.4997651390486
1902.3060525576602 2397.7147282696287
1902.9910144898859 2407.3135914142704
1903.6758113252872 2257.9664797275996
1904.3604431048789 2339.580252317157
1905.0449098696663 2471.5430831493873
1905.7292116606295 2241.6794661346007
1906.4133485187394 2389.3561481678234
1907.0973204849488 2117.704688532641
1907.7811276001976 2178.539657416516
1908.4647699053967 2365.850847571926
1909.1482474414588 1836.3352271900403
1909.8315602492694 2165.7640736180006
1910.5147083696957 2570.092518625558
1911.1976918436012 2268.8184593074634
1911.880510711815 2243.0015972580118
1912.5631650151681 2564.227346451379
1913.2456547944657 2282.2346715308167
1913.927980090495 2240.5038724245233
1914.6101409440362 2362.0625460020133
1915.2921373958416 2476.429256041522
1915.9739694866603 2340.5441911423604
1916.655637257214 2632.722311107289
1917.3371407482136 2231.1590833962446
1918.0184800003572 2510.724505967262
1918.6996550543154 2533.868801037405
1919.3806659507554 2390.8959452944273
1920.0615127303208 2374.771429691747
1920.7421954336423 2547.039724567842
1921.4227141013343 2519.6191380945206
1922.103068773993 2281.079427398511
1922.783259492202 2541.845800762644
1923.4632862965227 2278.9735233420442
1924.1431492275078 2264.565336060107
1924.8228483256917 2256.779982521161
1925.5023836315922 2341.4269574262325
1926.1817551857057 1979.2108004028955
1926.8609630285227 2509.5265459447664
1927.5400072005123 2316.2651947679237
1928.218887742125 2306.196854803192
1928.8976046938005 2162.3102115024753
1929.5761580959588 2409.278440635709
1930.2545479890086 2181.964945761242
1930.9327744133352 1936.3898791361614
1931.6108374093164 2292.451085127345
1932.2887370173066 2172.708430207137
1932.9664732776473 2052.6331894527952
1933.6440462306673 2300.4271075767992
1934.3214559166754 2197.0731340053653
1934.9987023759659 2591.118207359531
1935.675785648813 2331.451017247661
1936.3527057754836 1988.7494511403663
1937.029462796223 2008.4017153163265
1937.70605675126 2028.1431983891393
1938.3824876808085 2220.6261754288184
1939.058755625072 2253.6018699376195
1939.7348606242267 2225.672015981187
1940.4108027184448 2303.6419163862033
1941.0865819478713 2487.8580198810296
1941.7621983526478 2162.5737730407573
1942.4376519728921 2064.471861776884
1943.1129428487038 2255.6834268345906
1943.7880710201734 2410.7931329034373
1944.4630365273733 2370.141028792678
1945.1378394103576 2087.8776041548335
1945.8124797091714 2067.3564182035834
1946.4869574638324 2046.7221893339424
1947.161272714353 2275.3771107576217
1947.8354255007234 2389.490900104171
1948.5094158629272 2166.45512591332
1949.1832438409183 2230.313596395506
1949.8569094746435 2411.4392782186173
1950.530412804037 2484.341024849176
1951.2037538690092 2580.6451206478123
1951.8769327094578 2051.8654556764805
1952.5499493652678 2214.913885850922
1953.222803876306 2506.5059301126726
1953.895496282421 2222.307651782842
1954.5680266234522 2326.1561234911196
1955.2403949392155 2293.6106288057554
1955.9126012695142 2065.9164116763045
1956.5846456541403 2267.265195476853
1957.2565281328643 2194.524249271085
1957.9282487454457 2447.1273300770326
1958.5998075316202 2355.02394403136
1959.27120453112 2082.8294893130496
1959.9424397836501 2245.095073888894
1960.613513328908 2411.571473354049
1961.2844252065697 2523.366799014727
1961.9551754563017 2176.830881896896
1962.6257641177453 2107.69338335337
1963.29619123054 1963.643445885565
1963.966456834296 2102.6007792562436
1964.6365609686181 2084.166712487538
1965.306503673086 2400.4735266841926
1965.976284987275 2101.2286730681544
1966.645904950734 2130.882031368324
1967.315363603002 1917.8606616612055
1967.9846609836077 2306.4576341774605
1968.6537971320486 2190.8498199200253
1969.3227720878222 2323.8944821291275
1969.9915858904042 2215.9761266013566
1970.660238579252 2424.210804086651
1971.3287301938108 2181.023710350243
1971.997060773514 2117.816690305026
1972.665230357772 2183.438291212431
1973.3332389859843 2120.6634886194474
1974.0010866975335 1997.5250656929456
1974.6687735317864 2249.2313140396045
1975.3362995280932 2365.359891252561
1976.003664725793 2229.200587154094
1976.6708691642052 1970.3619960314554
1977.3379128826364 2106.029738755236
1978.004795920373 2396.0616917023162
1978.6715183166925 2483.108872020661
1979.3380801108524 2351.450388488856
1980.0044813420973 2219.7045249336843
1980.6707220496555 1935.717887622967
1981.3368022727373 2233.774190154583
1982.0027220505417 2330.559356291227
1982.66848142225 1825.3956857701646
1983.3340804270283 2063.4894814094982
1983.999519104027 2140.735624272768
1984.6647974923835 2130.8630168155782
1985.329915631215 2224.408380699667
1985.99487355963 2214.508541656819
1986.6596713167146 2438.981269544461
1987.3243089415428 2136.949248701982
1987.9887864731754 2320.2587329430407
1988.6531039506553 2036.6791026774074
1989.3172614130071 2043.4691207094813
1989.9812588992481 2050.3030244117704
1990.645096448372 1888.2392890522588
1991.3087740993633 2170.4319229212806
1991.9722918911848 2078.1756930418724
1992.635649862792 2260.6865773187774
1993.2988480531185 2250.659526376898
1993.9618865010852 2178.1789152490155
1994.6247652455968 2105.648327886206
1995.287484325545 2069.2317900140024
1995.9500437798033 2063.4273964237063
1996.6124436472292 2116.9061107516595
1997.2746839666706 2125.5845360560156
1997.936764776954 1949.067752538569
1998.598686116895 2167.6090604899646
1999.2604480252903 2306.603751178186
1999.9220505409212 2377.0217238593514
2000.5834937025593 2069.112156723961
2001.2447775489582 2188.5512224843824
2001.9059021188514 2273.0254444236616
2002.5668674509616 2091.44653179919
2003.2276735839987 2141.5563400912897
2003.8883205566508 2283.5049163718195
2004.5488084075987 2063.9351402202274
2005.2091371755014 2086.0302213084656
2005.8693068990033 1925.100952620601
2006.5293176167397 2234.212903720096
2007.1891693673224 1947.0376694732763
2007.848862189354 1927.1739002653726
2008.5083961214223 2148.397638776951
2009.1677712020955 2022.9689964277386
2009.8269874699254 1981.7055798904428
2010.4860449634598 1979.0290304975485
2011.1449437212177 1976.4621284168247
2011.8036837817108 2328.3412977608064
2012.4622651834325 2263.6747162352376
2013.1206879648653 2215.6839840344064
2013.7789521644736 2399.6412939860143
2014.4370578207036 1847.0413472056455
2015.0950049719922 2082.5896694541707
2015.7527936567585 2415.8291155520023
2016.4104239134067 2061.2922874682513
2017.067895780323 2455.615775195784
2017.725209295886 2441.5824553741286
2018.3823644984514 2427.450624128106
2019.0393614263648 2062.1887592927947
2019.6962001179545 2109.6474532995762
2020.3528806115355 2365.975517521243
2021.0094029454067 2339.3271133945173
2021.6657671578487 2032.8432093186796
2022.321973287133 2168.3290382917107
2022.9780213715148 1996.9188180361664
2023.6339114492293 1906.6313282052306
2024.2896435585026 2093.3580571073353
2024.9452177375442 1966.572178992835
2025.600634024544 2324.5104288522743
2026.2558924576842 2229.1398984125053
2026.9109930751292 2214.5921388452807
2027.565935915025 1996.2970161475728
2028.2207210155066 2417.5700845886754
2028.8753484146964 2386.869999198909
2029.529818150695 2334.7364833253278
2030.1841302615903 2282.283502810571
2030.8382847854573 1999.5348883527363
2031.4922817603601 2191.585502270843
2032.1461212243357 2193.313282263117
2032.7998032154192 1911.8536264200607
2033.4533277716218 2046.6622447345558
2034.1066949309443 2030.982659129127
2034.7599047313688 1882.0378996491768
2035.4129572108704 2274.183617176227
2036.0658524074006 2055.63271398123
2036.7185903589016 2245.6771978156207
2037.3711711032956 2251.9120051954023
2038.023594678496 2204.231712113516
2038.675861122394 2051.693593970451
2039.3279704728757 2365.9260304146273
2039.9799227678031 1966.6515702276363
2040.6317180450278 2098.875184844625
2041.2833563423865 2014.9562289688206
2041.9348376977014 2311.071148635836
2042.5861621487784 2231.5497855123144
2043.2373297334088 2227.470630384497
2043.8883404893695 2212.0300718176886
2044.5391944544208 2226.4990212619255
2045.1898916663158 2287.720120027678
2045.8404321627804 2494.2629697189345
2046.4908159815368 2068.34974007086
2047.1410431602853 2002.4206974789188
2047.7911137367173 1945.2460296406443
2048.441027748504 1885.666832116854
2049.090785233302 1825.9596520568564
2049.7403862287592 2047.8971002649018
2050.389830772503 1918.5683187010115
2051.0391189021466 2255.985778349219
2051.688250655294 2144.219084280051
2052.337226069527 1867.6864272768648
2052.986045182417 2207.7446430080895
2053.634708031521 1820.8218353308305
2054.283214654375 2119.950913741978
2054.931565088511 1746.0696487835044
2055.579759371436 1998.2984444374329
2056.2277975406523 2197.737038703749
2056.8756796336384 2352.04672189101
2057.5234056878617 2213.7040934699116
2058.1709757407752 2074.9006017662564
2058.8183898298194 2419.9047828862617
2059.465647992416 2247.0928382441098
2060.1127502659747 2290.4602136943486
2060.759696687888 1953.013828623571
2061.4064872955405 2211.626365755351
2062.053122126292 1908.1946150963163
2062.699601217497 2200.530746406226
2063.345924606485 2003.2535645603275
2063.992092330587 2052.706529094373
2064.638104427102 1916.1709775136792
2065.283960933324 1962.3595211915822
2065.92966188653 2008.6133989387938
2066.5752073239855 2233.3162582714967
2067.2205972829397 1856.8857855550839
2067.86583180062 2124.9614449198857
2068.5109109142522 2039.455601911882
2069.15583466104 1943.0784434248776
2069.8006030781708 1846.6135719798506
2070.445216202821 1931.7780418908435
2071.089674072153 2186.8448026782607
2071.7339767233116 2214.066530075886
2072.3781241934303 2071.3343025367594
2073.0221165196253 2121.418542580238
2073.6659537390024 2017.448714178136
2074.3096358886505 2259.6812139378912
2074.953163005637 2071.2292976198983
2075.596535127028 1900.9066622204755
2076.2397522898664 2017.7513382941484
2076.882814531182 2090.0763697847365
2077.5257218879924 2193.4397119023315
2078.1684743973 1904.6356209450273
2078.8110720960885 1882.862351198722
2079.453515021336 2003.4251919248582
2080.095803209997 2124.0731331596758
2080.7379366990135 2184.9998365109873
2081.37991552532 2258.586745038054
2082.0217397258275 2095.142129464688
2082.6634093374414 1876.2893155348133
2083.3049243970418 2084.7047601422355
2083.9462849415067 2265.8389470831735
2084.587491007689 2162.4499938244235
2085.2285426324324 2082.164972525866
2085.869439852564 2132.4385573592554
2086.510182704902 1894.8991943420758
2087.1507712262483 2060.9182744094005
2087.791205453381 1901.6508326558421
2088.4314854230743 2059.7603281341553
2089.0716111720867 2172.8460587241398
2089.7115827371617 1727.5239375689303
2090.351400155023 1810.9613681784826
2090.991063462385 1894.6391701690525
2091.6305726959527 1760.2289092321175
2092.2699278924047 1805.7451732424204
2092.9091290884153 1851.4262888165679
2093.548176320641 1911.8514030845727
2094.187069625721 2186.4500115936203
2094.8258090402887 1721.691919795589
2095.464394600951 2059.9804152767547
2096.102826344313 2135.0035402486847
2096.741104306955 2178.4896465131374
2097.379228525453 1853.984972955705
2098.017199036358 1799.536126790091
2098.6550158762147 2313.0420646838256
2099.2926790815527 2127.9660636152494
2099.9301886888825 2081.831895055262
2100.5675447347076 2110.0636875177024
2101.2047472555114 2281.5686248086786
2101.841796287761 1930.8786630849718
2102.47869186792 2208.1445519755516
2103.1154340324265 1993.2186646088412
2103.752022817709 2029.8653444632957
2104.388458260184 1746.4698845038488
2105.024740396251 1973.5865250668376
2105.660869262292 1873.2282430099062
2106.296844894685 1958.9575389384124
2106.93266732978 2044.9325463081561
2107.5683366039284 2011.4673294718054
2108.2038527534532 2121.778123279528
2108.8392158146726 2208.4048567652612
2109.4744258238843 2075.4331626221906
2110.1094828173755 1968.6171066092033
2110.744386831422 2284.339441760697
2111.3791379022787 1982.2016778550328
2112.01373606619 2027.098193166723
2112.648181359389 2188.1954259866825
2113.28247381809 2073.596436394126
2113.916613478492 2096.837724397877
2114.550600376786 2062.978232983572
2115.1844345491445 1974.2331611180282
2115.818116031729 1908.2851152396756
2116.451644860679 2039.3816359310326
2117.085021072133 1814.654568139235
2117.718244702204 1885.9241824897945
2118.3513157869984 1905.9326018697811
2118.984234362604 1776.7544197485618
2119.617000465092 1893.1926101824192
2120.249614130529 2302.3926932481836
2120.8820753949585 1991.7552694198973
2121.5143842944162 1976.2276249547267
2122.14654086492 1914.1634374083212
2122.7785451424734 2187.5869264733587
2123.4103971630702 2116.8221252631606
2124.042096962681 2046.1256637049592
2124.6736445772767 2152.3862796046424
2125.305040042802 1870.0811129329904
2125.936283395191 1975.2524190328513
2126.567374670365 2084.3167302185484
2127.198313904233 1931.912151028379
2127.8291011326855 1839.1118897242989
2128.4597363916037 1745.8989218432118
2129.0902197168507 1935.1611260937218
2129.720551144279 1788.6093116007091
2130.3507307097225 2363.8801471434754
2130.980758449008 2293.133628306755
2131.6106343979427 2296.9767011614817
2132.2403585923203 2300.7052009599292
2132.8699310679276 2309.3457610281366
2133.499351860526 2151.8955645459123
2134.1286210058715 1979.3066638869682
2134.7577385397053 1744.1094612718643
2135.3867044977487 2156.5045271520953
2136.0155189157176 2373.066761187615
2136.644181829308 2294.561148480376
2137.2726932742025 1971.7306341457584
2137.901053286074 2199.0511273054335
2138.5292619005777 1764.1193614147141
2139.1573191533535 1915.1623116063754
2139.7852250800315 2216.146700396194
2140.4129797162295 2052.0606264147405
2141.0405830975433 1809.5993830963441
2141.6680352595613 1860.497162810811
2142.2953362378576 1911.5136323486888
2142.9224860679915 1985.3874916437449
2143.549484785508 1910.1889380908692
2144.1763324259373 1908.2498964923204
2144.803029024799 1844.1677140876873
2145.429574617594 1769.730296616996
2146.0559692398165 1798.4850479317943
2146.682212926942 1827.1373958909323
2147.308305714432 2049.5156557399173
2147.9342476377333 2312.7541672509947
2148.5600387322847 2348.4637922798984
2149.185679033506 2142.335828283239
2149.8111685768017 2015.074581630493
2150.4365073975678 1719.4976791343258
2151.061695531187 1861.371379104959
2151.686733013021 2292.387144822288
2152.311619878423 2062.011684404277
2152.9363561627342 1846.54686776044
2153.560941901278 1906.0680748450766
2154.1853771293663 1961.6888929405827
2154.809661882293 1987.646333253478
2155.433796195348 1971.6314852832136
2156.0577801037944 1955.349034219041
2156.681613642895 2053.9241685577
2157.3052968478896 2176.893381113853
2157.928829754006 2299.9262878394106
2158.552212396462 2244.210067290259
2159.1754448104566 2001.8750001295298
2159.7985270311783 1862.5659714019318
2160.4214590938027 1581.441895892967
2161.0442410334927 1581.3724053472372
2161.6668728853874 1655.0462396006337
2162.289354684628 1728.923924393424
2162.911686466332 1819.7785042431594
2163.533868265602 1966.4499714839617
2164.1559001175337 2327.1646600127024
2164.7777820572046 1951.593050133271
2165.399514119681 2010.2457480783876
2166.021096340013 1810.427844860631
2166.6425287532384 2190.2347417571127
2167.263811394385 1780.8819697066654
2167.8849442984574 2134.2411149820373
2168.505927500455 1875.6800001088072
2169.126761035366 2098.4551716652186
2169.7474449381552 1833.1360864275641
2170.367979243778 1521.4586365544935
2170.9883639871823 1661.1538024161975
2171.608599203293 1801.248534077611
2172.2286849270276 2263.669934083438
2172.8486211932886 2461.440555322156
2173.4684080369625 2023.2204147904133
2174.0880454929265 1695.9485947867954
2174.7075335960417 1670.3202452163089
2175.3268723811543 1727.9520689007186
2175.9460618831 1785.7539184642756
2176.565102136701 1882.196306205085
2177.1839931767627 1955.0346326003241
2177.802735038078 2028.0935371941528
2178.421327755432 1787.172610095658
2179.0397713635866 1834.8360153650915
2179.658065897298 1894.5674959303833
2180.276211391305 1999.7896230328104
2180.8942078803357 2028.90251717415
2181.5120553991 2153.0939343933796
2182.129753982299 1686.1777984202884
2182.7473036646206 1933.7244695152353
2183.3647044807367 1927.8770920612174
2183.9819564653044 1613.9631593641877
2184.599059652968 1898.841489359887
2185.216014078367 2133.1872603302368
2185.832819776113 2142.529455464996
2186.4494767808137 2151.7712364039485
2187.065985127063 1944.2891984138619
2187.682344849436 1893.3520433079332
2188.298555982501 2083.5246352540644
2188.9146185608097 1895.2491043437778
2189.530532618901 2142.6135654641344
2190.1462981912937 2121.2365905950137
2190.761915312507 2064.5197484975433
2191.377384017036 1772.2226674063254
2191.9927043393654 1931.9747598024903
2192.6078763139667 2105.06967284292
2193.2228999753006 1793.0797547430498
2193.837775357808 1988.3415224576925
2194.452502495922 1705.7399002324687
2195.0670814240602 1888.2920149533177
2195.6815121766285 1658.4663531440106
2196.2957947880186 1655.3317285333596
2196.9099292926057 1652.1965374641927
2197.523915724758 1979.8614148795987
2198.137754118825 2071.458199409062
2198.7514445091456 2328.7381231669447
2199.3649869300443 2370.733800914998
2199.9783814158327 2412.9271296224147
2200.5916280008096 2402.044293058593
2201.2047267192593 2166.8199084354374
2201.8176776054515 1946.2876243728344
2202.430480693649 1821.0256628852635
2203.0431360180955 2241.854822177807
2203.6556436130195 2218.3549589490767
2204.268003512645 1575.926407578083
2204.8802157511727 1853.1338014062155
2205.492280362796 1883.7696526858592
2206.1041973816937 1914.540853358835
2206.715966842032 2065.973984896241
2207.3275887779655 1928.500159250711
2207.93906322363 1961.9821254487633
2208.550390213153 2081.130916503028
2209.1615697806465 2067.737813161244
2209.7726019602105 1812.8532006251273
2210.3834867859277 1744.9609867995707
2210.9942242918787 1977.500552720306
2211.6048145121167 1965.6971094362507
2212.2152574806914 2663.237748597983
2212.825553231638 1876.8698636111014
2213.435701798975 2585.062963477037
2214.045703216707 1941.2037381537605
2214.655557518832 1520.5417091839695
2215.2652647393297 1747.313776110283
2215.874824912169 1932.2021288145775
2216.4842380713 1532.348798987819
2217.09350425067 1694.993390603156
2217.7026234842033 2103.094104374014
2218.311595805819 2218.4069525833584
2218.9204212494133 1925.511842253924
2219.52909984888 2230.764691151742
2220.137631638092 1683.6217892367386
2220.7460166509154 1716.8257625981175
2221.354254921198 1750.0138027107937
2221.9623464827764 1964.0536390555449
2222.5702913694713 1875.3734655696633
2223.178089615096 1928.16214844856
2223.7857412534486 1981.0497903955427
2224.39324631831 1644.3602812968988
2225.000604843457 1919.7901619282325
2225.607816862641 1990.7070744673304
2226.214882409611 1930.2018185746663
2226.8218015180973 2158.529538104763
2227.4285742218217 1931.4439939373995
2228.0352005544864 2045.4683350549906
2228.6416805497847 1785.9721829127332
2229.248014241399 1785.4619129139214
2229.8542016629945 1728.427577582604
2230.460242848223 2083.222083797268
2231.0661378307304 1904.4952963517335
2231.671886644139 1725.6107465339642
2232.277489322065 1536.370268756896
2232.8829458981127 1509.7319390180778
2233.48825640587 1928.2057874267164
2234.0934208789095 2441.853936402109
2234.6984393507955 2203.1470429402684
2235.3033118550793 2021.0185266613062
2235.9080384252975 1773.0571546382787
2236.5126190949723 1698.508992446555
2237.1170538976166 1848.887410739584
2237.721342866729 1543.338220851691
2238.32548603579 1701.1842230504917
2238.9294834382763 1870.9837905243712
2239.533335107646 1947.2224659104409
2240.1370410773434 1947.2831650870098
2240.740601380803 1713.920931292747
2241.3440160514474 1818.1219342794234
2241.9472851226783 2137.19827652958
2242.550408627896 1991.8096345006077
2243.1533866004793 2236.5143886022597
2243.756219073799 1790.3148235593374
2244.3589060812064 1737.2951473230837
2244.961447656049 1793.4885542247546
2245.5638438316564 1719.7531958344182
2246.166094641343 1858.9721215979935
2246.7682001184166 1764.519600128609
2247.3701602961664 1862.6191645986491
2247.971975207871 1996.5264810855074
2248.5736448867974 2105.40676335602
2249.175169366197 1760.9699880926405
2249.7765486793123 2034.8090046436057
2250.3777828593684 1875.6191521552057
2250.9788719395783 2045.4092468873419
2251.579815953146 1943.909078381889
2252.1806149332606 1673.561944253583
2252.781268913097 1912.0015119276345
2253.381777925817 1860.862685428742
2253.9821420045737 2090.7226727247858
2254.5823611825035 2005.2662465151145
2255.1824354927303 1794.0050479745391
2255.782364968365 1718.076551966582
2256.38214964251 1642.0965000523781
2256.9817895482483 1593.8135066228615
2257.5812847186553 1805.223281889048
2258.180635186791 1770.6299013745768
2258.779840985704 1845.8096340417524
2259.37890214843 1714.9779726154952
2259.97781870799 1907.8113287033502
2260.5765906973957 2101.005162050423
2261.175218149645 1870.488492590639
2261.773701097718 2024.6816961745183
2262.3720395745895 1739.1893982737347
2262.970233613216 1583.2696911280038
2263.568283246548 1791.937153166617
2264.1661885075137 1797.8092744090459
2264.763949429038 1664.1342659314546
2265.3615660440246 2282.8479589579174
2265.959038385374 1719.5948739861142
2266.5563664859637 2222.277123500479
2267.153550378669 1825.5759545904807
2267.7505900963424 2008.2203329988952
2268.3474856718312 1815.0613019897864
2268.9442371379664 1966.2702316653856
2269.5408445275643 1829.3941754144628
2270.1373078734377 1806.8889473301927
2270.7336272083758 1831.75978726268
2271.32980256516 1757.1351107818257
2271.925833976562 1815.6677008384024
2272.5217214753357 1755.361034423784
2273.117465094223 1694.898478360155
2273.7130648659586 1748.8351966669275
2274.308520823257 1567.410021966551
2274.903832998827 1675.2285902806477
2275.4990014253563 1783.2426517472236
2276.094026135528 2030.3360221961932
2276.6889071620117 1670.7108708187764
2277.2836445374614 1990.6750438326685
2277.878238294519 1825.1809812016854
2278.472688465812 1725.1556369476725
2279.066995083962 1624.9211547381285
2279.6611581815705 2012.2802516270353
2280.255177791232 1759.2525165846569
2280.8490539455233 1884.1334261785894
2281.442786677013 2009.3344647366557
2282.0363760182554 1913.1585564443735
2282.6298220017943 1726.5898560126338
2283.223124660155 1715.1604337962563
2283.816284025859 1703.798774881797
2284.4093001314086 2069.8909154419393
2285.002173009292 1696.8200172807167
2285.5949026919952 2065.3664933099058
2286.1874892119777 2130.483440877101
2286.7799326016993 2088.895964477114
2287.3722328936 1636.8830189200662
2287.964390120109 1471.732016642812
2288.556404313642 1992.7028952361914
2289.1482755066027 2410.45019516818
2289.7400037313873 1885.5932747370778
2290.3315890203703 1711.862966593069
2290.9230314059205 1764.5643916774243
2291.5143309203904 1817.4061394227633
2292.1054875961236 1849.0618678643393
2292.6965014654506 2078.872278071085
2293.287372560684 1871.660642011476
2293.878100914131 1737.925851243434
2294.468686558086 1603.9614202028201
2295.059129524827 1942.941920565323
2295.649429846617 1827.2352215238006
2296.239587555716 1794.1172479237764
2296.8296026843636 1906.0426061779228
2297.419475264791 1779.2991786607695
2298.0092053292137 1652.2092746629246
2298.598792909839 1960.790883964959
2299.1882380388597 1784.5683251699797
2299.777540748455 1821.8798457403886
2300.3667010707904 1859.1249781803576
2300.9557190380256 1932.408347622821
2301.544594682302 1782.5733936945544
2302.1333280357503 1632.5495443316177
2302.721919130485 1977.3276090594231
2303.3103679986198 2415.88212211061
2303.898674672242 2164.963617344769
2304.486839183437 1683.6368741731771
2305.0748615642697 1820.6233022101817
2305.6627418468015 2006.4662020890842
2306.2504800630704 1803.5458815015468
2306.8380762451143 1998.0538650616625
2307.425530424949 2018.1617229087988
2308.012842634582 2038.3000127832445
2308.6000129060103 2473.8924406336328
2309.187041271214 2593.6857085811453
2309.773927762164 1976.9998062768202
2310.3606724108213 2057.5102474527584
2310.9472752491274 2143.970992013025
2311.5337363090184 2230.688780254287
2312.120055622414 1828.1233600565429
2312.706233221221 1848.4069237718159
2313.2922691373424 1554.126077966505
2313.8781634026564 2223.7265446562833
2314.463916049037 1671.2568745443762
2315.049527108342 2194.5635062525007
2315.6349966124235 2119.773637722467
2316.2203245931123 2158.50168233775
2316.8055110822315 1652.6921426980975
2317.3905561115935 1821.402368247012
2317.9754597129977 1689.4646403535291
2318.560221918229 1625.1312596347243
2319.1448427590603 1560.687254164198
2319.729322267256 1627.2635673097302
2320.313660474563 1594.3836880551257
2320.8978574127195 1866.8239393377603
2321.481913113452 2140.078260803721
2322.0658276084705 1802.7006415386386
2322.6496009294806 1701.6664783018182
2323.233233108165 1889.8067051341463
2323.8167241762058 1681.3536422101654
2324.4000741652617 1824.5857583917139
2324.983283106987 2117.588439903396
2325.5663510330232 2135.279704521072
2326.1492779749933 1656.0351794738813
2326.7320639645204 1976.1803465661746
2327.3147090332004 1766.9749190306043
2327.897213212629 1789.359822637156
2328.4795765343843 1811.639216661514
2329.0617990300307 1675.847469266751
2329.643880731124 1734.4039899779277
2330.22582166921 1793.124589563844
2330.807621875816 2148.4543394868324
2331.3892813824623 1529.8398047820763
2331.9708002206517 1648.3069974897273
2332.5521784218818 2033.748355894794
2333.133416017634 1852.2325735450074
2333.7145130393765 1789.5179697705364
2334.295469518571 2110.0410755952475
2334.876285486658 2173.744873869854
2335.456960975076 2165.0543273842327
2336.037496015242 2156.3818555916923
2336.6178906385667 1924.4014833136775
2337.198144876451 1875.2492061026119
2337.778258760278 1843.1461073226542
2338.3582323214214 1790.3530541068715
2338.938065591243 1737.3923443655844
2339.517758601087 2056.0499615684284
2340.0973113822965 2020.3631239530387
2340.676723966193 1972.4540601950862
2341.255996384094 1984.8335889281884
2341.835128667295 2152.784319801865
2342.4141208470883 1983.6815545564998
2342.992972954751 1977.0468631206736
2343.5716850215467 1991.1834613606006
2344.1502570787306 1344.0900702846582
2344.7286891575386 1565.9509802588032
2345.3069812892045 1821.1417266543965
2345.885133504944 2076.6228389434573
2346.4631458359618 1743.8144983459138
2347.04101831345 1565.507308077261
2347.6187509685915 1707.7022792439498
2348.196343832553 1612.7877053883938
2348.7737969364935 1943.677719204287
2349.351110311558 1693.3808975014242
2349.9282839888765 1640.3140074754979
2350.5053179995757 1774.3968210846956
2351.0822123747585 1334.6475921157203
2351.658967145526 1433.8291829367645
2352.2355823429643 1533.2613573887843
2352.812057998144 1931.2928487439117
2353.3883941421263 1660.9038506120698
2353.9645908059647 1889.4438257658014
2354.540648020693 1696.0614193014972
2355.116565817336 1632.7084535287656
2355.6923442269126 1783.5833821977917
2356.2679832804224 1934.7791022490978
2356.8434830088518 1846.6862052397441
2357.41884344318 1561.8804037568052
2357.994064614377 1582.0269093023867
