#exp_cfg={"servo_angle": 0.0, "laser_lim": 100.0, "servo_angle_to": 18.0, "laser_wup": 0.0, "bt_dev": "EnSpectr-25AE3", "laser_wdn_max": 0.0, "frames": 10.0, "servo_used": 0, "servo_calib_use": 0, "laser_wdn_min": 0.0, "servo_pix_from": 90.0, "cooler_tout": 300.0, "servo_angle_from": 0.0, "servo_calib": "[-1.9174921013161362e-09, 3.9322238269163779e-05, -0.27385609119055809, 653.59552119713567]", "laser_autoctl": 0, "servo_pix_to": 3682.0, "laser_pw": 100.0, "cooler_on": 0, "laser_volt": 4.0, "cooler_autoctl": 0, "cooler_curr": 70.0, "cooler_startup": 10.0, "laser_fixed_pw": 0, "gain": 1.3, "offset": 2.53059635486, "servo_calib_degree": 3.0, "laser_curr": 55.0, "shutter": 8200.0, "servo_calib_step": 1.0, "laser_fixed_curr": 0, "exp": 2000.0, "ccd_volt": 4.7, "bt_addr": "00:06:66:62:5A:E3", "servo_delay": 500.0, "laser_autooff": 1}
#proc_cfg={"flat_auto_wnd": 200.0, "flat_auto_fr": 200.0, "flat_auto_shift": 5.0, "yconv": 1, "flatten": 1, "flatten_strength": 100.0, "xfrom": 300.0, "auto_max_frame": 2000.0, "auto_signal": 48000.0, "flat_auto_tol": 0.1, "autoclip": 1, "xrel_range": 0.0, "flat_auto_to": 4000.0, "intensity_adj": 1.0, "xrel": 7852.0, "rmhot": 1, "flat_auto_slit": 4.999999999999997, "auto_ini_exp": 300.0, "auto_off": 0, "xto": 2860.0, "flat_auto_ref": "", "flat_auto_rank": 1, "autobackg": 0, "xrel_adj": 0.0, "auto_black_lvl": 1, "base_wnd": 100.0, "sub_baseline": 0, "xconv": 2, "auto_max_exp": 1000.0, "auto_total_exp": 10000.0, "auto_exp": 0, "rmripple": 0, "black_lvl": 8264.7375, "shutter_clip_adj": 0.0, "auto_bckg": 0, "flat_auto_thr": 0.9, "subbackg": 1}
316.8218498245369 9702.430855545597
317.89969571804795 9548.919892895467
318.977263876126 9570.036046637239
320.05455438786703 9459.567498215973
321.1315673423287 9422.198853288806
322.2083028285215 9504.573077606698
323.2847609354267 9363.068650266003
324.3609417519747 9287.697384359246
325.43684536705587 9243.377410551284
326.5124718695279 9206.274384851344
327.58782134820103 9122.85494827714
328.66289389184385 9150.010938290672
329.7376895891921 8997.387225608978
330.8122085289342 9007.16103258781
331.88645079971866 8968.532251823392
332.9604164901575 8887.75064772397
334.03410568881554 8867.783305213155
335.1075184842266 9008.147987968736
336.18065496487543 8814.930934245904
337.2535152192122 8812.809603102212
338.32609933564163 8774.488814627319
339.39840740253203 8728.262993095243
340.4704395082099 8699.921784107077
341.5421957409617 8681.97747993431
342.6136761890357 8713.523444890643
343.6848809406365 8575.949981169131
344.75581008392874 8571.81714454712
345.82646370703696 8546.658775769072
346.8968418980512 8590.307975696505
347.96694474501055 8585.258621724457
349.0367723359268 8509.530954168902
350.106324758759 8537.789993649068
351.1756021014353 8374.18206735361
352.2446044518383 8398.149316341503
353.31333189781435 8531.53631675857
354.38178452716966 8417.302059947102
355.449962427665 8424.231890660561
356.51786568702846 8402.218806275358
357.58549439294256 8463.876731600407
358.6528486330535 8463.599980486943
359.71992849496564 8402.838123830432
360.7867340662433 8414.917743885873
361.8532654344144 8415.256166479288
362.9195226869597 8473.201655655103
363.9855059113288 8363.321148985322
365.05121519492604 8349.735481725209
366.11665062511565 8444.513062350725
367.1818122892273 8405.019145941518
368.2467002745434 8407.181411168163
369.31131466831175 8415.035110677494
370.375655557742 8370.755663228341
371.4397230299983 8354.795883135701
372.5035171722102 8404.27679363419
373.5670380714637 8409.322428483003
374.6302858148101 8473.936826306366
375.6932604892554 8416.331541316467
376.7559621817709 8348.293516839183
377.81839097928605 8259.58014982585
378.8805469686886 8329.203547561541
379.94243023683157 8409.787256781852
381.0040408705263 8281.961276987808
382.0653789565458 8241.58219993803
383.1264445816196 8256.02247482528
384.1872378324406 8196.291615870587
385.2477587956637 8161.4257470538505
386.3080075579037 8122.388418141473
387.3679842057336 8018.48181285678
388.4276888256918 8127.9203181957255
389.48712150426945 8091.513129508938
390.54628232792857 8075.848161411534
391.6051713830857 8013.317456775892
392.66378875611736 8047.219879285194
393.7221345333637 7989.780045707497
394.7802088011249 7932.7438420191465
395.838011645661 7962.402794677679
396.89554315319765 7912.144037296511
397.9528034099112 7874.176055200228
399.00979250194723 7772.628639366214
400.06651051541485 7769.1785710372515
401.1229575363741 7838.658961716671
402.17913365085224 7743.400556064848
403.23503894483656 7822.085988596647
404.2906735042761 7710.931443763775
405.3460374150818 7614.595906010465
406.401130763119 7696.2716835850515
407.455953634224 7698.3153878498515
408.5105061141876 7617.136773879478
409.56478828876243 7511.71686338118
410.6188002436629 7526.912567917195
411.6725420645689 7480.308736290621
412.72601383711117 7523.663020017952
413.77921564689314 7557.162293548479
414.8321475794728 7465.361855011133
415.88480972036814 7386.962983760968
416.93720215506437 7468.960107680308
417.9893249690049 7432.607736219022
419.04117824759123 7315.458192786944
420.09276207619223 7327.792631386095
421.144076540133 7343.417519077864
422.1951217247042 7321.382068903006
423.24589771515275 7362.2644382996705
424.2964045966928 7301.596371667462
425.34664245449494 7261.660075669814
426.3966113736933 7266.524575452269
427.4463114393875 7226.593472523482
428.49574273662984 7223.5980659103825
429.5449053504417 7162.662914193863
430.5937993658026 7257.490980912899
431.6424248676558 7198.971254215901
432.6907819409007 7138.490393125969
433.73887067040596 7244.124300870042
434.7866911409965 7224.400245965466
435.8342434374608 7139.408794179981
436.88152764455117 7167.502869765522
437.9285438469724 7139.502731699996
438.9752921294057 7085.837534665465
440.02177257648145 7136.6628322329225
441.06798527279716 7044.889240888954
442.1139303029122 7209.443879879842
443.1596077513459 7136.224686985345
444.2050177025794 7079.702372158348
445.25016024105753 7170.530945101842
446.2950354511886 7066.790407132797
447.33964341733736 7097.237572853216
448.383984223834 7121.531957933022
449.4280579549686 7002.011623134544
450.471864694995 7077.545798733651
451.5154045281306 7093.141164635529
452.5586775385509 7074.9528811658365
453.60168381039693 7098.013387717745
454.64442342776783 7162.848778292553
455.6868964747264 7145.543366305932
456.7291030353008 7029.007243784215
457.77104319347563 7108.040697584208
458.8127170332027 7006.701216154715
459.854124638392 7083.139354005107
460.895266092919 7181.341297134117
461.93614148061897 7166.042830780345
462.97675088529104 7207.752246396345
464.01709439069236 7158.850939435835
465.0571720805492 7176.569794209174
466.0969840385442 7153.357347966438
467.1365303483253 7342.20507143637
468.17581109350067 7183.132459231315
469.2148263576437 7219.474084988925
470.2535762242878 7240.113785086248
471.29206077693016 7348.975606244769
472.33028009902773 7365.71960276308
473.3682342740012 7392.310531869308
474.40592338523857 7349.992220168843
475.4433475160804 7470.49412165613
476.4805067498364 7468.239006788986
477.51740116978 7486.311761437013
478.5540308591426 7620.918095232843
479.59039590112116 7772.3740459910605
480.6264963788726 7801.584078394801
481.6623323755193 7915.2592269913675
482.6979039741436 8074.595169536951
483.7332112577915 8250.725969782567
484.76825430947247 8460.082226454793
485.80303321215797 8470.45588432798
486.837548048783 8596.232977231643
487.8717989022425 8758.28622893824
488.90578585539697 8823.064206108054
489.9395089910686 8861.876730552493
490.97296839203955 8779.289255533029
492.00616414106116 8640.679064196618
493.0390963208429 8670.794573559531
494.0717650140559 8581.774253842257
495.10417030333883 8401.945769867352
496.1363122712901 8353.993520899436
497.16819100046814 8085.5935378104505
498.1998065734024 7968.764917414977
499.2311590725767 7889.023402833935
500.26224858044407 7777.138991482427
501.2930751794156 7603.097523774815
502.3236389518679 7582.447727873687
503.35393998014115 7395.276277711081
504.38397834653733 7412.573328542375
505.4137541333221 7370.943698965477
506.4432674227228 7260.460799677991
507.4725182969323 7194.0978980772
508.5015068381035 7187.359753663554
509.53023312835467 7232.9864200213515
510.55869724976765 7115.743521332028
511.58689928438434 7136.390154019813
512.6148393142121 7014.768589547438
513.6425174212218 7166.311274003667
514.6699336873462 7085.529826137567
515.6970881944835 7098.976093941489
516.7239810244901 7026.856005754407
517.7506122591931 7133.543151997299
518.7769819803761 6999.080476225686
519.8030902697901 7054.619436900209
520.8289372091476 7083.3949492996235
521.8545228801249 7117.617979305234
522.8798473643619 7083.2953596293755
523.9049107434621 7017.059416776474
524.9297130989908 7116.802302292746
525.9542545124805 7064.2960354335855
526.9785350654201 7042.60669607243
528.0025548392696 7122.824672303321
529.0263139154504 6938.087975405433
530.0498123753423 7022.884641155312
531.073050300296 7045.714177330216
532.0960277716204 6984.962832716124
533.1187448705896 6954.580809260309
534.1412016784416 6980.740497801902
535.1633982763833 6886.591804592058
536.1853347455726 6929.505945678715
537.2070111671401 6863.210366843285
538.2284276221817 6837.536751903739
539.2495841917516 6773.261462797316
540.2704809568677 6725.51610655405
541.2911179985167 6770.371922641492
542.3114953976419 6765.49539341428
543.3316132351592 6689.887832351778
544.3514715919409 6706.3888507710235
545.3710705488247 6662.20921137303
546.3904101866156 6721.18703313818
547.4094905860784 6679.413102819472
548.4283118279418 6674.906903488202
549.4468739929034 6738.994478157298
550.4651771616191 6680.110713616514
551.4832214147063 6639.2642725851965
552.501006832761 6755.879193777764
553.5185334963226 6675.025767936396
554.5358014859103 6773.57086904944
555.5528108820035 6703.134618186756
556.5695617650363 6700.358428991752
557.5860542154242 6715.506891832486
558.6022883135283 6704.143934226589
559.6182641396881 6666.042067480829
560.6339817741991 6771.6429585376045
561.6494412973225 6703.137474481072
562.6646427892883 6809.494390987212
563.6795863302796 6667.735078956408
564.694272000459 6729.162971564147
565.7086998799423 6812.9681579278285
566.7228700488104 6724.704578144121
567.7367825871115 6744.982843047897
568.7504375748576 6742.502720156673
569.7638350920224 6759.07907300424
570.7769752185486 6737.394377528786
571.7898580343353 6771.037680231547
572.802483619258 6658.471755990072
573.8148520531431 6822.243165054286
574.8269634157932 6885.636612410226
575.8388177869692 6774.584922752282
576.8504152463938 6856.812077592574
577.8617558737587 6934.3003185408
578.8728397487175 6876.444069898085
579.883666950891 6989.562114498668
580.8942375598654 7130.802789335066
581.9045516551851 7192.086826798935
582.9146093163617 7395.550451269408
583.924410622878 7233.712709676942
584.9339556541727 7344.861565451809
585.9432444896538 7412.492862589107
586.9522772086875 7351.450688508676
587.9610538906127 7333.033585116951
588.9695746147318 7317.5986822613095
589.9778394603054 7379.206384744228
590.985848506567 7198.242301224908
591.9936018327098 7123.348595776401
593.0010995178891 6934.152903713414
594.0083416412344 6992.287511448924
595.0153282818283 6828.151337605443
596.0220595187293 6737.3941739593865
597.0285354309508 6748.634256239171
598.0347560974806 6707.797206839013
599.0407215972609 6678.580547479843
600.0464320092051 6640.961022341979
601.0518874121954 6690.681166527602
602.0570878850685 6662.201872720951
603.062033506636 6598.996748729709
604.0667243556636 6613.812573464779
605.0711605108936 6566.862330062728
606.0753420510264 6812.998615307477
607.0792690547278 6645.7851910838945
608.082941600629 6667.535538587608
609.0863597673306 6802.814520382477
610.0895236333909 6887.634667563607
611.0924332773357 7023.4212564550935
612.0950887776617 6946.845947817505
613.0974902128219 7038.523556384187
614.0996376612384 7270.888512399644
615.1015312013005 7420.458351813715
616.1031709113595 7579.222301224875
617.1045568697336 7544.9195008481865
618.1056891547069 7714.672323106049
619.1065678445229 7881.071479531574
620.1071930173985 8152.930676205076
621.1075647515099 8252.679998812777
622.1076831250048 8315.768637279794
623.1075482159849 8525.462855245243
624.1071601025305 8562.762763978992
625.1065188626781 8741.247045785265
626.105624574433 8910.984954985528
627.1044773157682 8998.129407111239
628.1030771646128 8957.96045301756
629.1014241988742 9067.818897995614
630.0995184964158 9174.762909900432
631.0973601350688 9319.780283145023
632.0949491926294 9490.205310137786
633.0922857468631 9228.120325699883
634.089369875499 9318.520573861228
635.0862016562278 9433.280718782149
636.0827811667077 9168.897345281537
637.0791084845641 9084.270788443904
638.0751836873878 8884.586063667979
639.0710068527369 8885.7002054621
640.0665780581294 8635.535780817185
641.0618973810506 8478.33558391848
642.0569648989604 8460.513300439343
643.0517806892676 8211.470710176618
644.0463448293649 8109.791108302587
645.040657396592 7942.648573891951
646.0347184682723 7782.148927966393
647.0285281216875 7619.5132790348725
648.0220864340772 7468.526623380979
649.0153934826558 7367.696033977378
650.0084493446047 7270.259863471036
651.0012540970674 7255.496427611436
651.9938078171526 7106.941377136897
652.9861105819346 6999.538542693245
653.9781624684565 7078.710752088895
654.9699635537254 6809.68217014874
655.9615139147136 6884.072244377271
656.9528136283589 6708.519086576825
657.9438627715699 6772.972632964009
658.9346614212154 6697.34705943159
659.925209654135 6553.905670901807
660.9155075471263 6571.229860404058
661.9055551769616 6589.502015751852
662.895352620375 6667.151592370904
663.8848999540678 6428.050741740104
664.8741972547068 6391.737156278743
665.863244598926 6346.3230755976165
666.8520420633213 6353.317866192269
667.8405897244611 6210.934746229021
668.8288876588758 6200.848762163643
669.8169359430613 6318.065561538549
670.8047346534822 6332.251036519573
671.7922838665672 6144.924267789616
672.7795836587156 6229.192443595344
673.766634106285 6320.45080109795
674.7534352856092 6132.707664415208
675.7399872729766 6101.602708206249
676.7262901446538 6219.549536773529
677.712343976862 6188.149757708603
678.6981488457986 6190.745426892833
679.6837048276229 6082.966374732505
680.6690119984596 6136.322804472192
681.6540704344043 6164.391582774726
682.6388802115107 6098.467866279472
683.6234414058108 6106.5311365345715
684.6077540932874 6063.552564901676
685.591818349907 6143.795088411656
686.575634251587 6114.868215819077
687.5592018742263 6069.659750114472
688.5425212936734 5937.329248408325
689.5255925857564 6185.7788257800075
690.5084158262707 6102.731079973529
691.4909910909646 6049.134501416089
692.4733184555644 6024.782913310761
693.4553979957618 6116.423870489429
694.4372297872123 6103.988960978363
695.4188139055404 6145.733778581556
696.4001504263324 6059.690906065553
697.3812394251509 6176.98956981598
698.3620809775111 6148.958857419636
699.3426751589104 6161.312999664535
700.3230220448004 6124.558366472223
701.3031217106054 6213.430405963436
702.2829742317172 6339.634453347644
703.2625796834873 6115.59399112463
704.2419381412474 6196.216788632077
705.22104968028 6324.026472994592
706.1999143758458 6331.649931507508
707.178532303169 6366.916518037227
708.1569035374378 6510.877733713456
709.1350281538107 6698.493027044513
710.1129062274158 6732.662275851375
711.0905378333373 7001.207322445383
712.0679230466376 7190.18627347762
713.0450619423427 7441.953087770058
714.0219545954424 7826.255358593623
714.9986010808989 7880.248873904942
715.9750014736292 8278.381402782987
716.9511558485392 8677.768590009317
717.9270642804786 9084.600301500765
718.9027268442787 9196.355642633516
719.8781436147328 9297.229300198307
720.8533146666014 9332.089936272361
721.828240074612 9331.104593633776
722.8029199134635 9238.983662180923
723.7773542578125 9068.42909737465
724.751543182294 8813.641817830805
725.7254867615029 8598.413004797472
726.6991850700015 8285.505751772796
727.6726381823228 8167.1144793600815
728.6458461729599 7976.7705112355425
729.6188091163858 7872.332822184695
730.5915270870246 7801.0535828938855
731.5640001592856 7696.4729082507665
732.536228407529 7637.773529825831
733.5082119060917 7674.621690727584
734.4799507292755 7720.413039945875
735.4514449513481 7739.971115628486
736.4226946465496 7786.704109710037
737.3936998890786 7789.405026520397
738.3644607531078 7573.29910134909
739.3349773127793 7641.691491141275
740.3052496421951 7477.274262470996
741.27527781543 7246.205948170459
742.2450619065221 7075.710645608053
743.2146019894826 7041.742058027585
744.183898138288 6904.045980083417
745.1529504268801 6736.006520361622
746.1217589291682 6437.791372423998
747.0903237190341 6398.7725927139745
748.058644870318 6310.7221054679985
749.0267224568397 6205.834182717096
749.994556552374 5986.336764579171
750.9621472306771 6054.820163956069
751.9294945654583 5939.918995881157
752.8965986304011 5942.162521420857
753.8634594991636 5776.002809697511
754.8300772453586 5807.93497156805
755.7964519425768 5762.53747779995
756.762583664371 5840.285103863267
757.7284724842611 5875.547008330041
758.6941184757416 5781.221755461871
759.6595217122667 5785.134923764954
760.6246822672638 5780.7396409694
761.5896002141235 5687.817264607306
762.5542756262093 5736.454879632626
763.5187085768503 5796.629146524579
764.4828991393406 5723.167727199321
765.4468473869474 5690.3616805712145
766.4105533929032 5797.392701733998
767.3740172304078 5625.187613155509
768.3372389726283 5755.856387903166
769.3002186926988 5643.907914157959
770.2629564637282 5580.047113377581
771.2254523587872 5495.697169097058
772.1877064509154 5536.7595755526445
773.1497188131179 5367.677075020945
774.1114895183728 5331.427786287004
775.0730186396268 5362.956644365349
776.0343062497905 5339.636758352297
776.9953524217381 5331.85026999482
777.9561572283274 5356.608341019635
778.9167207423689 5336.283425643718
779.8770430366476 5232.53472947093
780.8371241839159 5298.958976557956
781.7969642568951 5243.945166309916
782.7565633282757 5386.202622740736
783.7159214707099 5329.057091926142
784.6750387568281 5314.059306156914
785.6339152592227 5284.336007075131
786.5925510504512 5306.34490914583
787.5509462030477 5326.754546637982
788.5091007895098 5317.845456400403
789.4670148823006 5252.998639428181
790.4246885538596 5315.190920127608
791.3821218765861 5352.389492203742
792.3393149228505 5204.652726275866
793.2962677649975 5331.664225870885
794.2529804753303 5286.902081808546
795.20945312613 5365.4835448467
796.1656857896378 5224.589074669615
797.1216785380675 5321.130801248247
798.0774314435985 5300.986418393346
799.0329445783846 5480.0518566393
799.9882180145414 5455.162289097123
800.9432518241574 5402.374226062697
801.89804607929 5482.733593578466
802.852600851962 5621.070564670385
803.8069162141637 5512.938002520701
804.760992237856 5643.791208596142
805.714828994971 5730.4596988383455
806.6684265574077 5730.876727963945
807.6217849970271 5722.692881802943
808.574904385674 5669.914792295593
809.527784795142 5790.066529479709
810.4804262972102 5861.375131990886
811.4328289636178 5605.121212303153
812.3849928660748 5551.227522651172
813.3369180762638 5460.1448417684815
814.2886046658241 5567.029626315672
815.2400527063783 5391.803085943816
816.1912622695108 5332.261995759707
817.1422334267718 5432.92447014496
818.0929662496856 5273.061416596635
819.0434608097457 5149.442706676948
819.9937171784059 5187.275391921388
820.9437354271013 5050.136091816987
821.8935156272255 5178.153319965653
822.8430578501484 5025.806550575051
823.7923621672016 4951.18199029956
824.7414286496896 4985.403723238265
825.6902573688876 4998.914672958534
826.6388483960363 5010.535203305366
827.5872018023492 4929.1714560474575
828.5353176590033 4954.299496268255
829.4831960371503 4967.483562962878
830.4308370079016 4900.74952834237
831.3782406423525 4974.461180693332
832.3254070115545 5005.066496679109
833.2723361865319 4860.333152793285
834.2190282382799 4799.156940157576
835.1654832377644 4873.4483821000695
836.1117012559116 4836.392666101222
837.0576823636256 4998.871205444613
838.003426631778 4764.216361631463
838.9489341312074 4789.1667637858345
839.8942049327197 4923.930151297833
840.8392391070975 5003.616650801052
841.7840367250865 4852.499611325257
842.7285978573982 4814.112260722577
843.672922574724 4958.567701381316
844.6170109477152 4908.0946833361595
845.560863046996 4847.947873139327
846.5044789431595 4830.7384677852215
847.4478587067697 4785.347990794335
848.3910024083561 4968.481242943107
849.333910118421 4895.855957632508
850.2765819074339 4769.276256974339
851.2190178458332 4868.269632068101
852.161218004032 4937.835817389965
853.1031824524016 4891.203499293035
854.0449112612987 4864.754688506365
854.9864045010327 4943.265041379601
855.9276622418947 4889.385726132167
856.8686845541379 4908.752310170229
857.8094715079915 4906.024408007357
858.7500231736467 5047.152241419108
859.690339621271 4939.8933487492495
860.6304209209939 4949.178628802887
861.5702671429244 4896.490043226335
862.5098783571284 4947.713611515615
863.4492546336569 4948.809469849775
864.3883960425155 4944.76639721129
865.3273026536863 4917.514468849461
866.2659745371238 4927.196081934986
867.2044117627465 5082.0996230631945
868.1426144004472 4997.983056607094
869.0805825200823 5120.28644637252
870.0183161914847 5099.058253780025
870.9558154844526 5246.916702378839
871.8930804687552 5154.552378787208
872.8301112141307 5094.710051542763
873.7669077902865 5290.190639879198
874.7034702669062 5352.412560825133
875.6397987136315 5248.320169578497
876.5758932000863 5244.13398805785
877.5117537958522 5394.70900658035
878.4473805704911 5315.200246483613
879.3827735935283 5324.461329859761
880.3179329344603 5403.749104529939
881.2528586627541 5387.166494193155
882.1875508478479 5524.087581976038
883.1220095591489 5367.110230907694
884.0562348660296 5309.742974546675
884.9902268378391 5412.579585580617
885.9239855438955 5342.218715191821
886.8575110534839 5281.258685840286
887.7908034358588 5307.976702371047
888.7238627602474 5339.009597617868
889.6566890958475 5326.454203460584
890.5892825118208 5176.976176416587
891.5216430773125 5230.0458423000955
892.4537708614189 5187.086128146644
893.3856659332196 5040.261959723977
894.3173283617652 5077.939872587373
895.2487582160684 5094.307607545021
896.179955565116 4993.2794464482695
897.110920477864 4931.329661915034
898.0416530232451 4845.146832642279
898.9721532701478 4855.335678993153
899.9024212874428 4979.278581097901
900.8324571439662 4882.4228264678295
901.7622609085302 4777.3650217051645
902.6918326499072 4713.572722661975
903.6211724368477 4820.569198223834
904.5502803380696 4915.175136162832
905.4791564222614 4912.741547132464
906.4078007580792 4796.1064971136275
907.3362134141571 4788.733828885009
908.2643944590909 4931.045290779334
909.1923439614493 4782.141236273243
910.1200619897754 4761.691401951302
911.0475486125779 4862.084318993721
911.9748038983344 4830.542492471318
912.9018279155007 4767.939912741171
913.8286207324982 4785.838090048514
914.7551824177117 4788.926375302126
915.6815130395116 4767.382103384004
916.6076126662283 4686.655137875985
917.533481366163 4728.135886567759
918.4591192075914 4733.389874204557
919.3845262587565 4796.805392188871
920.3097025878706 4668.486220738179
921.2346482631237 4697.7285747701935
922.1593633526682 4677.797465930735
923.0838479246304 4799.003249342118
924.0081020471061 4774.178399377296
924.9321257881656 4576.131570466388
925.8559192158464 4621.849362787955
926.7794823981512 4590.474854632215
927.7028154030686 4558.19737385854
928.6259182985414 4532.666351119076
929.5487911524906 4649.030486794104
930.4714340328119 4663.790385229659
931.3938470073608 4488.176316795328
932.3160301439748 4549.749599271312
933.2379835104548 4601.519417265177
934.1597071745709 4676.262617101724
935.0812012040769 4600.770058122458
936.002465666681 4646.6402795831855
936.9235006300696 4668.143534475594
937.8443061619055 4562.85589984687
938.7648823298077 4554.6377774596485
939.6852292013809 4571.296007507145
940.6053468441951 4648.7246366468125
941.5252353257874 4493.010749481795
942.4448947136698 4663.869703576662
943.364325075323 4664.336573294313
944.2835264782043 4693.9987052013485
945.2024989897309 4681.646996237736
946.1212426773054 4655.331153950866
947.0397576082851 4762.090966961247
947.9580438500125 4864.315415109078
948.8761014697939 4848.6349432121915
949.7939305349064 4782.628449352536
950.7115311125999 4758.149081987225
951.6289032700952 4701.357091101383
952.5460470745875 4868.986834358549
953.4629625932339 4870.736672260103
954.3796498931715 4874.737704245341
955.2961090415029 4864.409672576811
956.2123401053068 4855.819823549711
957.1283431516276 4818.596014024443
958.0441182474842 4807.1655899127545
958.9596654598663 4964.252989650302
959.8749848557309 4819.3180494380595
960.7900765020167 4680.258697508037
961.7049404656209 4682.473204394336
962.6195768134185 4797.594242076498
963.5339856122537 4776.027418493199
964.4481669289453 4778.383891036084
965.3621208302793 4687.722084682577
966.2758473830145 4689.591674382605
967.1893466538822 4791.0947522995675
968.1026187095813 4651.641167102222
969.0156636167867 4655.930708748288
969.9284814421426 4760.373836169367
970.8410722522622 4636.687171693264
971.753436113735 4634.232697521586
972.6655730931161 4603.536931412648
973.5774832569368 4618.531969865283
974.4891666716958 4564.782168775683
975.4006234038698 4557.1454655796815
976.3118535198955 4473.9910160053205
977.2228570861935 4641.030686420584
978.1336341691494 4649.3062438890975
979.0441848351202 4505.486604652193
979.9545091504333 4658.589629114797
980.864607181391 4592.894301455414
981.7744789942699 4632.866319146006
982.6841246553086 4544.952546243397
983.5935442307236 4551.573550672321
984.5027377867027 4609.63290399472
985.4117053894024 4680.837854740108
986.3204471049557 4607.585985277975
987.2289629994648 4700.847488060372
988.1372531390007 4724.397074840674
989.0453175896091 4632.83162046008
989.9531564173067 4707.532740051263
990.860769688079 4573.916372485894
991.7681574678918 4642.2336575127
992.6753198226706 4687.374728682138
993.582256818323 4627.569410941936
994.4889685207218 4632.041288233917
995.3954549957143 4777.093127714952
996.301716309119 4756.430429235047
997.2077525267232 4668.674382436993
998.1135637142943 4641.723237076788
999.0191499375615 4786.4882402551575
999.924511262232 4752.765004466999
1000.8296477539861 4720.083136437845
1001.7345594784656 4728.964868055902
1002.6392465012996 4736.903113859619
1003.5437088880753 4783.038460337122
1004.4479467043584 4797.096324718259
1005.3519600156869 4584.720237347397
1006.2557488875718 4781.4818656437465
1007.1593133854858 4796.0733357035815
1008.0626535748888 4675.145202955423
1008.9657695212009 4564.567029549727
1009.8686612898182 4771.92980659177
1010.7713289461135 4770.164095839111
1011.6737725554212 4668.006864861873
1012.5759921830577 4645.577442242168
1013.4779878943027 4625.333123748484
1014.379759754418 4700.8826621032795
1015.2813078286254 4532.622663824317
1016.18263218213 4529.399615298693
1017.0837328801026 4543.766725600002
1017.9846099876886 4608.7637260019255
1018.8852635700023 4513.305191396539
1019.7856936921362 4427.14353119237
1020.6859004191447 4588.341077279274
1021.5858838160675 4497.609600278269
1022.4856439479063 4469.650560166142
1023.3851808796389 4424.525733206169
1024.2844946762143 4486.085087653531
1025.183585402554 4502.483920202993
1026.082453123554 4266.553328265751
1026.9810979040776 4494.556583039639
1027.8795198089647 4360.468003390188
1028.777718903024 4461.692777332462
1029.6756952510368 4298.800273252581
1030.5734489177648 4312.033491855218
1031.4709799679313 4281.158276229742
1032.3682884662358 4536.839384902002
1033.2653744773506 4214.60196633997
1034.1622380659192 4303.524682547226
1035.058879296559 4343.52739843299
1035.9552982338591 4440.1621182319295
1036.8514949423825 4290.867888380103
1037.7474694866614 4291.738405094149
1038.6432219312028 4248.069339342392
1039.5387523404825 4436.3735226626
1040.4340607789582 4345.522533086047
1041.3291473110476 4374.289018185302
1042.2240120011465 4409.966068383019
1043.1186549136273 4447.997044248747
1044.0130761128294 4384.641939031932
1044.9072756630649 4387.929877954433
1045.8012536286205 4437.594379046067
1046.6950100737577 4435.460082160487
1047.588545062701 4513.116325092101
1048.481858659663 4545.106672404568
1049.3749509288118 4606.244720787223
1050.2678219343034 4480.33340627578
1051.1604717402515 4511.9553477158
1052.0529004107575 4480.679187690936
1052.9451080098825 4587.014488402026
1053.8370946016694 4599.7295292297
1054.7288602501267 4549.720869242883
1055.6204050192446 4597.980042763639
1056.511728972977 4605.354116943834
1057.402832175254 4668.392103388091
1058.2937146899785 4544.318724963382
1059.1843765810263 4532.4887691299755
1060.0748179122456 4633.53970110007
1060.9650387474576 4600.164865823541
1061.855039150456 4642.405702882371
1062.7448191850071 4614.653508332105
1063.6343789148505 4595.709335213922
1064.5237184037014 4756.572678142131
1065.412837715241 4649.886136568507
1066.3017369131267 4625.718186573494
1067.190416060992 4620.226858083866
1068.0788752224398 4581.904498008711
1068.9671144610438 4551.889286769573
1069.8551338403558 4662.511973937066
1070.7429334239023 4647.597897320758
1071.6305132751695 4487.392009949823
1072.517873457633 4634.994498121595
1073.4050140347335 4536.887927227362
1074.2919350698776 4512.721338066818
1075.1786366264623 4608.75471432165
1076.0651187678395 4560.466526526067
1076.95138155735 4476.864857822
1077.8374250582929 4568.733314172365
1078.7232493339507 4656.534512682199
1079.608854447577 4577.497663957984
1080.4942404623907 4483.713598821073
1081.3794074415982 4618.136901489382
1082.2643554483657 4703.736461826738
1083.149084545841 4589.2608966945
1084.033594797138 4518.483808639896
1084.9178862653516 4629.134469580268
1085.8019590135427 4865.592823160194
1086.6858131047484 4626.798436848952
1087.5694486019802 4703.944591861783
1088.4528655682225 4675.190159731095
1089.3360640664287 4931.316376481836
1090.2190441595321 4827.068323657097
1091.1018059104317 4743.829042247339
1091.98434938201 4929.122040946533
1092.866674637111 4969.807996247737
1093.748781738559 4825.854094758894
1094.6306707491512 4684.212398432915
1095.5123417316554 4864.861514513834
1096.3937947488157 4859.325381384804
1097.2750298633455 4726.879988392897
1098.156047137938 4687.888077168584
1099.0368466352556 4697.853493176912
1099.9174284179317 4781.848879764073
1100.7977925485757 4533.305778217402
1101.6779390897755 4579.074371393907
1102.5578681040806 4597.130864050017
1103.4375796540226 4541.917278949282
1104.3170738021054 4522.78476367809
1105.1963506108077 4348.283302294849
1106.0754101425773 4439.4362998544875
1106.9542524598382 4481.548822129693
1107.8328776249855 4345.125906803274
1108.7112857003904 4316.225706919651
1109.5894767483987 4368.336923716981
1110.4674508313292 4503.753732733372
1111.3452080114657 4279.557027413089
1112.2227483510815 4425.017325774364
1113.1000719124077 4454.442504952123
1113.9771787576592 4528.87744153582
1114.854068949022 4398.321907208098
1115.7307425486542 4478.355369461651
1116.6071996186893 4572.024323230694
1117.483440221229 4807.544821569959
1118.3594644183577 4584.6409527507185
1119.235272272128 4591.382150332602
1120.1108638445658 4747.212252716465
1120.9862391976712 4878.999794554678
1121.8613983934229 4883.323389458493
1122.7363414937627 4935.060642625483
1123.6110685606182 5010.602644011151
1124.485579655884 5153.4111804350205
1125.359874841426 5095.26870184919
1126.2339541790916 5086.446095201825
1127.1078177306936 5279.314553991071
1127.9814655580267 5125.166027764155
1128.854897722851 5132.016802377764
1129.7281142869106 5131.641482549392
1130.6011153119125 5178.142570268074
1131.473900859548 5329.54218948284
1132.3464709914697 5166.214627494102
1133.2188257693178 5073.727914993844
1134.0909652546961 5054.009328040052
1134.96288950919 4954.687041189464
1135.8345985943506 5103.233313573644
1136.7060925717087 4890.3810594772995
1137.57737150277 4926.228429414438
1138.4484354490069 5079.949887260435
1139.3192844718778 4829.09863247003
1140.1899186327992 4644.686329830203
1141.060337993178 4780.987939311318
1141.930542614382 4678.704496267636
1142.8005325577597 4510.74920499405
1143.670307884635 4432.050311339729
1144.5398686563003 4555.9070507403685
1145.409214934025 4443.920058230447
1146.2783467790541 4306.635427128394
1147.1472642526023 4377.491091309191
1148.0159674158622 4421.272982637844
1148.8844563300026 4239.779593936068
1149.7527310561618 4233.554140954938
1150.6207916554504 4134.378714683857
1151.4886381889592 4044.924637504476
1152.3562707177498 4251.704003736807
1153.2236893028585 4086.1866937622885
1154.090894005296 4075.111052609649
1154.9578848860474 4084.241055087835
1155.8246620060709 4071.1796419483057
1156.6912254262988 3878.2757541594315
1157.5575752076438 3998.5712946105064
1158.42371141098 4095.238214679779
1159.2896340971656 4075.902133546402
1160.1553433270346 3960.4509919394704
1161.0208391613887 4017.6904326213444
1161.8861216610057 3983.969966601361
1162.75119088664 4025.1624303602584
1163.6160468990201 3949.1642325191888
1164.4806897588442 3937.3948345306335
1165.3451195267917 4024.652899829186
1166.2093362635114 3975.471858750751
1167.0733400296285 3944.220188012434
1167.9371308857444 3877.6274673445614
1168.8007088924278 3943.569379592992
1169.6640741102328 3971.1538706205174
1170.5272265996773 3940.0312470606596
1171.390166421259 3814.331207922163
1172.252893635452 3944.0451952298586
1173.1154083026995 4121.036189846151
1173.977710483421 4038.4695251449803
1174.8398002380145 3867.389612506659
1175.7016776268483 4052.76587531278
1176.563342710264 4022.184412775794
1177.4247955485826 3912.3347915468125
1178.2860362020947 4029.6873429599777
1179.147064731069 3932.1374292080377
1180.0078811957483 4071.2259982415685
1180.8684856563486 4005.810000627206
1181.7288781730604 4080.399440632295
1182.589058806052 4093.5405537386264
1183.4490276154593 4289.53805657003
1184.3087846614017 4075.753212366354
1185.1683300039676 4093.334783874504
1186.027663703222 4255.3589479840775
1186.8867858192025 4109.290381324892
1187.7456964119228 4206.550172660436
1188.6043955413716 4232.255487925568
1189.4628832675116 4282.29911609597
1190.3211596502842 4422.186443308028
1191.179224749596 4405.078623730346
1192.0370786253388 4225.492940981565
1192.8947213373758 4475.565962988196
1193.7521529455407 4555.588165004679
1194.6093735096438 4287.391929794618
1195.466383089477 4335.565364874505
1196.3231817447977 4437.381044319391
1197.1797695353398 4550.10301205172
1198.0361465208189 4300.3723783572805
1198.8923127609214 4427.835363609431
1199.7482683153048 4483.7248245743585
1200.6040132436028 4504.556457080787
1201.459547605431 4363.492299231797
1202.3148714603722 4474.7081064434515
1203.1699848679855 4456.77163621496
1204.0248878878065 4562.024612789131
1204.8795805793507 4273.04521512352
1205.7340630020935 4465.378823587664
1206.5883352155033 4419.84783231019
1207.4423972790064 4445.266314641203
1208.2962492520237 4269.460943776213
1209.1498911939307 4258.992435875423
1210.0033231640937 4276.467612562564
1210.8565452218427 4313.8391793600385
1211.7095574264913 4075.854257189898
1212.5623598373222 4107.4771846085
1213.4149525135963 4099.283134338081
1214.2673355145507 4110.250331093828
1215.1195088993936 3986.639655403913
1215.9714727273113 3928.2154215711366
1216.8232270574663 4110.756810518649
1217.6747719489904 3873.2947306340952
1218.5261074609934 3871.078827858136
1219.3772336525653 3945.7701941521127
1220.2281505827668 4054.7557944467203
1221.0788583106296 4104.757816207089
1221.9293568951707 3819.9407793630753
1222.7796463953746 3792.873089735779
1223.629726870202 3957.683692866388
1224.4795983785934 3888.8301271323244
1225.3292609794553 3923.8327735854627
1226.1787147316809 3680.373318708731
1227.0279596941327 3831.113314097758
1227.8769959256424 3729.6091419803242
1228.7258234850306 3916.544664850586
1229.5744424310833 3676.968481646564
1230.422852822563 3889.833929608908
1231.2710547182105 3989.59024449004
1232.119048176739 3841.841976266633
1232.9668332568417 3651.756044548571
1233.8144100171812 3871.0927147874113
1234.6617785163999 3842.753748157308
1235.508938813111 3597.6603142946333
1236.3558909659114 3689.0415010061893
1237.2026350333617 3903.201056998924
1238.049171074008 4001.0403743839533
1238.8954991463652 3800.28854051487
1239.741619308932 3834.341167048175
1240.587531620169 3868.7846715024
1241.4332361385277 3902.2994151689427
1242.2787329224248 3768.4086251641056
1243.1240220302534 3735.0806289571146
1243.9691035203869 3715.8283802052006
1244.813977451171 3980.082340020103
1245.6586438809263 3848.9762292577348
1246.5031028679496 3591.455902552043
1247.3473544705157 3882.1589209975195
1248.1913987468706 3831.8772842267635
1249.0352357552383 3597.817597322618
1249.8788655538228 3832.1198807190476
1250.7222882007918 3863.8751791912873
1251.565503754302 3860.532405172299
1252.4085122724755 3641.0316426423074
1253.2513138134182 3880.575548940361
1254.0939084352049 3892.4037165171126
1254.9362961958905 3865.420161089397
1255.7784771535007 3851.846418299694
1256.6204513660432 3900.833558999018
1257.4622188915 4152.421942229987
1258.3037797878242 3842.6491842498936
1259.1451341129468 3796.679638358145
1259.9862819247755 3942.3928193239676
1260.8272232811978 3922.8438430445954
1261.6679582400666 4079.061988418038
1262.5084868592203 3790.730262020167
1263.34880919647 3804.8815813117953
1264.1889253095997 3972.302863474904
1265.0288352563712 4012.458460395714
1265.8685390945266 3917.6635552934213
1266.7080368817751 4060.4798801560937
1267.5473286758115 4127.283404848713
1268.386414534294 4020.988806914046
1269.2252945148703 3896.751724254746
1270.0639686751547 3966.423596644873
1270.9024370727402 3976.538296050272
1271.7406997651997 3922.585408891018
1272.5787568100714 3831.643188522762
1273.4166082648808 3948.1122188744494
1274.2542541871244 4007.072585301842
1275.091694634275 4167.684230305813
1275.9289296637817 3828.2060043485435
1276.7659593330663 4031.9360462628574
1277.6027836995308 3976.727183662343
1278.4394028205552 4092.983107060515
1279.2758167534867 3960.8162280977494
1280.112025555658 3880.6636616935866
1280.9480292843746 4007.0397757675178
1281.7838279969128 3874.226665116753
1282.6194217505326 3914.73036656759
1283.4548106024686 3826.8377888075966
1284.289994609926 3891.260974332689
1285.1249738300921 4009.9660446673633
1285.959748320127 3915.7009743924914
1286.7943181371702 3960.049246961018
1287.6286833383328 3959.5567746513007
1288.4628439807038 4039.3573985455128
1289.2968001213521 3903.7414051459637
1290.1305518173194 3973.791621931766
1290.9640991256183 4027.2287561655767
1291.7974421032523 3922.488767470322
1292.630580807183 3894.706421963753
1293.463515294361 4058.8124179731435
1294.29624562171 4209.887633417982
1295.12877184613 3993.3161396983824
1295.961094024493 4068.5716802339157
1296.79321221365 4156.802695775878
1297.6251264704333 4116.613100794789
1298.4568368516466 4413.93526330569
1299.2883434140658 4129.655943844471
1300.1196462144526 4042.735288924334
1300.9507453095375 4379.1033333853575
1301.7816407560313 4326.601228444818
1302.6123326106172 4243.686074634561
1303.4428209299622 4222.850640830304
1304.2731057707024 4462.5708577404175
1305.1031871894502 4359.077626812974
1305.933065242798 4447.542435356058
1306.7627399873181 4371.704321673594
1307.5922114795467 4703.762218892387
1308.4214797760123 4568.274941196909
1309.2505449332057 4414.892364918395
1310.0794070076026 4574.533350339423
1310.9080660556538 4705.704640379905
1311.736522133786 4733.990889354731
1312.5647752983987 4597.340868819006
1313.3928256058734 4378.911450057622
1314.2206731125661 4722.346320535422
1315.048317874809 4691.48921551835
1315.8757599489109 4580.961373077987
1316.7029993911547 4710.3960898785535
1317.5300362578055 4811.28346860523
1318.356870605101 4595.627216410906
1319.183502489257 4715.922355116164
1320.0099319664623 4830.929766657684
1320.836159092889 4885.494849730743
1321.66218392468 4865.285020208305
1322.4880065179532 4746.2849101046795
1323.3136269288134 4779.513680206911
1324.1390452133292 4891.172628396774
1324.9642614275563 5040.7442756982255
1325.7892756275214 4838.782711286249
1326.6140878692295 4740.338391152618
1327.4386982086617 5190.412805482158
1328.2631067017755 4903.911234705601
1329.0873134045069 4848.144953113694
1329.911318372764 4669.822345209829
1330.735121662441 4758.605126431518
1331.558723329399 4568.751746585157
1332.3821234294774 4500.413655609984
1333.2053220185007 4626.69644900979
1334.0283191522612 4471.463499264138
1334.851114886529 4530.092213248443
1335.6737092770582 4270.942468299678
1336.4961023795695 4382.600994971842
1337.3182942497697 4231.235994992411
1338.1402849433325 4367.448464791102
1338.962074515921 4216.623875984031
1339.7836630231632 4015.1683225890433
1340.6050505206676 4439.09591010367
1341.426237064028 4274.264473178606
1342.2472227088037 4113.841580981326
1343.0680075105338 3967.645861061769
1343.888591524741 4156.46437199968
1344.7089748069138 4211.9811242012165
1345.5291574125276 4031.810647466461
1346.3491393970307 3928.6174502805325
1347.168920815846 4101.339081610945
1347.9885017243778 4190.154971759432
1348.8078821780036 3985.399201644698
1349.6270622320844 4045.0260850680816
1350.4460419419447 3959.4682445398334
1351.2648213629054 4003.968432380643
1352.0834005502438 3905.178550915284
1352.90177955923 3938.777845272093
1353.7199584451064 4015.29326022898
1354.5379372630887 3971.3394326535513
1355.355716068374 3873.0629862078617
1356.1732949161305 3916.039323561192
1356.9906738615155 3922.559423785322
1357.8078529596478 3897.775887539243
1358.6248322656375 3962.271212544934
1359.441611834567 3911.9857412038773
1360.2581917214866 3968.399639695447
1361.0745719814367 3828.1543360984397
1361.890752669433 3903.058210477917
1362.7067338404577 3747.63937643157
1363.5225155494845 3974.975629957958
1364.3380978514506 4057.350150492045
1365.1534808012839 3832.5697298439445
1365.9686644538815 3712.061741069366
1366.783648864117 4101.797006480435
1367.5984340868417 4069.6176108157574
1368.413020176893 3959.2829305767227
1369.2274071890715 3873.58241751844
1370.0415951781652 4034.089525096116
1370.8555841989346 3904.396751965385
1371.6693743061223 3798.3127350661744
1372.48296555444 3704.2105260586686
1373.2963579985844 3934.224555118857
1374.1095516932255 3907.10992471845
1374.9225466930166 3693.9020984851754
1375.7353430525782 3897.082568829216
1376.5479408265164 3785.1064736176895
1377.36034006941 3890.38725101377
1378.1725408358216 3929.029783380236
1378.9845431802805 3643.723739084987
1379.796347157304 4073.8911734689236
1380.6079528213813 3935.0023504096584
1381.4193602269788 3706.4900815630454
1382.230569428546 3766.5682043939696
1383.0415804805016 3900.183627267676
1383.852393437246 3822.5287622091732
1384.6630083531563 3900.4862082684676
1385.4734252825892 3801.7629366461747
1386.2836442798798 3902.841134277676
1387.0936653993322 3941.040698596308
1387.9034886952395 3804.864277769296
1388.713114221864 4015.70839497158
1389.5225420334482 4001.003681212243
1390.331772184214 3885.4339135203345
1391.1408047283585 3712.0090309312704
1391.9496397200564 3902.9885109946167
1392.758277213461 4002.8847796987275
1393.5667172627054 4088.221522715433
1394.3749599218918 3878.136394674184
1395.1830052451114 3784.5133222697223
1395.9908532864265 3752.3802948363727
1396.7985040998774 4034.84407767749
1397.6059577394808 3852.3812100164505
1398.4132142592352 3802.3688927353915
1399.2202737131156 3861.1939475891095
1400.027136155073 4022.034411794536
1400.8338016390353 3857.162302387511
1401.6402702189134 3694.6267010446427
1402.446541948586 3827.899522966521
1403.2526168819204 3778.298596004564
1404.058495072757 3737.6766823151556
1404.8641765749107 3832.6594969139724
1405.6696614421799 3764.097249841279
1406.4749497283356 4159.712111064733
1407.280041487129 3751.4171424576757
1408.084936772295 3593.380660526079
1408.8896356375335 3860.6982442458384
1409.6941381365323 3903.0656065629096
1410.498444322955 3631.228337989907
1411.3025542504402 3725.0399429583936
1412.106467972606 3814.178700017984
1412.9101855430508 3864.05055776366
1413.7137070153458 3629.9161585473475
1414.5170324430437 3672.0757675499544
1415.320161879672 3778.704660933211
1416.1230953787435 3930.085247105041
1416.925832993742 3582.780037735921
1417.7283747781275 3641.723546657274
1418.5307207853439 3703.9786234686026
1419.3328710688093 3769.617545113551
1420.134825681922 3509.854222619724
1420.9365846780584 3613.3245436929283
1421.7381481105713 3861.4097425371992
1422.539516032788 3834.2457037988847
1423.3406884980232 3575.9665205600186
1424.1416655595604 3706.2389476934854
1424.942447270665 3713.723369368638
1425.7430336845828 3933.699011328171
1426.5434248545298 3617.509711597054
1427.3436208337116 3913.1620897540733
1428.143621675301 3747.75381864176
1428.9434274324558 4032.8593953059944
1429.7430381583108 3689.441472340477
1430.5424539059713 3852.184469412465
1431.3416747285337 4060.8362857856955
1432.1407006790632 3967.3381022175336
1432.9395318106053 3882.6479372421154
1433.7381681761835 3851.8537751597587
1434.5366098288014 4048.874088636945
1435.3348568214424 4000.443936462018
1436.1329092070573 3832.4809335332116
1436.9307670385879 3898.425243326003
1437.7284303689503 3959.3687544271947
1438.5258992510335 4068.1056447350443
1439.3231737377118 3883.1529547019736
1440.1202538818306 3853.0921701185603
1440.9171397362225 3832.800845533852
1441.7138313536925 3932.180243010104
1442.5103287870243 3724.0001680745227
1443.3066320889775 3658.04413972498
1444.1027413122956 3975.297130888818
1444.8986565096966 3792.596720276289
1445.694377733882 3780.5578402016326
1446.4899050375207 3683.4676070425694
1447.2852384732687 3710.4929558154413
1448.0803780937622 3894.726854925554
1448.8753239516063 3646.2999893197834
1449.6700760993954 3512.9325640641678
1450.464634589689 3646.936155189992
1451.2589994750397 3980.400544935596
1452.0531708079689 3575.733860540144
1452.8471486409799 3553.5316661545394
1453.6409330265524 3784.7261791606666
1454.4345240171442 3585.753633444053
1455.2279216651987 3557.054555843708
1456.0211260231263 3568.8363768734475
1456.8141371433194 3950.097562542154
1457.6069550781594 3781.4803530178615
1458.3995798799897 3461.8940780448384
1459.1920116011424 3485.9883514428825
1459.98425029393 3521.1503724765207
1460.7762960106338 3411.604208332554
1461.5681488035225 3549.0292578045105
1462.3598087248392 3563.7568988614285
1463.1512758268036 3733.94749691507
1463.942550161617 3390.8455111213016
1464.7336317814625 3348.785506329961
1465.524520738496 3515.017181622189
1466.3152170848552 3337.5028311033157
1467.1057208726506 3389.399800307602
1467.8960321539817 3257.692044954598
1468.6861509809169 3192.9911144576736
1469.4760774055085 3227.0035482570247
1470.265811479785 3286.6506278084403
1471.055353255755 3097.7250735542484
1471.844702785409 3044.5636010845005
1472.6338601207044 3231.2506743918657
1473.4228253135934 3330.181368894572
1474.2115984159936 3048.350217192475
1475.0001794798063 2985.5429767095766
1475.7885685569145 3196.8073093146195
1476.576765699172 3060.8395866800183
1477.3647709584238 3099.585156231564
1478.1525843864802 3295.6451885254814
1478.9402060351367 3123.3816920461854
1479.7276359561693 3142.436370627135
1480.514874201328 2924.648545174804
1481.3019208223468 2780.888580272281
1482.0887758709323 2927.606902357703
1482.8754393987747 3192.658022446597
1483.6619114575406 2908.573727893586
1484.4481920988783 3023.091123395519
1485.2342813744108 3057.3031035316917
1486.0201793357446 3255.738625075727
1486.8058860344572 2931.703545880416
1487.591401522117 2916.9577301626805
1488.3767258502594 2993.0613573948626
1489.1618590704056 2967.740237494409
1489.9468012340494 2768.2726808981247
1490.7315523926754 3117.4311542420064
1491.5161125977356 3126.0185029922172
1492.3004819006637 3100.014922043662
1493.084660352877 2935.675330098041
1493.8686480057622 3119.2681948510617
1494.6524449106964 3331.076377972914
1495.4360511190262 3319.270445400233
1496.219466682087 3045.266276939682
1497.0026916511779 3026.1043828034576
1497.7857260775945 3090.0298632380045
1498.5685700125996 3240.7693734700433
1499.3512235074395 2936.1512662882624
1500.133686613337 2883.9622582347
1500.9159593814966 2927.6580425427787
1501.698041863101 3411.0758923968447
1502.4799341093094 2847.493735658682
1503.2616361712662 2830.96183182826
1504.043148100087 3085.051906662891
1504.8244699468742 3165.2963787154777
1505.6056017626997 2905.698367500928
1506.3865435986281 2889.858869606068
1507.1672955056893 3100.354076949798
1507.9478575348967 2928.461488975973
1508.7282297372512 3106.8574248384807
1509.5084121637192 3055.5507111810143
1510.2884048652577 3046.9749508408863
1511.0682078927948 3011.414339178896
1511.8478212972423 2997.3142259538686
1512.6272451294917 2927.5963447154086
1513.4064794404076 3026.3600758047005
1514.1855242808433 3138.33710842553
1514.9643797016215 3015.558154291164
1515.743045753552 3171.8142420014606
1516.5215224874191 3070.878404965714
1517.2998099539836 2858.5994093382897
1518.077908203999 3087.276801450365
1518.8558172881785 3044.0348436970316
1519.633537257234 3169.2673884956034
1520.4110681618404 3112.3832300103973
1521.1884100526604 3076.3088357369065
1521.9655629803365 3046.960414665734
1522.7425269954856 3231.668171829046
1523.5193021487103 3401.9342738436594
1524.2958884905856 3006.9131445660614
1525.0722860716687 3094.3703274533514
1525.848494942502 3119.321067928473
1526.624515153595 3153.460550055811
1527.4003467554485 3118.185956936544
1528.175989798534 3227.332439777421
1528.9514443333064 3234.464958351991
1529.726710410203 3416.4226286194507
1530.5017880796331 3005.9078293894136
1531.276677391992 3067.648138141653
1532.0513783976457 3304.6037123178853
1532.825891146953 3134.994339231822
1533.6002156902414 3216.4880741773536
1534.3743520778207 3079.2839526599582
1535.1483003599806 3215.8527383474416
1535.9220605869923 3227.689627433874
1536.6956328091019 3164.772021735001
1537.4690170765407 3110.0101611557325
1538.242213439511 3248.175857138304
1539.015221948208 3135.4002830300246
1539.78804265279 3127.4715425539052
1540.560675603405 3044.3183477927523
1541.3331208501804 3301.182675357043
1542.1053784432224 3428.1577600540245
1542.8774484326168 3224.3454376493173
1543.649330868422 3136.697007860236
1544.4210258006842 3219.1802791096097
1545.1925332794308 3198.863625820588
1545.9638533546604 3131.8533194301044
1546.7349860763552 3170.61595409494
1547.5059314944829 3414.907251713533
1548.27668965898 3158.198926611536
1549.0472606197673 3240.2287627327505
1549.817644426752 3046.3470027862336
1550.5878411298072 3331.2770252548753
1551.3578507787988 3228.7814531941026
1552.1276734235635 3167.5903037492826
1552.8973091139233 3277.5888234543854
1553.6667578996767 3318.4524803740715
1554.436019830604 3103.1958548232847
1555.20509495646 3167.8925904670878
1555.9739833269869 3177.568276317046
1556.7426849919011 3171.2457999810335
1557.511200000903 3436.258887506048
1558.2795284036674 3317.5227716747713
1559.0476702498509 3178.2170417331276
1559.8156255890954 3385.0380520114495
1560.5833944710157 3611.276040036343
1561.3509769452048 3261.9987550783744
1562.1183730612447 3317.379014043004
1562.8855828686865 3313.3454574205643
1563.6526064170703 3535.6359334896506
1564.4194437559127 3483.1955102442503
1565.1860949347047 3331.8386181013784
1565.9525600029283 3650.3592290086845
1566.7188390100328 3736.040221628041
1567.4849320054564 3275.6631518178024
1568.250839038612 3315.2651483269524
1569.0165601588997 3390.640996419284
1569.7820954156887 3455.015621361402
1570.5474448583373 3367.0665267441086
1571.31260853618 3372.715152668045
1572.0775864985299 3225.242821239235
1572.8423787946813 3484.4377643607986
1573.6069854739108 3328.666980998948
1574.371406585471 3405.6618318187443
1575.1356421785986 3559.285089509337
1575.899692302506 3433.85786547088
1576.6635570063845 3453.4131967428484
1577.4272363394157 3371.6410013458017
1578.190730350747 3367.680289938207
1578.9540390895163 3562.46703783295
1579.7171626048384 3187.3953579973413
1580.480100945806 3304.5924736209645
1581.2428541614918 3406.6961122211324
1582.0054223009538 3492.8931510077373
1582.767805413223 3370.503565363803
1583.5300035473156 3432.4641556575602
1584.292016752228 3577.2610955011564
1585.0538450769309 3459.691519401006
1585.8154885703807 3264.012392689445
1586.5769472815136 3189.9395451669166
1587.3382212592405 3401.60065850007
1588.099310552463 3492.267245833961
1588.8602152100484 3317.983516781721
1589.6209352808564 3388.439182878182
1590.3814708137234 3270.424884620887
1591.14182185746 3322.5519616512656
1591.9019884608679 3158.2503377792086
1592.6619706727215 3070.0814594904514
1593.4217685417734 3257.1586448033186
1594.1813821167616 3421.3592148289135
1594.9408114464022 2996.674694406809
1595.7000565793933 3211.0361327247506
1596.459117564409 3270.463247850799
1597.2179944501113 3105.307028410464
1597.9766872851324 3113.956288653292
1598.735196118092 3281.5695654030324
1599.4935209975883 3271.460630557801
1600.2516619721973 3290.0213879503694
1601.0096190904787 3150.220452425855
1601.7673924009723 3065.3530981257504
1602.524981952196 3039.4626814334497
1603.2823877926476 3115.185317010179
1604.0396099708087 2991.851628195299
1604.7966485351371 3060.6633404314493
1605.5535035340745 3027.437315979977
1606.3101750160404 3244.1627846502497
1607.0666630294363 2951.854632594341
1607.822967622642 2906.197222384201
1608.5790888440224 3104.947351461433
1609.3350267419137 3227.5640271954335
1610.0907813646445 3067.2012726575267
1610.8463527605145 3037.6540450484413
1611.601740977805 3134.442947008523
1612.356946064785 3108.669873966989
1613.1119680696902 2941.548332580326
1613.8668070407512 2984.050047122041
1614.6214630261748 3005.1827293445585
1615.375936074137 3102.1022127522174
1616.1302262328118 3000.5297006214705
1616.8843335503425 3171.8507889976786
1617.638258074854 2937.1699940612893
1618.391999854457 3054.016675064998
1619.1455589372363 3121.9432146772497
1619.8989353712623 2951.645916252467
1620.65212920458 2773.452742409506
1621.4051404852235 2954.428453058238
1622.1579692611976 3070.129790509302
1622.9106155804966 2839.7046626029182
1623.663079491087 2956.222773916567
1624.4153610409248 3160.1580068381454
1625.1674602779385 2942.6819139652407
1625.9193772500403 2888.8720504419084
1626.6711120051277 3124.9284075118053
1627.4226645910676 2986.568948271468
1628.174035055721 2857.8019258040254
1628.9252234469168 3053.997283577922
1629.676229812474 2918.56651512147
1630.4270542001905 3180.6538621171835
1631.1776966578382 3085.9863737077167
1631.9281572331747 2971.6959111615424
1632.678435973945 3134.843369158452
1633.4285329278573 3121.470238213759
1634.1784481426203 2938.6210682284245
1634.9281816659113 2975.582843451316
1635.677733545388 3320.1104029403627
1636.4271038286934 3070.774367987918
1637.176292563452 3224.7348795481357
1637.9252997972635 3232.826551607014
1638.674125577716 3230.869076839709
1639.4227699523672 3578.3465209588926
1640.171232968767 3097.338906936057
1640.9195146744423 3147.8445520655873
1641.6676151168977 3473.8125236268825
1642.4155343436178 3485.3725469981387
1643.1632724020765 3317.7506014186997
1643.9108293397167 3357.4424738263674
1644.658205203974 3225.933537492193
1645.4054000422566 3804.6828156920697
1646.1524139019566 3349.1386550083416
1646.8992468304423 3184.1835528190118
1647.6458988750728 3306.875464523235
1648.3923700831765 3281.2721472328
1649.1386605020743 3292.4478842475864
1649.8847701790564 3587.288138998054
1650.6306991614038 3437.393560440693
1651.3764474963682 3572.771677050971
1652.1220152311944 3204.3636554311106
1652.867402413096 3461.587992320401
1653.6126090892776 3470.2982537103526
1654.3576353069184 3613.1731301957407
1655.1024811131829 3416.4329350881526
1655.8471465552066 3453.266809426727
1656.5916316801213 3573.949691838133
1657.3359365350298 3510.9887687005494
1658.0800611670165 3347.5849317123916
1658.824005623148 3445.507158630112
1659.5677699504722 3258.217632302042
1660.3113541960192 3448.393626457243
1661.054758406799 3367.4251983056442
1661.7979826297997 3239.7680639472287
1662.5410269119966 3228.4951680625995
1663.283891300338 3489.052481997216
1664.0265758417645 3233.585189141496
1664.7690805831826 3322.744389580417
1665.5114055714948 3396.343042452855
1666.2535508535748 3550.5511040482734
1666.9955164762814 3024.6178559833916
1667.7373024864555 3212.9988759060748
1668.478908930916 3349.6189020449774
1669.220335856462 3172.302150209124
1669.9615833098778 3162.296981148859
1670.7026513379296 3039.141391961264
1671.44353998736 3197.622604730945
1672.1842493048916 3265.3022560784952
1672.9247793372379 3086.7554985679058
1673.6651301310812 3256.9392300610734
1674.4053017330934 3006.5638362899044
1675.1452941899242 3303.246835734426
1675.885107548207 2622.151921734782
1676.6247418545518 2894.088192913155
1677.3641971555535 2939.278460886643
1678.1034734977893 3125.69387205452
1678.8425709278108 3007.049618356793
1679.5814894921605 3103.5646928237634
1680.320229237359 2926.761045811558
1681.0587902098978 3148.93731649735
1681.7971724562685 2867.9785627596416
1682.5353760229264 2732.8626261899653
1683.2734009563173 3021.4884113578264
1684.0112473028657 2895.667334426511
1684.7489151089794 2972.589771132728
1685.4864044210462 2978.902485666159
1686.2237152854377 2582.0071940714865
1686.960847748498 3027.4366950510234
1687.6978018565642 2679.5016189811718
1688.434577655944 2644.1508226013752
1689.1711751929379 2571.11687736101
1689.9075945138156 2691.0983905877465
1690.6438356648396 2668.1427735503653
1691.3798986922448 2313.4361176505395
1692.1157836422499 2675.7151867842085
1692.851490561059 2535.0320095663446
1693.587019494853 2707.401171803841
1694.3223704897991 2313.7503234129026
1695.0575435920364 2357.3881971933524
1695.792538847696 2823.755478279112
1696.527356302886 2392.6194263500724
1697.2619960036936 2330.1610212332885
1697.9964579961907 2296.925313795996
1698.730742326432 2122.49735759853
1699.4648490404488 2139.7299587805715
1700.1987781842563 2338.6739809945584
1700.9325298038548 2520.304662291705
1701.6661039452174 2554.0686870753093
1702.3995006543082 2356.0862194744327
1703.1327199770658 2542.693851692003
1703.865761959416 2279.2602112071922
1704.598626647261 2522.208111220358
1705.3313140864866 2133.493092371997
1706.0638243229587 2249.501482447862
1706.7961574025303 2336.262625595494
1707.528313371029 2282.2164309317986
1708.260292274268 2037.4570426069797
1708.9920941580403 2206.050056501493
1709.7237190681226 2258.6152816972576
1710.4551670502697 2204.528587155267
1711.18643815022 1958.4869668781662
1711.9175324136959 2459.678753753182
1712.6484498863938 2207.583044097533
1713.379190614005 1953.0728337275364
1714.109754642188 2083.6171411309515
1714.8401420165883 2115.7174004558624
1715.570352782839 2551.0070304772935
1716.3003869865497 2183.4306023504237
1717.0302446733076 2019.3234340631195
1717.7599258886876 2159.82302715113
1718.4894306782444 2412.4603912464636
1719.2187590875183 1944.772365752422
1719.9479111620203 2313.4473433382573
1720.6768869472544 2047.5807759285628
1721.4056864887025 2302.419952712124
1722.1343098318284 2343.3820582967664
1722.8627570220742 2094.1482045576095
1723.591028104871 2006.615033017601
1724.3191231256242 1920.3736141123663
1725.0470421297232 2036.1499768235578
1725.7747851625427 2232.462376567666
1726.5023522694337 2198.4610117487273
1727.2297434957363 2127.3493623662443
1727.9569588867635 1857.0814811453813
1728.6839984878152 2162.6544566930374
1729.4108623441734 2191.3679482976418
1730.1375505011038 2220.327442961811
1730.8640630038426 1916.7973364722463
1731.5903998976264 1948.0471083539699
1732.316561227657 2089.380285089622
1733.0425470391274 1846.2096014239055
1733.7683573772065 2008.531380293564
1734.4939922870508 2004.8781287089928
1735.2194518137949 2047.5549712349446
1735.9447360025606 2023.969145911483
1736.669844898439 2005.5177751377182
1737.3947785465189 1819.770628085742
1738.1195369918605 1820.6236862775088
1738.8441202795093 1958.1418875225693
1739.5685284544943 2046.7658965061771
1740.292761561821 2089.46247766724
1741.0168196464838 2061.6542682242098
1741.7407027534518 2040.6662042852836
1742.464410927687 2005.095134562724
1743.187944214118 1951.1223355344205
1743.9113026576688 1920.2159638196165
1744.634486303241 1941.6395473657612
1745.3574951957125 1968.615928561017
1746.0803293799509 2113.531568998023
1746.8029889008048 1991.4906580801114
1747.5254738031017 1947.9498388494842
1748.2477841316504 1872.7050545994098
1748.969919931249 1899.3158915118747
1749.6918812466665 1952.2709480672897
1750.4136681226646 2140.8401109326232
1751.1352806039777 1914.3809157283963
1751.856718735331 1644.0594785399176
1752.5779825614281 1759.2562506872214
1753.2990721269507 2043.5114643331394
1754.0199874765676 2006.9143259050331
1754.7407286549314 1734.050198475098
1755.4612957066693 1872.4414691107825
1756.1816886763954 1757.1337565143033
1756.9019076087097 1951.7266039869974
1757.6219525481865 2008.731302098177
1758.3418235393856 2008.4389741115865
1759.061520626854 2036.9409743746778
1759.7810438551096 2096.6764954158475
1760.5003932686614 1820.1255670013984
1761.2195689119999 2138.566601178047
1761.938570829594 2002.3042909136143
1762.657399065898 1890.3556225211548
1763.376053665348 1734.415741057654
1764.0945346723602 1781.2188926384042
1764.812842131334 2083.1149314846566
1765.5309760866512 1786.463243122303
1766.2489365826787 1723.4547431062579
1766.9667236637597 1834.7413425436923
1767.684337374223 1643.1175783452454
1768.401777758383 1768.919328494599
1769.1190448605284 1758.1642279977295
1769.836138724937 1718.9230756228203
1770.5530593958665 1916.754932474887
1771.2698069175603 2082.4849878172354
1771.9863813342326 2128.52976875484
1772.702782690094 1790.2537086725438
1773.4190110293293 1965.690154961733
1774.1350663961111 2066.3554756667854
1774.8509488345844 1764.0806143330751
1775.5666583888924 1876.4061578323199
1776.2821951031437 2025.5558737649467
1776.9975590214362 1812.648279324815
1777.7127501878585 2085.1653622770746
1778.4277686464684 1954.571268358126
1779.1426144413108 2052.2864389986667
1779.8572876164162 1995.493589991282
1780.571788215797 1763.7132980847425
1781.2861162834415 1926.1376597815347
1782.0002718633277 1881.4008505073623
1782.7142549994132 1952.5126282794627
1783.4280657356376 1897.15816778343
1784.141704115922 1758.4970072413093
1784.855170184177 1803.5455303220829
1785.5684639842839 1884.904333795427
1786.2815855601148 1617.8271769327962
1786.9945349555237 1922.3971715961663
1787.707312214343 1750.5586242074398
1788.4199173803918 1707.0138832769233
1789.132350497468 1663.5425297153356
1789.8446116093583 1851.9412965417516
1790.556700759822 1794.5881120246418
1791.2686179926077 1798.2097385530335
1791.9803633514493 1784.7642825070766
1792.6919368800554 1635.0748875627673
1793.4033386221236 1911.1912540345015
1794.1145686213295 2000.6998474493248
1794.8256269213307 2002.8199816881747
1795.536513565774 1796.88919468827
1796.247228598284 1576.582358244159
1796.9577720624693 1678.349461407978
1797.6681440019165 1792.6268720775402
1798.3783444602013 1835.532581524075
1799.0883734808776 1881.7377841243801
1799.7982311074884 1920.508358163822
1800.5079173835475 1854.5035145815298
1801.2174323525633 1900.510163748395
1801.9267760580187 1763.1386721663573
1802.635948543386 1934.5673781633836
1803.3449498521113 1689.3798560075757
1804.0537800276325 1902.2542059727662
1804.7624391133668 1797.4485980553168
1805.47092715271 1596.428091051567
1806.1792441890484 1685.344640702145
1806.8873902657433 1910.4759174866363
1807.5953654261448 1802.239625046861
1808.3031697135812 1794.3975788975774
1809.0108031713662 1710.0537802704523
1809.71826584279 1785.284704466781
1810.425557771141 1762.3179611013074
1811.1326789996747 1772.5467879607029
1811.839629571632 1782.6903544394143
1812.5464095302468 1742.7174184786406
1813.2530189187182 1871.1467771877476
1813.959457780249 1752.595871567306
1814.6657261580076 1875.2212481998613
1815.371824095153 1834.2428946627838
1816.0777516348262 1880.1769478923732
1816.78350882015 1492.2969966971043
1817.4890956942272 1440.3552748898737
1818.1945123001533 1806.030361973087
1818.8997586809928 1836.346746603055
1819.6048348798067 1620.37145779728
1820.3097409396287 1824.9619918660342
1821.0144769034796 2049.831521637107
1821.7190428143622 1835.1097272841344
1822.423438715261 1916.4267219125372
1823.1276646491478 1679.4318398804444
1823.8317206589727 1753.8399440449925
1824.5356067876692 1821.5003464019915
1825.2393230781581 1753.0050656668286
1825.942869573335 1600.3974437196143
1826.646246316086 1576.3597599747332
1827.3494533492758 1872.722283186892
1828.052490715756 1810.927921049808
1828.7553584583547 1797.9452466846465
1829.458056619891 1817.830181363582
1830.1605852431585 1732.5585759147173
1830.8629443709433 1717.2046205505164
1831.5651340460063 1677.4882103359535
1832.2671543110919 1553.5326616083278
1832.9690052089318 1819.2053959719735
1833.6706867822395 1500.4723853124306
1834.3721990737104 1858.7807247213416
1835.0735421260233 1814.703589995753
1835.774715981841 1735.3219131346073
1836.4757206838058 1951.8043153138206
1837.1765562745459 1737.5490290075807
1837.8772227966747 1632.742583139624
1838.5777202927839 1665.9797301447968
1839.2780488054523 1678.4210354771271
1839.9782083772352 1591.029914228678
1840.6781990506806 1931.4075739458553
1841.378020868313 1714.1717937486787
1842.0776738726418 1774.7988917538419
1842.777158106157 1690.8189566346214
1843.4764736113375 1591.1336411451653
1844.1756204306403 1817.660289740821
1844.8745986065078 1778.6764683937683
1845.5734081813607 1587.3675991905102
1846.2720491976124 1708.9496614383672
1846.970521697649 1555.6709482398164
1847.6688257238511 1793.1114534784251
1848.3669613185684 1658.5403238885417
1849.0649285241452 1497.4232910721344
1849.7627273829057 1647.1229190017468
1850.460357937156 1708.0300714215587
1851.1578202291857 1471.9800004017357
1851.8551143012664 1703.977043133683
1852.5522401956569 1797.6135506434189
1853.2491979545957 1880.4315024854252
1853.9459876203055 1591.5720501472372
1854.6426092349902 1520.767065042758
1855.3390628408451 1679.4275927996932
1856.0353484800362 1929.0386414587963
1856.7314661947203 1806.1486958102512
1857.4274160270397 1537.1025567480435
1858.123198019115 1687.9206814188
1858.8188122130487 1508.3844458377705
1859.5142586509319 1729.5613458117132
1860.209537374838 1581.822698276475
1860.9046484268183 1598.6522086299792
1861.599591848917 1824.700164678646
1862.294367683151 1674.0282151842864
1862.988975971528 1577.8748693232271
1863.6834167560355 1682.5347924752066
1864.3776900786452 1909.2170668961032
1865.0717959813119 1617.8326596072902
1865.7657345059724 1435.0353525104447
1866.4595056945564 1814.777520288992
1867.1531095889586 1733.2408648137607
1867.846546231076 1408.6882060790315
1868.5398156627743 1474.1698342689845
1869.2329179259123 1539.7818139885903
1869.9258530623283 1825.8595193240867
1870.618621113843 1526.6201318396893
1871.3112221222636 1531.3691360016164
1872.0036561293764 1515.8768891660254
1872.695923176956 1774.560538128691
1873.3880233067594 1816.3513349484579
1874.0799565605212 1532.5093642804045
1874.7717229799673 1729.2604663865702
1875.4633226068036 1889.3216583032613
1876.1547554827175 1755.8480417998312
1876.8460216493859 1493.2367894504173
1877.5371211484617 1583.7178821607724
1878.2280540215852 1520.869839374805
1878.9188203103804 1457.8975779775417
1879.6094200564548 1581.2951007032489
1880.299853301396 1592.2650374364182
1880.9901200867826 1789.5569596339399
1881.6802204541673 1720.747558876456
1882.3701544450942 1792.2038332985321
1883.059922101087 1841.950099877547
1883.7495234636517 1891.7358482710356
1884.4389585742792 1562.6747045019831
1885.1282274744517 1570.8516717348232
1885.8173302056166 1638.3242458239508
1886.506266809225 1705.889436419306
1887.195037326701 1499.9110236219426
1887.8836417994517 1583.1563871999847
1888.5720802688702 1810.50778013532
1889.260352776333 1854.8072332592164
1889.9484593632042 1858.0266954528638
1890.63640007082 1520.746770072872
1891.3241749405151 1500.4552083476726
1892.0117840135954 1743.1604410079738
1892.6992273313572 1555.9528876031386
1893.3865049350788 1457.4372265151644
1894.0736168660223 1536.902584352128
1894.7605631654333 1616.4384388949366
1895.4473438745408 1439.1726621729954
1896.133959034556 1872.1121683159017
1896.820408686679 1779.437211096653
1897.506692872088 1882.5217247680648
1898.192811631945 1580.9525550739077
1898.8787650073991 1665.0427326455188
1899.5645530395832 1771.9017718199543
1900.2501757696118 1777.6194815515366
1900.9356332385796 1483.6493701043642
1901.620925487574 1869.246281737501
1902.3060525576602 1657.701022281209
1902.9910144898859 1621.1674414544464
1903.6758113252872 1557.3808966653494
1904.3604431048789 1757.4725708845206
1905.0449098696663 1800.410934879444
1905.7292116606295 1528.7547020447437
1906.4133485187394 1714.9098075673276
1907.0973204849488 1322.7655202951426
1907.7811276001976 1450.4722530042382
1908.4647699053967 1673.6734299461514
1909.1482474414588 1661.5853486724864
1909.8315602492694 1649.3929561504326
1910.5147083696957 1832.7699531279977
1911.1976918436012 1585.1271419219293
1911.880510711815 1480.5535927746923
1912.5631650151681 1457.7165111234979
1913.2456547944657 1434.8058727666107
1913.927980090495 1534.4961565023175
1914.6101409440362 1509.7427999023905
1915.2921373958416 1734.3201066632391
1915.9739694866603 1669.0529220893015
1916.655637257214 1884.884428207346
1917.3371407482136 1572.5367497396835
1918.0184800003572 1801.5872509960159
1918.6996550543154 1685.1710676736554
1919.3806659507554 1563.8801679029382
1920.0615127303208 1550.0175354195278
1920.7421954336423 1734.8080275332516
1921.4227141013343 1801.7274691385378
1922.103068773993 1643.695072417508
1922.783259492202 1834.3498824305163
1923.4632862965227 1545.9393859203294
1924.1431492275078 1483.574355340426
1924.8228483256917 1517.198745734273
1925.5023836315922 1543.4834795282118
1926.1817551857057 1703.8083543789012
1926.8609630285227 1488.9367090366038
1927.5400072005123 1677.18869539414
1928.218887742125 1503.7184858451224
1928.8976046938005 1476.1385093955737
1929.5761580959588 1756.1502001977594
1930.2545479890086 1507.463682548266
1930.9327744133352 1310.9162130684297
1931.6108374093164 1635.1884702476932
1932.2887370173066 1807.6270033776752
1932.9664732776473 1693.7288852207118
1933.6440462306673 1579.5078080368405
1934.3214559166754 1426.2189899519128
1934.9987023759659 1781.6007447763507
1935.675785648813 1660.3241590682803
1936.3527057754836 1741.2224410863346
1937.029462796223 1822.3089642250186
1937.70605675126 1511.6650595864237
1938.3824876808085 1429.6261951310987
1939.058755625072 1533.1325419322613
1939.7348606242267 1477.683666853648
1940.4108027184448 1598.697423794123
1941.0865819478713 1654.0529061985094
1941.7621983526478 1470.3564380901698
1942.4376519728921 1489.271498757455
1943.1129428487038 1531.2159202723333
1943.7880710201734 1620.2540847183736
1944.4630365273733 1627.760295544495
1945.1378394103576 1404.363423043445
1945.8124797091714 1365.338701088283
1946.4869574638324 1326.1887508296077
1947.161272714353 1527.148507636164
1947.8354255007234 1598.083692257485
1948.5094158629272 1614.9949194538426
1949.1832438409183 1569.0432698996904
1949.8569094746435 1630.4810397772585
1950.530412804037 1825.7629098895238
1951.2037538690092 1764.3421101816689
1951.8769327094578 1410.5664847442376
1952.5499493652678 1506.022413227051
1953.222803876306 1680.3435851073002
1953.895496282421 1698.1773409821867
1954.5680266234522 1624.4015194580152
1955.2403949392155 1573.8422837718267
1955.9126012695142 1420.7746481173685
1956.5846456541403 1478.2720323101853
1957.2565281328643 1538.7911275130814
1957.9282487454457 1815.376176412456
1958.5998075316202 1662.1936956017478
1959.27120453112 1465.7967574103202
1959.9424397836501 1535.5152704103239
1960.613513328908 1642.6104719058326
1961.2844252065697 1510.0351707126274
1961.9551754563017 1377.2075198968325
1962.6257641177453 1315.3436073053847
1963.29619123054 1325.090682021714
1963.966456834296 1468.5621290670729
1964.6365609686181 1367.0731066000756
1965.306503673086 1419.5415627158343
1965.976284987275 1472.0301574545163
1966.645904950734 1521.0815610799739
1967.315363603002 1369.9092788665778
1967.9846609836077 1391.2133093424954
1968.6537971320486 1459.846792317176
1969.3227720878222 1678.5533784637278
1969.9915858904042 1570.431710625471
1970.660238579252 1659.8828765805251
1971.3287301938108 1478.665378065745
1971.997060773514 1560.4867493617496
1972.665230357772 1283.382279088748
1973.3332389859843 1354.6276492941238
1974.0010866975335 1389.4345307789154
1974.6687735317864 1506.6997967228367
1975.3362995280932 1572.542385204975
1976.003664725793 1615.574249911237
1976.6708691642052 1376.1583925726884
1977.3379128826364 1539.284847151277
1978.004795920373 1678.6246658443274
1978.6715183166925 1478.3463878732834
1979.3380801108524 1708.452310394497
1980.0044813420973 1518.971583887303
1980.6707220496555 1533.4413776564645
1981.3368022727373 1548.048461369425
1982.0027220505417 1587.2968465926228
1982.66848142225 1227.5398296572384
1983.3340804270283 1261.7654833697547
1983.999519104027 1507.624716895212
1984.6647974923835 1550.2944111332786
1985.329915631215 1582.988748005817
1985.99487355963 1461.8647050102886
1986.6596713167146 1679.5986393812086
1987.3243089415428 1398.0447786331874
1987.9887864731754 1565.5949581098125
1988.6531039506553 1371.1764221425215
1989.3172614130071 1328.9239664114816
1989.9812588992481 1286.6194755421043
1990.645096448372 1137.0280985476415
1991.3087740993633 1459.0421035383172
1991.9722918911848 1414.7785327996287
1992.635649862792 1421.1714614819496
1993.2988480531185 1643.8877089933678
1993.9618865010852 1488.985522472051
1994.6247652455968 1333.8358805693758
1995.287484325545 1365.8432209805076
1995.9500437798033 1448.97522416892
1996.6124436472292 1329.1919216622805
1997.2746839666706 1583.264052569014
1997.936764776954 1380.5043746075066
1998.598686116895 1615.7806725721546
1999.2604480252903 1720.271437843615
1999.9220505409212 1734.5608674619584
2000.5834937025593 1347.814518238667
2001.2447775489582 1471.6630442987357
2001.9059021188514 1551.3411535063485
2002.5668674509616 1305.2208991124164
2003.2276735839987 1335.1192757440972
2003.8883205566508 1390.2765773625965
2004.5488084075987 1445.4649638156868
2005.2091371755014 1390.6221912124183
2005.8693068990033 1333.6924531676516
2006.5293176167397 1629.9010299647503
2007.1891693673224 1389.862030827427
2007.848862189354 1147.420665046964
2008.5083961214223 1462.3203290043625
2009.1677712020955 1374.5764984400892
2009.8269874699254 1358.551050779241
2010.4860449634598 1283.6716153507111
2011.1449437212177 1208.6715689588893
2011.8036837817108 1597.1088582030986
2012.4622651834325 1546.03749188887
2013.1206879648653 1599.7138771646567
2013.7789521644736 1391.631834433423
2014.4370578207036 1560.954989947384
2015.0950049719922 1398.5076708878876
2015.7527936567585 1672.7151224386612
2016.4104239134067 1396.3103116910384
2017.067895780323 1809.7803641499188
2017.725209295886 1746.1154354797352
2018.3823644984514 1682.2307075390731
2019.0393614263648 1596.364057903484
2019.6962001179545 1471.9537294685065
2020.3528806115355 1725.2903285683406
2021.0094029454067 1442.8827793381329
2021.6657671578487 1304.9683998354842
2022.321973287133 1493.968012788472
2022.9780213715148 1435.1013187140443
2023.6339114492293 1231.3325458911909
2024.2896435585026 1448.147716757567
2024.9452177375442 1569.962187901154
2025.600634024544 1586.6144536836284
2026.2558924576842 1570.9659631613197
2026.9109930751292 1666.690146008254
2027.565935915025 1380.2755115378554
2028.2207210155066 1706.0691694020702
2028.8753484146964 1924.2134908709268
2029.529818150695 1765.1408201679799
2030.1841302615903 1605.4378367590132
2030.8382847854573 1329.3138422260356
2031.4922817603601 1559.8023220086498
2032.1461212243357 1594.670190709092
2032.7998032154192 1484.1264080917126
2033.4533277716218 1373.1544927715922
2034.1066949309443 1338.1714592388862
2034.7599047313688 1447.0606185039956
2035.4129572108704 1634.1739825940595
2036.0658524074006 1455.8896173793528
2036.7185903589016 1587.0600294623955
2037.3711711032956 1492.381189580727
2038.023594678496 1495.9159556382706
2038.675861122394 1438.8240390519277
2039.3279704728757 1649.4963015998637
2039.9799227678031 1315.8316810516997
2040.6317180450278 1479.4020168473853
2041.2833563423865 1430.2219278851092
2041.9348376977014 1785.6318608430902
2042.5861621487784 1559.621739905791
2043.2373297334088 1662.8706347857246
2043.8883404893695 1632.3136157325546
2044.5391944544208 1610.4702445301568
2045.1898916663158 1628.6661286942708
2045.8404321627804 1516.4016882791695
2046.4908159815368 1403.832910522384
2047.1410431602853 1266.9161720587774
2047.7911137367173 1464.8890710823794
2048.441027748504 1368.6223695638496
2049.090785233302 1272.211442675405
2049.7403862287592 1323.2900452965482
2050.389830772503 1319.9632122406324
2051.0391189021466 1316.6704846185944
2051.688250655294 1460.1345094558421
2052.337226069527 1252.927401135033
2052.986045182417 1190.749858915305
2053.634708031521 1128.5800665863185
2054.283214654375 1498.1559518377983
2054.931565088511 1246.7191163507098
2055.579759371436 1290.7206715677924
2056.2277975406523 1494.0966863468436
2056.8756796336384 1602.6464063474118
2057.5234056878617 1219.9563682283856
2058.1709757407752 1256.7585193303871
2058.8183898298194 1427.0670640710318
2059.465647992416 1597.3080204798612
2060.1127502659747 1418.5075606143796
2060.759696687888 1239.6141950391052
2061.4064872955405 1440.3478781589504
2062.053122126292 1259.7796569742272
2062.699601217497 1560.480700286718
2063.345924606485 1322.2012187543487
2063.992092330587 1444.0271441719085
2064.638104427102 1309.5300843142973
2065.283960933324 1596.1555333093954
2065.92966188653 1386.7070521723685
2066.5752073239855 1307.7626207094124
2067.2205972829397 1228.7587871585238
2067.86583180062 1512.4784113744397
2068.5109109142522 1482.4452905528942
2069.15583466104 1445.0009616433322
2069.8006030781708 1407.5232572425818
2070.445216202821 1350.0656110368807
2071.089674072153 1462.384781879615
2071.7339767233116 1658.0552951698216
2072.3781241934303 1430.6382577731688
2073.0221165196253 1496.3933928780095
2073.6659537390024 1377.2527929545406
2074.3096358886505 1547.1388791888917
2074.953163005637 1337.6808315673088
2075.596535127028 1136.0105380189848
2076.2397522898664 1295.868598859763
2076.882814531182 1575.0750225710613
2077.5257218879924 1514.1869712260182
2078.1684743973 1174.482286131526
2078.8110720960885 1246.3705178328937
2079.453515021336 1419.9541620754324
2080.095803209997 1593.7012069903424
2080.7379366990135 1478.4389514671652
2081.37991552532 1665.5423708395913
2082.0217397258275 1612.2840851397618
2082.6634093374414 1479.5424991592602
2083.3049243970418 1346.7198510963055
2083.9462849415067 1587.3409387938627
2084.587491007689 1583.8403245645875
2085.2285426324324 1433.833524017933
2085.869439852564 1465.0765718351129
2086.510182704902 1421.246676012673
2087.1507712262483 1428.2753963656553
2087.791205453381 1289.319843782462
2088.4314854230743 1442.281516002466
2089.0716111720867 1525.8514095292785
2089.7115827371617 1099.7359318532297
2090.351400155023 1128.5817095094967
2090.991063462385 1157.5361126005967
2091.6305726959527 1197.0924938033672
2092.2699278924047 1261.2675392995295
2092.9091290884153 1325.6253072502807
2093.548176320641 1341.0851940289622
2094.187069625721 1475.8829962585849
2094.8258090402887 1495.650337840107
2095.464394600951 1515.4628325330807
2096.102826344313 1523.0014605779209
2096.741104306955 1609.2718577083263
2097.379228525453 1186.5239223923224
2098.017199036358 1163.1201977498758
2098.6550158762147 1520.3463430894737
2099.2926790815527 1605.7825421133232
2099.9301886888825 1376.0022940402494
2100.5675447347076 1395.2049718635017
2101.2047472555114 1478.3588141878022
2101.841796287761 1442.0120607904066
2102.47869186792 1534.8917761062937
2103.1154340324265 1299.0507255975776
2103.752022817709 1372.9824926916997
2104.388458260184 1322.1253065185654
2105.024740396251 1558.302339649627
2105.660869262292 1310.7677569581015
2106.296844894685 1261.5155166365432
2106.93266732978 1212.1799436844935
2107.5683366039284 1263.8999007522373
2108.2038527534532 1393.6714748609916
2108.8392158146726 1548.9881253900594
2109.4744258238843 1326.2798824672848
2110.1094828173755 1451.8776713157013
2110.744386831422 1697.0690757847146
2111.3791379022787 1386.9230556303144
2112.01373606619 1729.3285189023977
2112.648181359389 1500.6431397819003
2113.28247381809 1461.4314154455099
2113.916613478492 1559.0646205365106
2114.550600376786 1543.971389358954
2115.1844345491445 1252.8845795876375
2115.818116031729 1332.134480948513
2116.451644860679 1407.8218631137822
2117.085021072133 1164.1798432398123
2117.718244702204 1356.8617409687774
2118.3513157869984 1367.8470959990632
2118.984234362604 1234.5448343961564
2119.617000465092 1226.9814949756576
2120.249614130529 1567.0931921373822
2120.8820753949585 1435.9967339623386
2121.5143842944162 1337.8472383487729
2122.14654086492 1319.401128566276
2122.7785451424734 1598.3790323835635
2123.4103971630702 1570.0122844367204
2124.042096962681 1541.7523009958636
2124.6736445772767 1686.8117481275713
2125.305040042802 1316.203094299775
2125.936283395191 1389.7090865206478
2126.567374670365 1499.24400980043
2127.198313904233 1362.2397879183504
2127.8291011326855 1328.376743223181
2128.4597363916037 1294.2849931540459
2129.0902197168507 1412.2853142769593
2129.720551144279 1275.2784391713053
2130.3507307097225 1741.8596699207405
2130.980758449008 1726.7807052330304
2131.6106343979427 1355.044837513546
2132.2403585923203 1426.8706727151525
2132.8699310679276 1571.1007722368872
2133.499351860526 1544.3924107168605
2134.1286210058715 1371.5083687481213
2134.7577385397053 1477.8218782605877
2135.3867044977487 1584.318036746163
2136.0155189157176 1566.5337560423518
2136.644181829308 1751.676745785684
2137.2726932742025 1331.9519739004177
2137.901053286074 1656.577757898501
2138.5292619005777 1267.6273906572558
2139.1573191533535 1315.2215431993438
2139.7852250800315 1613.150472306123
2140.4129797162295 1546.675410042665
2141.0405830975433 974.950798854944
2141.6680352595613 1071.7087816445364
2142.2953362378576 1168.6643472782198
2142.9224860679915 1361.834953403582
2143.549484785508 1273.3802541204068
2144.1763324259373 1293.6067188037284
2144.803029024799 1228.9436085076784
2145.429574617594 1270.6264056371847
2146.0559692398165 1453.1778225592157
2146.682212926942 1519.0421476526326
2147.308305714432 1354.8251747536547
2147.9342476377333 1546.419862657001
2148.5600387322847 1766.199384826595
2149.185679033506 1527.8865366719879
2149.8111685768017 1224.382377986438
2150.4365073975678 1190.8812485773187
2151.061695531187 1211.0559499893122
2151.686733013021 1319.527805185217
2152.311619878423 1428.30274465073
2152.9363561627342 1349.1473063710703
2153.560941901278 1422.2631487888116
2154.1853771293663 1495.394994189546
2154.809661882293 1374.649657745332
2155.433796195348 1405.7507711235487
2156.0577801037944 1436.712462006079
2156.681613642895 1455.3450945519758
2157.3052968478896 1481.6219315845433
2157.928829754006 1507.8992245900977
2158.552212396462 1647.518567824678
2159.1754448104566 1433.2336815417552
2159.7985270311783 1154.4397786253326
2160.4214590938027 939.887730931496
2161.0442410334927 983.1961951034358
2161.6668728853874 1184.216903100902
2162.289354684628 1385.643655479982
2162.911686466332 1169.5457032913623
2163.533868265602 1469.7384356345597
2164.1559001175337 1725.0407767672828
2164.7777820572046 1485.1791743682033
2165.399514119681 1351.3336670263782
2166.021096340013 1306.9086904840265
2166.6425287532384 1609.6014963632804
2167.263811394385 1560.874400833057
2167.8849442984574 1512.1883090780952
2168.505927500455 1202.127028224062
2169.126761035366 1475.0377546086893
2169.7474449381552 1249.4570606911584
2170.367979243778 1361.7054797162718
2170.9883639871823 1474.3149551128768
2171.608599203293 1358.2365426134406
2172.2286849270276 1797.7120409029103
2172.8486211932886 1848.7945149387444
2173.4684080369625 1459.851363277013
2174.0880454929265 1105.4834116251736
2174.7075335960417 1057.985070306791
2175.3268723811543 1058.6434245317405
2175.9460618831 1059.3188914731304
2176.565102136701 1417.365420263542
2177.1839931767627 1412.5872050405483
2177.802735038078 1407.8166503064788
2178.421327755432 1273.9012957716304
2179.0397713635866 1156.9364214209513
2179.658065897298 1323.9116206371573
2180.276211391305 1373.6443338632073
2180.8942078803357 1252.1766895269907
2181.5120553991 1165.1988519759504
2182.129753982299 1364.2787465449242
2182.7473036646206 1272.5095031732722
2183.3647044807367 1416.4252092814704
2183.9819564653044 1460.488650931526
2184.599059652968 1504.7089507072783
2185.216014078367 1455.3118746080017
2185.832819776113 1172.1283701560983
2186.4494767808137 1158.6135494162168
2187.065985127063 1144.968425884599
2187.682344849436 1209.763892788034
2188.298555982501 1517.3015597524206
2188.9146185608097 1388.2716653595871
2189.530532618901 1400.2539921684188
2190.1462981912937 1323.9037884989625
2190.761915312507 1579.4256313155631
2191.377384017036 1417.4206937020913
2191.9927043393654 1289.2609342861856
2192.6078763139667 1511.5266562899565
2193.2228999753006 1159.3394092095793
2193.837775357808 1401.1177649872682
2194.452502495922 1371.0748265456632
2195.0670814240602 1340.9647184536548
2195.6815121766285 998.1478717997257
2196.2957947880186 1027.290497988546
2196.9099292926057 1056.4955301674618
2197.523915724758 1445.4398094477447
2198.137754118825 1226.6798202299842
2198.7514445091456 1764.2138215572602
2199.3649869300443 1148.0223233403499
2199.9783814158327 1664.7159365871219
2200.5916280008096 1867.3248879129198
2201.2047267192593 1585.7292227000949
2201.8176776054515 1333.9558615391118
2202.430480693649 1467.5640957421222
2203.0431360180955 1601.5359002929908
2203.6556436130195 1543.7822417882594
2204.268003512645 1495.6838035655103
2204.8802157511727 1447.5208521247891
2205.492280362796 1822.870420407471
2206.1041973816937 1415.3427012376214
2206.715966842032 1345.915101544849
2207.3275887779655 1704.4620764982963
2207.93906322363 1545.0345625118957
2208.550390213153 1483.5183735623336
2209.1615697806465 1544.198575544396
2209.7726019602105 1231.0443724781774
2210.3834867859277 1137.3469432258626
2210.9942242918787 1339.8960590839165
2211.6048145121167 1364.5278847618242
2212.2152574806914 1940.2806985756135
2212.825553231638 1211.5707485862436
2213.435701798975 2062.303821786212
2214.045703216707 1338.8679628580553
2214.655557518832 1043.8232005698758
2215.2652647393297 1195.03148572005
2215.874824912169 996.1697626109308
2216.4842380713 1365.31425500914
2217.09350425067 1091.0230747005523
2217.7026234842033 1588.0924368408412
2218.311595805819 1570.1236929345814
2218.9204212494133 1253.599594370637
2219.52909984888 1622.4149321781674
2220.137631638092 1063.1753192019291
2220.7460166509154 1701.6952059711318
2221.354254921198 1192.873501018198
2221.9623464827764 1582.9217468219401
2222.5702913694713 1384.7129911662637
2223.178089615096 1643.3772002553512
2223.7857412534486 1349.8735109183576
2224.39324631831 1343.2003414733044
2225.000604843457 1336.4817823675187
2225.607816862641 1613.2555926511932
2226.214882409611 1475.9039438605673
2226.8218015180973 1576.712968179555
2227.4285742218217 1365.1534369354429
2228.0352005544864 1297.953487635929
2228.6416805497847 1048.181789353374
2229.248014241399 1215.3273456918644
2229.8542016629945 1308.731300489302
2230.460242848223 1408.060175417271
2231.0661378307304 1286.9853690727355
2231.671886644139 1165.803600164169
2232.277489322065 970.4012448111671
2232.8829458981127 939.0394553293111
2233.48825640587 1354.2354396322585
2234.0934208789095 1835.4844697061308
2234.6984393507955 1460.904983391012
2235.3033118550793 1457.5493782931048
2235.9080384252975 1279.1940012715802
2236.5126190949723 1088.9398810082528
2237.1170538976166 1145.3276764572602
2237.721342866729 1198.170737422224
2238.32548603579 1251.1020960810579
2238.9294834382763 1506.9474629844776
2239.533335107646 1503.747496138497
2240.1370410773434 1359.7060556217252
2240.740601380803 1196.3498406384438
2241.3440160514474 1292.7948844808082
2241.9472851226783 1596.741488420255
2242.550408627896 1237.5230251295566
2243.1533866004793 1231.942379925257
2243.756219073799 1226.3730247220224
2244.3589060812064 1284.9898024388096
2244.961447656049 984.8865974749053
2245.5638438316564 1164.639478936641
2246.166094641343 1378.7869729977956
2246.7682001184166 1236.4780391375414
2247.3701602961664 1182.852112735324
2247.971975207871 1596.5349020757624
2248.5736448867974 1559.4677344628649
2249.175169366197 1334.9438486137065
2249.7765486793123 1370.3341262990643
2250.3777828593684 1489.0844985773688
2250.9788719395783 1306.8823835644941
2251.579815953146 1195.9291036017462
2252.1806149332606 1180.2790015898959
2252.781268913097 1206.3863502874135
2253.381777925817 1332.6159867399429
2253.9821420045737 1303.524848372519
2254.5823611825035 1274.4211211417162
2255.1824354927303 1445.8879858388873
2255.782364968365 1293.331929240319
2256.38214964251 1140.6050255669616
2256.9817895482483 1271.956932020727
2257.5812847186553 1232.4120482127155
2258.180635186791 1185.3341771877008
2258.779840985704 1216.4111045520572
2259.37890214843 1172.3217679194229
2259.97781870799 1334.5452815026642
2260.5765906973957 1497.0698335797936
2261.175218149645 1459.173430257653
2261.773701097718 1434.7788651695496
2262.3720395745895 1086.8044137517802
2262.970233613216 1021.1257402347894
2263.568283246548 1012.0811075790541
2264.1661885075137 1002.9813540489995
2264.763949429038 1126.5127573534853
2265.3615660440246 1503.595645948728
2265.959038385374 1094.6758759067234
2266.5563664859637 1516.37174491163
2267.153550378669 1144.9767557763184
2267.7505900963424 1474.6797945472656
2268.3474856718312 1186.587757380335
2268.9442371379664 1437.8208116099106
2269.5408445275643 1030.2267261316636
2270.1373078734377 1216.2119843683934
2270.7336272083758 1148.6740002067381
2271.32980256516 1224.9222376305331
2271.925833976562 1512.8328758937955
2272.5217214753357 1690.8200610754884
2273.117465094223 1317.7317292959813
2273.7130648659586 1093.0219979168296
2274.308520823257 1238.7502253870402
2274.903832998827 1469.4835616927317
2275.4990014253563 1474.7601761612495
2276.094026135528 1480.0192696957522
2276.6889071620117 1295.9981518146346
2277.2836445374614 1351.243162034573
2277.878238294519 1353.89511211543
2278.472688465812 1198.530198177908
2279.066995083962 1042.8902046414776
2279.6611581815705 1234.411801756758
2280.255177791232 1201.1923198537609
2280.8490539455233 1470.8628163660246
2281.442786677013 1741.066937795751
2282.0363760182554 1601.0740806600102
2282.6298220017943 1650.1705372840636
2283.223124660155 1699.4706139189154
2283.816284025859 1343.897625057075
2284.4093001314086 1542.357844740641
2285.002173009292 1469.0714107658025
2285.5949026919952 1395.6105120464877
2286.1874892119777 1318.8100247056218
2286.7799326016993 1406.6292583041823
2287.3722328936 1276.089012169382
2287.964390120109 918.6526076625996
2288.556404313642 1328.8950609627761
2289.1482755066027 1716.1357367773458
2289.7400037313873 1226.9960001386662
2290.3315890203703 1098.5243276287356
2290.9230314059205 1311.0816112961347
2291.5143309203904 1133.5072762787363
2292.1054875961236 1356.038043982026
2292.6965014654506 1510.9441704856652
2293.287372560684 1219.136005859127
2293.878100914131 1199.7838567802132
2294.468686558086 1180.429012007858
2295.059129524827 1266.0338394596495
2295.649429846617 1429.8414176270394
2296.239587555716 1174.724370850136
2296.8296026843636 1242.9368460022736
2297.419475264791 1206.597238132446
2298.0092053292137 1170.115071092012
2298.598792909839 1582.2926436647053
2299.1882380388597 1348.1336870998653
2299.777540748455 1642.3157206627438
2300.3667010707904 1398.0515615887327
2300.9557190380256 1626.684341193702
2301.544594682302 1330.609574548113
2302.1333280357503 1577.8434756117006
2302.721919130485 1279.0160047425716
2303.3103679986198 1660.8687118187208
2303.898674672242 1726.3995921106302
2304.486839183437 1299.4641130111124
2305.0748615642697 1278.123496853728
2305.6627418468015 1461.7876758786329
2306.2504800630704 1108.0338137863566
2306.8380762451143 1435.9748715566086
2307.425530424949 1443.2932538030586
2308.012842634582 1450.617191006127
2308.6000129060103 1526.9125407403799
2309.187041271214 1324.7657939186581
2309.773927762164 1600.3654848938697
2310.3606724108213 1441.051028575564
2310.9472752491274 1190.087320138789
2311.5337363090184 1170.3362147043965
2312.120055622414 1150.545004711491
2312.706233221221 1317.2660896003329
2313.2922691373424 1536.0000687545867
2313.8781634026564 1158.9257254818317
2314.463916049037 1317.1926877935434
2315.049527108342 1353.3073101735988
2315.6349966124235 1715.473122061711
2316.2203245931123 1738.896043154777
2316.8055110822315 1469.4149374076255
2317.3905561115935 1199.2964006342995
2317.9754597129977 1061.7040700606399
2318.560221918229 1114.2249282021826
2319.1448427590603 1166.8893085270422
2319.729322267256 1281.127761336211
2320.313660474563 1284.376177056914
2320.8978574127195 1796.8388395620077
2321.481913113452 1586.0029189519987
2322.0658276084705 1498.9485031303755
2322.6496009294806 1411.68563574879
2323.233233108165 1283.1904647355639
2323.8167241762058 1276.618226967123
2324.4000741652617 1316.9524448069849
2324.983283106987 1476.5790475189142
2325.5663510330232 1560.776771023255
2326.1492779749933 1212.2438505566624
2326.7320639645204 1349.9334297039195
2327.3147090332004 1018.7517089852465
2327.897213212629 1158.7581917466914
2328.4795765343843 1298.86930551204
2329.0617990300307 1120.506436366139
2329.643880731124 1696.2445652837519
2330.22582166921 1176.1297965644394
2330.807621875816 1642.7800007142366
2331.3892813824623 964.4135556046565
2331.9708002206517 961.9012335453754
2332.5521784218818 1161.550535415278
2333.133416017634 1361.6544533030788
2333.7145130393765 1242.2598887868576
2334.295469518571 1471.8963356859663
2334.876285486658 1678.1711234470924
2335.456960975076 1630.5138539088964
2336.037496015242 1582.7782991771164
2336.6178906385667 1384.3668518524305
2337.198144876451 1317.4503758954108
2337.778258760278 1202.3547925560474
2338.3582323214214 1332.5679356556839
2338.938065591243 1463.0502701965256
2339.517758601087 1654.0272163622117
2340.0973113822965 1626.5215490971611
2340.676723966193 1224.5903842236546
2341.255996384094 1367.4329276483836
2341.835128667295 1574.5098083657256
2342.4141208470883 1544.9661126225858
2342.992972954751 1274.6236757142976
2343.5716850215467 1405.9428282081951
2344.1502570787306 895.3731060522799
2344.7286891575386 1069.9145112625142
2345.3069812892045 1247.3082267461705
2345.885133504944 1424.9051664576937
2346.4631458359618 1314.499209031471
2347.04101831345 1057.5014933735588
2347.6187509685915 1138.3592209840187
2348.196343832553 1060.5452954511159
2348.7737969364935 1095.2279200208711
2349.351110311558 1129.9758683623802
2349.9282839888765 1038.0863088065832
2350.5053179995757 1094.7870972870396
2351.0822123747585 1288.153721078902
2351.658967145526 1147.304215637932
2352.2355823429643 1496.332463918228
2352.812057998144 1342.4064729541535
2353.3883941421263 1146.976634541532
2353.9645908059647 1346.855170123307
2354.540648020693 1286.678664941036
2355.116565817336 1455.4939431585697
2355.6923442269126 1233.9318515192563
2356.2679832804224 1373.9271728488432
2356.8434830088518 1272.8565341165997
2357.41884344318 1364.4330580977473
2357.994064614377 1456.133530531613
