#exp_cfg={"servo_angle": 0.0, "laser_lim": 100.0, "servo_angle_to": 18.0, "laser_wup": 0.0, "bt_dev": "EnSpectr-25AE3", "laser_wdn_max": 0.0, "frames": 10.0, "servo_used": 0, "servo_calib_use": 0, "laser_wdn_min": 0.0, "servo_pix_from": 90.0, "cooler_tout": 300.0, "servo_angle_from": 0.0, "servo_calib": "[-1.9174921013161362e-09, 3.9322238269163779e-05, -0.27385609119055809, 653.59552119713567]", "laser_autoctl": 0, "servo_pix_to": 3682.0, "laser_pw": 100.0, "cooler_on": 0, "laser_volt": 4.0, "cooler_autoctl": 0, "cooler_curr": 70.0, "cooler_startup": 10.0, "laser_fixed_pw": 0, "gain": 1.3, "offset": 2.53059635486, "servo_calib_degree": 3.0, "laser_curr": 55.0, "shutter": 8200.0, "servo_calib_step": 1.0, "laser_fixed_curr": 0, "exp": 2000.0, "ccd_volt": 4.7, "bt_addr": "00:06:66:62:5A:E3", "servo_delay": 500.0, "laser_autooff": 1}
#proc_cfg={"flat_auto_wnd": 200.0, "flat_auto_fr": 200.0, "flat_auto_shift": 5.0, "yconv": 1, "flatten": 1, "flatten_strength": 100.0, "xfrom": 300.0, "auto_max_frame": 2000.0, "auto_signal": 48000.0, "flat_auto_tol": 0.1, "autoclip": 1, "xrel_range": 0.0, "flat_auto_to": 4000.0, "intensity_adj": 1.0, "xrel": 7852.0, "rmhot": 1, "flat_auto_slit": 4.999999999999997, "auto_ini_exp": 300.0, "auto_off": 0, "xto": 2860.0, "flat_auto_ref": "", "flat_auto_rank": 1, "autobackg": 0, "xrel_adj": 0.0, "auto_black_lvl": 1, "base_wnd": 100.0, "sub_baseline": 0, "xconv": 2, "auto_max_exp": 1000.0, "auto_total_exp": 10000.0, "auto_exp": 0, "rmripple": 0, "black_lvl": 8271.375, "shutter_clip_adj": 0.0, "auto_bckg": 0, "flat_auto_thr": 0.9, "subbackg": 1}
316.8218498245369 16045.055424065611
317.89969571804795 15861.339719281565
318.977263876126 15838.098640463897
320.05455438786703 15682.278709113409
321.1315673423287 15554.292193466375
322.2083028285215 15603.499953745242
323.2847609354267 15415.454263477246
324.3609417519747 15311.232430370164
325.43684536705587 15285.977830659278
326.5124718695279 15159.921299699945
327.58782134820103 15057.023679276337
328.66289389184385 15097.538006324132
329.7376895891921 14905.745907434242
330.8122085289342 14860.854747046207
331.88645079971866 14814.464808978411
332.9604164901575 14670.017972045922
334.03410568881554 14583.96664966683
335.1075184842266 14692.866820670988
336.18065496487543 14469.38875678434
337.2535152192122 14479.137790562498
338.32609933564163 14480.255688869996
339.39840740253203 14370.553817099537
340.4704395082099 14300.431731564977
341.5421957409617 14223.976049487796
342.6136761890357 14315.98271693147
343.6848809406365 14151.58757601691
344.75581008392874 14136.902820762692
345.82646370703696 14081.85202283051
346.8968418980512 14087.04936151088
347.96694474501055 14099.704854924878
349.0367723359268 14034.565122662894
350.106324758759 13999.087865805672
351.1756021014353 13959.589935993787
352.2446044518383 13870.403068858068
353.31333189781435 14043.331260801171
354.38178452716966 13945.539819569982
355.449962427665 13996.993551782585
356.51786568702846 13942.211763790732
357.58549439294256 13969.46551286683
358.6528486330535 14070.574096741326
359.71992849496564 13978.585398233834
360.7867340662433 14063.225832350945
361.8532654344144 14065.045520950953
362.9195226869597 14171.162914934665
363.9855059113288 14054.18918990465
365.05121519492604 14002.876340584942
366.11665062511565 14175.936733097387
367.1818122892273 14190.689057972117
368.2467002745434 14182.146550364047
369.31131466831175 14230.12262768896
370.375655557742 14229.618046210573
371.4397230299983 14300.773899853444
372.5035171722102 14282.700316960376
373.5670380714637 14253.241897699572
374.6302858148101 14387.586693714733
375.6932604892554 14371.331209195978
376.7559621817709 14308.078191908313
377.81839097928605 14260.53189869762
378.8805469686886 14217.545171765343
379.94243023683157 14377.660571406625
381.0040408705263 14218.992375146554
382.0653789565458 14095.729418897954
383.1264445816196 14168.452898134035
384.1872378324406 14056.680376284621
385.2477587956637 14117.278424664075
386.3080075579037 14031.954188065345
387.3679842057336 13908.012967331419
388.4276888256918 13911.524772072085
389.48712150426945 13896.75881077049
390.54628232792857 13850.779243383775
391.6051713830857 13746.853193487972
392.66378875611736 13759.284165233152
393.7221345333637 13726.95416702322
394.7802088011249 13645.47928998553
395.838011645661 13713.763771234346
396.89554315319765 13540.462238083162
397.9528034099112 13418.521937463523
399.00979250194723 13383.726239057734
400.06651051541485 13346.875020340492
401.1229575363741 13363.358332854707
402.17913365085224 13276.723149155234
403.23503894483656 13338.233579092815
404.2906735042761 13188.554592836303
405.3460374150818 13118.044091618984
406.401130763119 13078.268477168007
407.455953634224 13138.75297434014
408.5105061141876 13004.21554578718
409.56478828876243 12808.642996468358
410.6188002436629 12864.064335230132
411.6725420645689 12789.111254700776
412.72601383711117 12815.467755459047
413.77921564689314 12783.927832398287
414.8321475794728 12706.88873948799
415.88480972036814 12647.320954402978
416.93720215506437 12606.15877482587
417.9893249690049 12557.78196445436
419.04117824759123 12463.641434178346
420.09276207619223 12449.913047674798
421.144076540133 12432.855899429853
422.1951217247042 12473.265295290807
423.24589771515275 12349.42350763347
424.2964045966928 12311.126774503184
425.34664245449494 12425.07471336416
426.3966113736933 12373.379093093545
427.4463114393875 12311.938627691236
428.49574273662984 12224.782831783688
429.5449053504417 12184.400959686936
430.5937993658026 12254.192370657922
431.6424248676558 12079.714751656637
432.6907819409007 12191.290333661253
433.73887067040596 12140.015217728596
434.7866911409965 12099.45574500321
435.8342434374608 12132.758460726944
436.88152764455117 12042.099036139987
437.9285438469724 12063.628521160343
438.9752921294057 11976.810559067719
440.02177257648145 11954.821404144104
441.06798527279716 11883.841411527868
442.1139303029122 12028.154823581523
443.1596077513459 12014.53570222683
444.2050177025794 11979.989123285104
445.25016024105753 12003.044026882384
446.2950354511886 11856.359280137734
447.33964341733736 11964.957648640153
448.383984223834 11851.492336095414
449.4280579549686 11769.479524259319
450.471864694995 11926.64293230192
451.5154045281306 11859.004744625754
452.5586775385509 11787.43335223032
453.60168381039693 11814.535712815386
454.64442342776783 11936.394560074312
455.6868964747264 11810.29475738186
456.7291030353008 11723.64018537662
457.77104319347563 11921.56972214978
458.8127170332027 11809.128173971565
459.854124638392 11815.56436218188
460.895266092919 11920.273506064672
461.93614148061897 11943.394682483586
462.97675088529104 11971.455945305144
464.01709439069236 11983.904443897385
465.0571720805492 11947.50482305686
466.0969840385442 12052.508174792558
467.1365303483253 12129.608633732765
468.17581109350067 12101.033245300348
469.2148263576437 12046.888767422895
470.2535762242878 12113.999503253663
471.29206077693016 12278.583195154275
472.33028009902773 12337.723988167072
473.3682342740012 12278.025598177803
474.40592338523857 12312.407156302554
475.4433475160804 12409.166082096554
476.4805067498364 12495.051473450407
477.51740116978 12573.142199717982
478.5540308591426 12823.588702513489
479.59039590112116 13081.756834880642
480.6264963788726 13083.05381008203
481.6623323755193 13413.467552286591
482.6979039741436 13576.757391809897
483.7332112577915 13997.244126327583
484.76825430947247 14338.465837736065
485.80303321215797 14592.27197359482
486.837548048783 14860.838681834648
487.8717989022425 15105.665349297797
488.90578585539697 15273.03660649667
489.9395089910686 15514.045297315135
490.97296839203955 15458.79847784487
492.00616414106116 15323.651069992298
493.0390963208429 15265.835797970949
494.0717650140559 15207.290844686382
495.10417030333883 14951.200375246068
496.1363122712901 14656.253583749483
497.16819100046814 14383.24910431375
498.1998065734024 13968.331557349791
499.2311590725767 13757.65209421445
500.26224858044407 13455.042640780312
501.2930751794156 13206.645697054268
502.3236389518679 13038.914620032905
503.35393998014115 12728.22718753467
504.38397834653733 12734.284754714961
505.4137541333221 12560.492688898226
506.4432674227228 12317.124325217872
507.4725182969323 12183.242471003196
508.5015068381035 12179.726918058655
509.53023312835467 12133.311152890494
510.55869724976765 11934.655375144062
511.58689928438434 12004.58444395679
512.6148393142121 11837.866988092324
513.6425174212218 12002.706344877053
514.6699336873462 11807.300368143624
515.6970881944835 11861.715904364972
516.7239810244901 11917.298213069613
517.7506122591931 11769.720999135789
518.7769819803761 11776.331320269315
519.8030902697901 11863.412530409038
520.8289372091476 11842.444348080706
521.8545228801249 11948.672730190188
522.8798473643619 11846.260978455186
523.9049107434621 11792.07846263363
524.9297130989908 11859.65581858808
525.9542545124805 11838.95943387967
526.9785350654201 11772.320501225073
528.0025548392696 11716.7035797908
529.0263139154504 11700.91163648264
530.0498123753423 11713.525931357637
531.073050300296 11615.925886444556
532.0960277716204 11469.35288277188
533.1187448705896 11532.241236292453
534.1412016784416 11468.558935027037
535.1633982763833 11394.840784756258
536.1853347455726 11292.666937569711
537.2070111671401 11243.227128133902
538.2284276221817 11145.324041111246
539.2495841917516 11092.141446649168
540.2704809568677 10981.937021330137
541.2911179985167 11082.465661092641
542.3114953976419 10875.351569306218
543.3316132351592 10806.893572206813
544.3514715919409 10774.76026269071
545.3710705488247 10744.988480041418
546.3904101866156 10679.04033419794
547.4094905860784 10735.929155807076
548.4283118279418 10646.065967304272
549.4468739929034 10679.663982916385
550.4651771616191 10601.557467150535
551.4832214147063 10617.987260683673
552.501006832761 10620.875825460345
553.5185334963226 10548.353707385508
554.5358014859103 10628.498794325407
555.5528108820035 10554.451230940234
556.5695617650363 10529.427305235817
557.5860542154242 10568.819580702922
558.6022883135283 10593.978759992076
559.6182641396881 10522.704649952559
560.6339817741991 10509.917247150193
561.6494412973225 10581.192629503399
562.6646427892883 10639.603318339055
563.6795863302796 10500.658051740786
564.694272000459 10519.803611421401
565.7086998799423 10672.189334880004
566.7228700488104 10506.025574488282
567.7367825871115 10496.071489158852
568.7504375748576 10552.078617525138
569.7638350920224 10619.460261170922
570.7769752185486 10551.306072771924
571.7898580343353 10661.996911429991
572.802483619258 10632.332909840305
573.8148520531431 10797.165512474774
574.8269634157932 10891.880318670668
575.8388177869692 10856.605441873693
576.8504152463938 11008.428479555743
577.8617558737587 11246.960357751508
578.8728397487175 11191.941221726353
579.883666950891 11380.452691336173
580.8942375598654 11587.98507323134
581.9045516551851 11713.22736528728
582.9146093163617 12090.728095140541
583.924410622878 12009.297293558833
584.9339556541727 12080.95782537495
585.9432444896538 12253.665539394146
586.9522772086875 12156.907599863294
587.9610538906127 12191.885821102025
588.9695746147318 12183.101737665838
589.9778394603054 12220.726402693432
590.985848506567 12060.48694592209
591.9936018327098 11866.523813138363
593.0010995178891 11591.115647245711
594.0083416412344 11716.004015490837
595.0153282818283 11406.156882657324
596.0220595187293 11243.547949166159
597.0285354309508 11089.720363999226
598.0347560974806 11114.11295665469
599.0407215972609 10913.313273033704
600.0464320092051 10888.478081853362
601.0518874121954 10841.46166311135
602.0570878850685 10772.792056150678
603.062033506636 10775.626126215215
604.0667243556636 10802.731948736648
605.0711605108936 10633.693778707093
606.0753420510264 10983.123784985179
607.0792690547278 10789.89716010389
608.082941600629 10830.928882619894
609.0863597673306 10776.955977944754
610.0895236333909 10990.602809805145
611.0924332773357 11190.780496993964
612.0950887776617 11059.185707769875
613.0974902128219 11198.833818885769
614.0996376612384 11505.239293249304
615.1015312013005 11599.489048142019
616.1031709113595 11723.979145863213
617.1045568697336 11793.192444892891
618.1056891547069 12001.550882004169
619.1065678445229 12247.90931937579
620.1071930173985 12704.474066949213
621.1075647515099 12812.409079003393
622.1076831250048 13048.181226245408
623.1075482159849 13421.694805411564
624.1071601025305 13776.8775682482
625.1065188626781 13985.386247560982
626.105624574433 14368.49238602736
627.1044773157682 14716.904428458316
628.1030771646128 14971.793485436549
629.1014241988742 15288.10785877184
630.0995184964158 15661.264571855427
631.0973601350688 15851.24254206831
632.0949491926294 16069.283279153513
633.0922857468631 15988.527448090968
634.089369875499 16078.106274828004
635.0862016562278 16148.89504715679
636.0827811667077 15933.225824953774
637.0791084845641 15782.052039238599
638.0751836873878 15483.32823018051
639.0710068527369 15456.479897774334
640.0665780581294 15077.3009103691
641.0618973810506 14694.936340702785
642.0569648989604 14526.64552715726
643.0517806892676 14055.640969747914
644.0463448293649 13795.780875308314
645.040657396592 13467.768789103027
646.0347184682723 13003.236907565464
647.0285281216875 12794.766502805202
648.0220864340772 12498.264891159186
649.0153934826558 12211.37190075142
650.0084493446047 12048.02932657436
651.0012540970674 11946.547113318631
651.9938078171526 11637.439031054231
652.9861105819346 11414.287702230517
653.9781624684565 11412.852347667456
654.9699635537254 11101.062395584804
655.9615139147136 11050.214490972638
656.9528136283589 10824.948819880396
657.9438627715699 10874.30245618462
658.9346614212154 10746.568336984628
659.925209654135 10473.600855753752
660.9155075471263 10493.83146154522
661.9055551769616 10415.943292751075
662.895352620375 10440.12588374723
663.8848999540678 10293.594460810662
664.8741972547068 10144.355278976542
665.863244598926 10130.643811703021
666.8520420633213 10207.083742782688
667.8405897244611 10031.932651207315
668.8288876588758 9917.347017566866
669.8169359430613 10004.318612306897
670.8047346534822 9970.028472154012
671.7922838665672 9929.563803538644
672.7795836587156 9906.031083291266
673.766634106285 10101.364383358818
674.7534352856092 9869.451918544833
675.7399872729766 9745.173087384012
676.7262901446538 9909.446817826325
677.712343976862 9842.96902890706
678.6981488457986 9949.461857582346
679.6837048276229 9706.881658624767
680.6690119984596 9836.687242341946
681.6540704344043 9793.715362188716
682.6388802115107 9770.75437246051
683.6234414058108 9731.238085021972
684.6077540932874 9679.715793675294
685.591818349907 9692.57075112098
686.575634251587 9717.545699963282
687.5592018742263 9585.317200349898
688.5425212936734 9487.078392681473
689.5255925857564 9541.701354687239
690.5084158262707 9524.68538406434
691.4909910909646 9409.444781088714
692.4733184555644 9424.72427194547
693.4553979957618 9420.415268238334
694.4372297872123 9346.483171941263
695.4188139055404 9339.657791913949
696.4001504263324 9172.616294829448
697.3812394251509 9287.154329588879
698.3620809775111 9318.931808466503
699.3426751589104 9207.131200222257
700.3230220448004 9208.264207264921
701.3031217106054 9146.156103753652
702.2829742317172 9342.726012189132
703.2625796834873 9001.16118942748
704.2419381412474 9012.806837393951
705.22104968028 9188.375197263838
706.1999143758458 9091.42738379903
707.178532303169 9008.115540713672
708.1569035374378 9113.02167329402
709.1350281538107 9170.131074949515
710.1129062274158 9084.220408392559
711.0905378333373 9215.508920763921
712.0679230466376 9244.998812601958
713.0450619423427 9336.246198755387
714.0219545954424 9496.675465309758
714.9986010808989 9426.67003863243
715.9750014736292 9539.75909163053
716.9511558485392 9688.492078253448
717.9270642804786 9781.870429499539
718.9027268442787 9862.14277470299
719.8781436147328 9894.460460896584
720.8533146666014 9849.72127830218
721.828240074612 9857.829760183213
722.8029199134635 9845.687732810255
723.7773542578125 9814.610757806306
724.751543182294 9717.243992029236
725.7254867615029 9707.285580555836
726.6991850700015 9515.599666559998
727.6726381823228 9497.420515576947
728.6458461729599 9522.65804818728
729.6188091163858 9370.108764415645
730.5915270870246 9434.761720989361
731.5640001592856 9257.408032383859
732.536228407529 9316.408186999854
733.5082119060917 9299.34018837436
734.4799507292755 9237.235100962855
735.4514449513481 9261.653490666717
736.4226946465496 9328.846360024048
737.3936998890786 9410.532662376641
738.3644607531078 9201.60343750045
739.3349773127793 9285.162325731384
740.3052496421951 9250.634234968262
741.27527781543 9193.788736417895
742.2450619065221 9037.953882337119
743.2146019894826 9089.708438699898
744.183898138288 9035.6211175744
745.1529504268801 9078.397394523725
746.1217589291682 8818.755058048117
747.0903237190341 8928.738083411708
748.058644870318 8834.517362233251
749.0267224568397 8845.962805023017
749.994556552374 8652.359187910457
750.9621472306771 8779.956066985544
751.9294945654583 8739.103155306144
752.8965986304011 8762.602488015058
753.8634594991636 8705.307416686413
754.8300772453586 8830.119924620061
755.7964519425768 8791.143465196492
756.762583664371 8900.08418403439
757.7284724842611 8866.67436609009
758.6941184757416 8785.440809069087
759.6595217122667 8779.128168553592
760.6246822672638 8841.263800228451
761.5896002141235 8643.531397258765
762.5542756262093 8799.619338022278
763.5187085768503 8845.20996761528
764.4828991393406 8708.369525616406
765.4468473869474 8761.611916635875
766.4105533929032 8809.765727626955
767.3740172304078 8708.029485532423
768.3372389726283 8799.912233229972
769.3002186926988 8534.949119456573
770.2629564637282 8495.782448168095
771.2254523587872 8468.77119200771
772.1877064509154 8380.239468464037
773.1497188131179 8232.678609350882
774.1114895183728 8218.017487670997
775.0730186396268 8151.1456200051225
776.0343062497905 8116.11994437408
776.9953524217381 7968.735423986858
777.9561572283274 8061.947963464777
778.9167207423689 8058.612559933873
779.8770430366476 7964.243865449828
780.8371241839159 7911.647152455293
781.7969642568951 7910.8495707692955
782.7565633282757 8141.791295077807
783.7159214707099 7904.398824768783
784.6750387568281 7958.787512086377
785.6339152592227 7994.607541388565
786.5925510504512 7876.0240189883
787.5509462030477 8015.335651593676
788.5091007895098 7938.256111021257
789.4670148823006 7930.634522734808
790.4246885538596 7925.481208768957
791.3821218765861 7939.450920748796
792.3393149228505 7842.361495341445
793.2962677649975 8033.797276163141
794.2529804753303 8061.0127783685575
795.20945312613 8061.243238581655
796.1656857896378 7996.618842265251
797.1216785380675 8038.812488112073
798.0774314435985 8203.573564899709
799.0329445783846 8396.904470567319
799.9882180145414 8405.98439178358
800.9432518241574 8372.241277125102
801.89804607929 8651.604148334021
802.852600851962 8719.237472456505
803.8069162141637 8685.687709563212
804.760992237856 8857.21545338093
805.714828994971 8890.017368382494
806.6684265574077 9016.033221532665
807.6217849970271 8930.29541308872
808.574904385674 8871.862946579531
809.527784795142 8989.933516786423
810.4804262972102 9119.583448030262
811.4328289636178 8841.209298919483
812.3849928660748 8699.074808410722
813.3369180762638 8599.234738636595
814.2886046658241 8632.701373246997
815.2400527063783 8451.564076124643
816.1912622695108 8305.338045584449
817.1422334267718 8296.589276420218
818.0929662496856 8141.895514933213
819.0434608097457 7880.165143660197
819.9937171784059 7896.039532087528
820.9437354271013 7786.4434180249345
821.8935156272255 7792.4371728774
822.8430578501484 7621.165721460445
823.7923621672016 7424.585758125786
824.7414286496896 7592.632748631635
825.6902573688876 7532.430657301187
826.6388483960363 7529.243173385138
827.5872018023492 7376.074560011123
828.5353176590033 7484.421319239111
829.4831960371503 7246.144003678279
830.4308370079016 7334.010491522247
831.3782406423525 7360.325844941627
832.3254070115545 7336.174040264697
833.2723361865319 7261.747527817897
834.2190282382799 7210.274827875194
835.1654832377644 7258.595271506722
836.1117012559116 7198.985639351564
837.0576823636256 7377.869493409975
838.003426631778 7120.196593668986
838.9489341312074 7096.977993393531
839.8942049327197 7275.065272114873
840.8392391070975 7268.063307751882
841.7840367250865 7149.825519185017
842.7285978573982 7189.970467064386
843.672922574724 7219.3359477855
844.6170109477152 7129.193085588459
845.560863046996 7097.939536677729
846.5044789431595 7115.893043287285
847.4478587067697 7109.481164913426
848.3910024083561 7321.765242616624
849.333910118421 7124.041242864662
850.2765819074339 7122.608500449455
851.2190178458332 7225.326186226257
852.161218004032 7220.733429558398
853.1031824524016 7127.206740480498
854.0449112612987 7152.08187341563
854.9864045010327 7209.549018633578
855.9276622418947 7112.091473025456
856.8686845541379 7148.260103730994
857.8094715079915 7188.756432540174
858.7500231736467 7281.945039638078
859.690339621271 7238.5410863483285
860.6304209209939 7256.513492496502
861.5702671429244 7159.645627247382
862.5098783571284 7236.89158893276
863.4492546336569 7378.319371406207
864.3883960425155 7263.958328940261
865.3273026536863 7371.931050661251
866.2659745371238 7233.928183408943
867.2044117627465 7525.56654165112
868.1426144004472 7340.390151052542
869.0805825200823 7500.6249963200535
870.0183161914847 7575.969269001592
870.9558154844526 7633.2996721821955
871.8930804687552 7622.372039981227
872.8301112141307 7508.704740845669
873.7669077902865 7757.842346905051
874.7034702669062 7900.584422091868
875.6397987136315 7852.396707335565
876.5758932000863 7948.661714357327
877.5117537958522 8028.79766453504
878.4473805704911 8026.990012036169
879.3827735935283 8038.5169204332315
880.3179329344603 8181.449846028336
881.2528586627541 8243.37636240981
882.1875508478479 8254.97774072375
883.1220095591489 8245.133161570444
884.0562348660296 8135.675691045295
884.9902268378391 8287.306968234236
885.9239855438955 8194.960722986792
886.8575110534839 8018.46352956816
887.7908034358588 8129.588455746333
888.7238627602474 8039.508938531215
889.6566890958475 8059.704192962739
890.5892825118208 7843.130952541379
891.5216430773125 7880.804713050083
892.4537708614189 7859.980881850989
893.3856659332196 7639.93783248034
894.3173283617652 7500.531102176557
895.2487582160684 7621.75440177792
896.179955565116 7520.207974550431
897.110920477864 7311.3232511906845
898.0416530232451 7313.152832329404
898.9721532701478 7228.78524093618
899.9024212874428 7302.0782482330005
900.8324571439662 7083.592315345602
901.7622609085302 7087.455502902744
902.6918326499072 6997.422359958291
903.6211724368477 7091.485437203371
904.5502803380696 7059.167239204934
905.4791564222614 7077.874323500395
906.4078007580792 6924.822841979336
907.3362134141571 6921.1467797455725
908.2643944590909 7060.889520620217
909.1923439614493 6796.798247281957
910.1200619897754 6911.484480205574
911.0475486125779 6985.979696849836
911.9748038983344 6939.346533915496
912.9018279155007 6803.002981901898
913.8286207324982 6698.295393207307
914.7551824177117 6821.627719807226
915.6815130395116 6737.022873711081
916.6076126662283 6701.4162586006905
917.533481366163 6739.205836920371
918.4591192075914 6749.097192441599
919.3845262587565 6784.610211903462
920.3097025878706 6657.391484947131
921.2346482631237 6650.778281414301
922.1593633526682 6622.015619179566
923.0838479246304 6801.820364413582
924.0081020471061 6799.969757976227
924.9321257881656 6571.966639930336
925.8559192158464 6638.115320756148
926.7794823981512 6587.781833057352
927.7028154030686 6538.2367040821755
928.6259182985414 6543.360378546107
929.5487911524906 6674.189189351149
930.4714340328119 6700.500138416333
931.3938470073608 6416.396172027289
932.3160301439748 6491.861264313694
933.2379835104548 6493.050116725561
934.1597071745709 6657.413815855578
935.0812012040769 6572.908761446168
936.002465666681 6651.7190811523415
936.9235006300696 6654.852127981957
937.8443061619055 6540.567985105695
938.7648823298077 6450.896428811651
939.6852292013809 6506.955708688841
940.6053468441951 6551.934717559912
941.5252353257874 6437.709216551835
942.4448947136698 6485.305416045197
943.364325075323 6519.116875063563
944.2835264782043 6512.655750782908
945.2024989897309 6488.226741483377
946.1212426773054 6522.930797734503
947.0397576082851 6562.4826716124735
947.9580438500125 6645.399738430763
948.8761014697939 6664.961040498284
949.7939305349064 6577.531804448753
950.7115311125999 6474.077350409833
951.6289032700952 6430.2483576781115
952.5460470745875 6632.107608917943
953.4629625932339 6435.699895389099
954.3796498931715 6521.511302836288
955.2961090415029 6536.321342965004
956.2123401053068 6470.84599893211
957.1283431516276 6527.847016651741
958.0441182474842 6419.538184927967
958.9596654598663 6610.350085426813
959.8749848557309 6525.713977407012
960.7900765020167 6399.617675610769
961.7049404656209 6390.569946283037
962.6195768134185 6475.028435278675
963.5339856122537 6539.19448735265
964.4481669289453 6284.465891389313
965.3621208302793 6491.214298975265
966.2758473830145 6322.448727654092
967.1893466538822 6551.53816806336
968.1026187095813 6415.312653071883
969.0156636167867 6395.650202014389
969.9284814421426 6477.113691065602
970.8410722522622 6467.283270506065
971.753436113735 6448.284513566356
972.6655730931161 6330.569070461411
973.5774832569368 6438.1870122126475
974.4891666716958 6359.495165047313
975.4006234038698 6286.006396161953
976.3118535198955 6292.225512026403
977.2228570861935 6509.580263774327
978.1336341691494 6484.88537206173
979.0441848351202 6314.017282176442
979.9545091504333 6434.772983864434
980.864607181391 6450.43982382575
981.7744789942699 6440.859137410682
982.6841246553086 6439.74669295001
983.5935442307236 6481.585876321339
984.5027377867027 6465.414265129335
985.4117053894024 6465.100730930924
986.3204471049557 6469.4087695644475
987.2289629994648 6573.65993901754
988.1372531390007 6647.103209177862
989.0453175896091 6583.632460952744
989.9531564173067 6592.766047023067
990.860769688079 6425.748822962048
991.7681574678918 6497.877677765019
992.6753198226706 6626.354135444398
993.582256818323 6574.435659294092
994.4889685207218 6608.159701173461
995.3954549957143 6747.662111412913
996.301716309119 6750.2762746734925
997.2077525267232 6774.59667670962
998.1135637142943 6684.351765991292
999.0191499375615 6808.905928449341
999.924511262232 6909.019607980187
1000.8296477539861 6854.7767943597155
1001.7345594784656 6809.135390755138
1002.6392465012996 6698.670108950198
1003.5437088880753 6968.275627039089
1004.4479467043584 6971.717113054365
1005.3519600156869 6685.82084971157
1006.2557488875718 6858.670643757783
1007.1593133854858 6958.246225153623
1008.0626535748888 6800.93517735155
1008.9657695212009 6719.013574111274
1009.8686612898182 6909.2122817822865
1010.7713289461135 6927.980624155015
1011.6737725554212 6802.924696894204
1012.5759921830577 6772.10118288014
1013.4779878943027 6762.386503331286
1014.379759754418 6840.497728837606
1015.2813078286254 6691.602866354774
1016.18263218213 6572.2790957908
1017.0837328801026 6639.247179142112
1017.9846099876886 6749.6826683054505
1018.8852635700023 6605.896585770744
1019.7856936921362 6436.7450166788785
1020.6859004191447 6604.855715027983
1021.5858838160675 6452.889806379983
1022.4856439479063 6419.206715330618
1023.3851808796389 6274.460778174181
1024.2844946762143 6467.301563959514
1025.183585402554 6331.1411969992605
1026.082453123554 6164.015117847843
1026.9810979040776 6291.218521943834
1027.8795198089647 6221.905002433358
1028.777718903024 6290.858581731909
1029.6756952510368 6165.693972220506
1030.5734489177648 6220.466744025168
1031.4709799679313 6131.421887054078
1032.3682884662358 6368.069589641714
1033.2653744773506 5943.936053158159
1034.1622380659192 6063.154760064178
1035.058879296559 6186.14634981653
1035.9552982338591 6239.274180623864
1036.8514949423825 6114.95811097607
1037.7474694866614 6192.577886530298
1038.6432219312028 6102.762775308705
1039.5387523404825 6354.419506143622
1040.4340607789582 6299.7309770973825
1041.3291473110476 6269.830844560655
1042.2240120011465 6419.224969950846
1043.1186549136273 6495.822809270282
1044.0130761128294 6449.294696038562
1044.9072756630649 6477.708037528887
1045.8012536286205 6638.2118301583205
1046.6950100737577 6692.954377621636
1047.588545062701 6781.040826407947
1048.481858659663 6751.298065644318
1049.3749509288118 6942.166241129579
1050.2678219343034 6816.858695546796
1051.1604717402515 6844.076742003757
1052.0529004107575 6705.982623698454
1052.9451080098825 6832.2804123088845
1053.8370946016694 6748.963119031074
1054.7288602501267 6834.875116096536
1055.6204050192446 6768.7895928282915
1056.511728972977 6851.356593909009
1057.402832175254 6764.614214829121
1058.2937146899785 6634.6277553966265
1059.1843765810263 6590.538925184056
1060.0748179122456 6760.328127777563
1060.9650387474576 6635.821873675735
1061.855039150456 6636.641331157727
1062.7448191850071 6633.889090104703
1063.6343789148505 6629.888047332531
1064.5237184037014 6698.469213337396
1065.412837715241 6519.857777929561
1066.3017369131267 6502.2150322322395
1067.190416060992 6530.642177124911
1068.0788752224398 6494.367598714165
1068.9671144610438 6410.503325066506
1069.8551338403558 6500.563838464433
1070.7429334239023 6543.037484051309
1071.6305132751695 6348.389851272798
1072.517873457633 6439.51705123515
1073.4050140347335 6310.222913961347
1074.2919350698776 6365.983228783122
1075.1786366264623 6321.072454672867
1076.0651187678395 6289.547375328722
1076.95138155735 6152.393310931066
1077.8374250582929 6163.071780705152
1078.7232493339507 6181.311334412176
1079.608854447577 6112.912973172242
1080.4942404623907 6046.981210945957
1081.3794074415982 6038.547128232235
1082.2643554483657 6090.024895374496
1083.149084545841 5873.858521731004
1084.033594797138 5897.858014377307
1084.9178862653516 5943.076344384213
1085.8019590135427 6094.425411425875
1086.6858131047484 5778.607436256927
1087.5694486019802 5948.738146733547
1088.4528655682225 5828.301240240633
1089.3360640664287 6039.307531085215
1090.2190441595321 5781.03497783112
1091.1018059104317 5783.746069579649
1091.98434938201 5932.3587677796795
1092.866674637111 5937.89202159616
1093.748781738559 5770.171925835965
1094.6306707491512 5648.515591954425
1095.5123417316554 5814.898987727425
1096.3937947488157 5706.296514803036
1097.2750298633455 5733.846621550962
1098.156047137938 5735.766323947971
1099.0368466352556 5712.757530082772
1099.9174284179317 5893.781163063631
1100.7977925485757 5635.785267301834
1101.6779390897755 5697.926369197825
1102.5578681040806 5817.914754297349
1103.4375796540226 5754.157103728381
1104.3170738021054 5714.880986296188
1105.1963506108077 5505.803356676129
1106.0754101425773 5622.620053965615
1106.9542524598382 5756.041377493441
1107.8328776249855 5704.712461888843
1108.7112857003904 5625.19178845578
1109.5894767483987 5681.5544317304975
1110.4674508313292 5910.029548544119
1111.3452080114657 5806.068701780492
1112.2227483510815 5934.359897914187
1113.1000719124077 5984.922459194284
1113.9771787576592 6079.380772975899
1114.854068949022 6036.436457658399
1115.7307425486542 6173.1758088241895
1116.6071996186893 6264.561932927258
1117.483440221229 6493.744277444738
1118.3594644183577 6275.8612387517205
1119.235272272128 6517.044030123494
1120.1108638445658 6682.294026766738
1120.9862391976712 6900.610299587504
1121.8613983934229 6864.28721614548
1122.7363414937627 7004.464537839373
1123.6110685606182 7078.576812974864
1124.485579655884 7357.2104642617005
1125.359874841426 7364.141920179752
1126.2339541790916 7337.8436620071025
1127.1078177306936 7563.264762755678
1127.9814655580267 7529.3240561645125
1128.854897722851 7576.126310999663
1129.7281142869106 7533.977236168255
1130.6011153119125 7647.560603598946
1131.473900859548 7788.365039480467
1132.3464709914697 7652.00500128603
1133.2188257693178 7574.476107876291
1134.0909652546961 7498.450762783956
1134.96288950919 7507.847106721951
1135.8345985943506 7508.82719388536
1136.7060925717087 7255.483797722652
1137.57737150277 7233.044201597868
1138.4484354490069 7331.018900207458
1139.3192844718778 7089.91035416259
1140.1899186327992 6860.275939603884
1141.060337993178 6925.401071106442
1141.930542614382 6778.56686099584
1142.8005325577597 6679.915049031185
1143.670307884635 6406.722297966801
1144.5398686563003 6494.751789673118
1145.409214934025 6468.7420052025855
1146.2783467790541 6032.268639027563
1147.1472642526023 6163.168341226059
1148.0159674158622 6132.005270348042
1148.8844563300026 5998.657069916393
1149.7527310561618 5777.601935471596
1150.6207916554504 5677.217197522991
1151.4886381889592 5608.891939160648
1152.3562707177498 5745.191612442576
1153.2236893028585 5578.549271043734
1154.090894005296 5450.003234927413
1154.9578848860474 5585.166938441991
1155.8246620060709 5496.887674089479
1156.6912254262988 5293.696717896382
1157.5575752076438 5345.434967037886
1158.42371141098 5535.175869135202
1159.2896340971656 5486.0227701015365
1160.1553433270346 5309.258376438758
1161.0208391613887 5388.296780248134
1161.8861216610057 5252.351803742631
1162.75119088664 5360.31014536623
1163.6160468990201 5308.114079395901
1164.4806897588442 5247.551972451238
1165.3451195267917 5349.766154565354
1166.2093362635114 5334.884984464066
1167.0733400296285 5307.977367736443
1167.9371308857444 5180.877409031965
1168.8007088924278 5228.69782966449
1169.6640741102328 5238.9249365735
1170.5272265996773 5206.278629695993
1171.390166421259 4988.949288711482
1172.252893635452 5314.035708070256
1173.1154083026995 5417.444985541966
1173.977710483421 5308.7323721410885
1174.8398002380145 5137.473094027312
1175.7016776268483 5194.682572890751
1176.563342710264 5257.497506176041
1177.4247955485826 5163.237067555533
1178.2860362020947 5411.660234195951
1179.147064731069 5151.299605580933
1180.0078811957483 5265.05293541912
1180.8684856563486 5219.03066242657
1181.7288781730604 5306.030481450025
1182.589058806052 5302.795658031305
1183.4490276154593 5547.844012997724
1184.3087846614017 5305.017525614837
1185.1683300039676 5384.01386997259
1186.027663703222 5655.69827903747
1186.8867858192025 5501.216114012106
1187.7456964119228 5521.187847997158
1188.6043955413716 5662.866249033551
1189.4628832675116 5711.314340198781
1190.3211596502842 5845.996992382376
1191.179224749596 5788.432261540934
1192.0370786253388 5736.727804702097
1192.8947213373758 5960.353225776204
1193.7521529455407 6137.197369248742
1194.6093735096438 5961.586937849488
1195.466383089477 5992.766958469225
1196.3231817447977 6013.236788086558
1197.1797695353398 6258.664471980352
1198.0361465208189 5966.479165243871
1198.8923127609214 6053.190464973684
1199.7482683153048 6224.419829954219
1200.6040132436028 6362.907718770997
1201.459547605431 6165.011555674564
1202.3148714603722 6166.476537862292
1203.1699848679855 6256.368490896147
1204.0248878878065 6279.118100277196
1204.8795805793507 5951.03887720368
1205.7340630020935 6233.972136211065
1206.5883352155033 6076.078876114099
1207.4423972790064 6033.5861341660775
1208.2962492520237 5929.211903748321
1209.1498911939307 5910.687889891415
1210.0033231640937 5964.7984252753095
1210.8565452218427 5894.393132371019
1211.7095574264913 5547.142317923145
1212.5623598373222 5655.279711825383
1213.4149525135963 5580.087114532062
1214.2673355145507 5598.2499129234375
1215.1195088993936 5406.04666337205
1215.9714727273113 5460.589321272971
1216.8232270574663 5610.313113969967
1217.6747719489904 5274.329258799232
1218.5261074609934 5292.156518337623
1219.3772336525653 5399.953315213713
1220.2281505827668 5506.030550839362
1221.0788583106296 5424.137212174603
1221.9293568951707 5188.5825120717145
1222.7796463953746 5047.804157335765
1223.629726870202 5294.354697131687
1224.4795983785934 5335.79199778366
1225.3292609794553 5156.7974140217375
1226.1787147316809 4978.812669735269
1227.0279596941327 5167.460627484374
1227.8769959256424 4999.222334324097
1228.7258234850306 5207.82100826968
1229.5744424310833 4977.328295831483
1230.422852822563 5207.159149970246
1231.2710547182105 5296.843925837626
1232.119048176739 5155.201768566434
1232.9668332568417 4900.888808482158
1233.8144100171812 5211.807479881461
1234.6617785163999 5170.000446343025
1235.508938813111 4864.392479717032
1236.3558909659114 4942.888933395438
1237.2026350333617 5152.828512846449
1238.049171074008 5251.806993542514
1238.8954991463652 5027.893205604763
1239.741619308932 5111.500231222389
1240.587531620169 5188.783286801894
1241.4332361385277 5264.890251965457
1242.2787329224248 5022.504002727939
1243.1240220302534 4996.957696832924
1243.9691035203869 5022.119141856973
1244.813977451171 5294.035337590112
1245.6586438809263 5104.486212329377
1246.5031028679496 4911.7863399163425
1247.3473544705157 5238.433163417767
1248.1913987468706 5193.776419766199
1249.0352357552383 4988.138354092047
1249.8788655538228 4978.151550275854
1250.7222882007918 5271.0405783768465
1251.565503754302 5147.502908220757
1252.4085122724755 4856.858369725481
1253.2513138134182 5197.74325172528
1254.0939084352049 5148.536344073973
1254.9362961958905 5020.772004404863
1255.7784771535007 5022.521416073972
1256.6204513660432 5148.382520343362
1257.4622188915 5277.895465718712
1258.3037797878242 5040.90000099498
1259.1451341129468 4867.784696168497
1259.9862819247755 5109.920085567175
1260.8272232811978 5025.178799052255
1261.6679582400666 5292.278754810918
1262.5084868592203 4877.233443663919
1263.34880919647 4950.971970586121
1264.1889253095997 5080.957251326353
1265.0288352563712 5192.301826333814
1265.8685390945266 4902.672032057142
1266.7080368817751 5151.396803221671
1267.5473286758115 5160.89851993908
1268.386414534294 5071.562808681939
1269.2252945148703 4704.979279052181
1270.0639686751547 4901.851520114644
1270.9024370727402 4918.3759829946885
1271.7406997651997 4867.526817434883
1272.5787568100714 4797.481140542921
1273.4166082648808 4808.989859399268
1274.2542541871244 4824.301130368844
1275.091694634275 5099.156340738833
1275.9289296637817 4704.344350372317
1276.7659593330663 4936.098074379086
1277.6027836995308 4825.7644048066795
1278.4394028205552 4925.934068571866
1279.2758167534867 4855.118888614045
1280.112025555658 4894.109508672655
1280.9480292843746 4880.204471097924
1281.7838279969128 4647.159399465164
1282.6194217505326 4824.503846359206
1283.4548106024686 4690.729927393475
1284.289994609926 4764.719271161534
1285.1249738300921 4823.300596330076
1285.959748320127 4607.810416537593
1286.7943181371702 4798.885684190713
1287.6286833383328 4740.057056548652
1288.4628439807038 4793.2247619067075
1289.2968001213521 4763.203262116768
1290.1305518173194 4807.617528300843
1290.9640991256183 4817.193072185713
1291.7974421032523 4712.71699614982
1292.630580807183 4699.94173154413
1293.463515294361 4865.289052119188
1294.29624562171 4959.951810499161
1295.12877184613 4676.998642948145
1295.961094024493 4711.911434055739
1296.79321221365 4840.261633742788
1297.6251264704333 4902.084010125537
1298.4568368516466 5138.252415246258
1299.2883434140658 4907.161784755448
1300.1196462144526 4741.615120365217
1300.9507453095375 4909.866132285519
1301.7816407560313 5002.451201069457
1302.6123326106172 4986.8214740234225
1303.4428209299622 4814.367703636272
1304.2731057707024 5171.748872133557
1305.1031871894502 4865.4374904415035
1305.933065242798 5086.172873657959
1306.7627399873181 4936.4721931518825
1307.5922114795467 5484.601938906022
1308.4214797760123 5432.90423459086
1309.2505449332057 5044.790548580462
1310.0794070076026 5231.5347078826735
1310.9080660556538 5255.342835939606
1311.736522133786 5358.890870293458
1312.5647752983987 5153.855623292822
1313.3928256058734 4989.15179657773
1314.2206731125661 5267.090868812306
1315.048317874809 5284.981191192924
1315.8757599489109 5171.858039080661
1316.7029993911547 5288.606376467352
1317.5300362578055 5452.514493989228
1318.356870605101 5175.1995531481225
1319.183502489257 5309.587549109494
1320.0099319664623 5364.850169495001
1320.836159092889 5472.512531442545
1321.66218392468 5448.742920795137
1322.4880065179532 5262.282620338823
1323.3136269288134 5419.858023810315
1324.1390452133292 5488.407740990836
1324.9642614275563 5592.762663826455
1325.7892756275214 5450.380560275955
1326.6140878692295 5252.6214684906645
1327.4386982086617 5683.265318903857
1328.2631067017755 5434.457030018946
1329.0873134045069 5415.400553036708
1329.911318372764 5356.648337964417
1330.735121662441 5434.664188473348
1331.558723329399 5358.419653725709
1332.3821234294774 5312.097519924833
1333.2053220185007 5424.006087145508
1334.0283191522612 5292.332005513888
1334.851114886529 5556.761272433397
1335.6737092770582 5218.121983196426
1336.4961023795695 5318.561426446917
1337.3182942497697 5252.155424564972
1338.1402849433325 5284.609104465182
1338.962074515921 5130.8420824420855
1339.7836630231632 5114.053104534795
1340.6050505206676 5517.674594101815
1341.426237064028 5391.357421419889
1342.2472227088037 5161.035302057664
1343.0680075105338 5030.647586067122
1343.888591524741 5144.240241831924
1344.7089748069138 5255.923618125811
1345.5291574125276 5197.293611288485
1346.3491393970307 4979.360161480425
1347.168920815846 5328.299426887455
1347.9885017243778 5309.503194633557
1348.8078821780036 5148.20658810026
1349.6270622320844 5260.702206590902
1350.4460419419447 4938.6730342519295
1351.2648213629054 5245.354584729504
1352.0834005502438 4954.586760424532
1352.90177955923 5039.542610969787
1353.7199584451064 5188.3875266669975
1354.5379372630887 5213.7645388463225
1355.355716068374 5052.16652206319
1356.1732949161305 4896.234663629305
1356.9906738615155 4992.631042226645
1357.8078529596478 5086.224873430174
1358.6248322656375 5190.653660939247
1359.441611834567 4959.313304953181
1360.2581917214866 5268.0363116426015
1361.0745719814367 5044.360208562295
1361.890752669433 5019.337006696553
1362.7067338404577 5001.5647727928035
1363.5225155494845 5212.679951874981
1364.3380978514506 5210.093857352213
1365.1534808012839 4882.715578929075
1365.9686644538815 4766.820541897814
1366.783648864117 5184.452422421187
1367.5984340868417 5158.453248904537
1368.413020176893 5133.312448656012
1369.2274071890715 4879.67669704349
1370.0415951781652 5220.979003900228
1370.8555841989346 5044.229832287959
1371.6693743061223 4890.982141010378
1372.48296555444 4777.829173308281
1373.2963579985844 5076.613107657197
1374.1095516932255 5119.400613983927
1374.9225466930166 4722.409084369018
1375.7353430525782 5034.986005582532
1376.5479408265164 4813.717688998493
1377.36034006941 5131.0763002908225
1378.1725408358216 5091.370961487334
1378.9845431802805 4747.4105635652095
1379.796347157304 5280.420192120198
1380.6079528213813 5100.497753877506
1381.4193602269788 4686.281731660925
1382.230569428546 4790.887712165343
1383.0415804805016 5008.230330520912
1383.852393437246 4954.300172568922
1384.6630083531563 4945.412098249284
1385.4734252825892 4895.1084716052055
1386.2836442798798 4918.335705458614
1387.0936653993322 4972.157609648534
1387.9034886952395 4840.301245851331
1388.713114221864 5008.607210309065
1389.5225420334482 5013.247815996375
1390.331772184214 4796.848208892696
1391.1408047283585 4587.722233627754
1391.9496397200564 4913.399840310364
1392.758277213461 5045.570043031408
1393.5667172627054 5090.850875336293
1394.3749599218918 4841.198212967789
1395.1830052451114 4707.959019835122
1395.9908532864265 4828.571354037601
1396.7985040998774 5076.813576779411
1397.6059577394808 4745.445970593061
1398.4132142592352 4851.032388440123
1399.2202737131156 4816.623206113125
1400.027136155073 5045.555483006379
1400.8338016390353 4777.7157542025
1401.6402702189134 4876.446496920497
1402.446541948586 5083.219762238199
1403.2526168819204 4712.703029718639
1404.058495072757 4752.248596226712
1404.8641765749107 4808.508836054259
1405.6696614421799 4814.967136429945
1406.4749497283356 5146.7866889930865
1407.280041487129 4642.911861591223
1408.084936772295 4416.928427274883
1408.8896356375335 4821.099152337254
1409.6941381365323 4810.187573935846
1410.498444322955 4485.522277634054
1411.3025542504402 4679.326458124424
1412.106467972606 4662.406346951788
1412.9101855430508 4629.64674078532
1413.7137070153458 4370.994410841749
1414.5170324430437 4527.241666498592
1415.320161879672 4575.786739080051
1416.1230953787435 4757.703735444495
1416.925832993742 4391.299825627388
1417.7283747781275 4309.572491054352
1418.5307207853439 4382.347548063384
1419.3328710688093 4415.365481535597
1420.134825681922 4116.8451720567355
1420.9365846780584 4259.655854243356
1421.7381481105713 4544.970276623515
1422.539516032788 4458.530968147172
1423.3406884980232 4199.251366896226
1424.1416655595604 4149.906624912473
1424.942447270665 4156.215484861927
1425.7430336845828 4360.508857355997
1426.5434248545298 4018.5440401971655
1427.3436208337116 4236.373942223874
1428.143621675301 4238.049418381956
1428.9434274324558 4406.602282868272
1429.7430381583108 4010.8688907649184
1430.5424539059713 4159.918604446535
1431.3416747285337 4547.584570596773
1432.1407006790632 4259.983208980308
1432.9395318106053 4280.91155509427
1433.7381681761835 4053.242235273118
1434.5366098288014 4233.543856911086
1435.3348568214424 4235.5751824737645
1436.1329092070573 4084.240725602062
1436.9307670385879 4126.090136354996
1437.7284303689503 4240.504012023145
1438.5258992510335 4275.226990124445
1439.3231737377118 4180.167769345114
1440.1202538818306 4047.5668714740996
1440.9171397362225 4086.6451973580542
1441.7138313536925 4104.303666060609
1442.5103287870243 3947.0603344890296
1443.3066320889775 3884.212672397677
1444.1027413122956 4249.7190941606395
1444.8986565096966 4112.510703751173
1445.694377733882 4100.80882290675
1446.4899050375207 3864.1748055050766
1447.2852384732687 4034.8127970501337
1448.0803780937622 4095.2939279902566
1448.8753239516063 3797.6079856845695
1449.6700760993954 3773.083212748229
1450.464634589689 4013.7921920324743
1451.2589994750397 4249.594202371512
1452.0531708079689 3880.2969767970126
1452.8471486409799 3776.9638957750453
1453.6409330265524 4137.075709698951
1454.4345240171442 3877.106272697052
1455.2279216651987 3827.2188319303837
1456.0211260231263 3901.1037335740593
1456.8141371433194 4161.587793098873
1457.6069550781594 4044.117862188819
1458.3995798799897 3702.692497778399
1459.1920116011424 3740.3166834789395
1459.98425029393 3730.9522337124545
1460.7762960106338 3774.4179396630147
1461.5681488035225 3848.710682775476
1462.3598087248392 3967.833900632971
1463.1512758268036 4089.960234130078
1463.942550161617 3781.4846686971696
1464.7336317814625 3841.1649799343095
1465.524520738496 3926.6046947483082
1466.3152170848552 3754.6222479150556
1467.1057208726506 3807.9659670930755
1467.8960321539817 3711.6162632564556
1468.6861509809169 3727.9417394910242
1469.4760774055085 3748.2068291062396
1470.265811479785 3864.3542970573094
1471.055353255755 3622.9556683490214
1471.844702785409 3746.4984445904
1472.6338601207044 3685.971223558069
1473.4228253135934 3912.4560570802378
1474.2115984159936 3661.462319235931
1475.0001794798063 3482.6989814893436
1475.7885685569145 3868.891156614067
1476.576765699172 3695.1640013664774
1477.3647709584238 3740.8507232824986
1478.1525843864802 3937.9614758972843
1478.9402060351367 3883.454804737784
1479.7276359561693 3848.1212990428917
1480.514874201328 3737.5694364760557
1481.3019208223468 3495.017726325771
1482.0887758709323 3477.2417506112383
1482.8754393987747 3948.8615103067714
1483.6619114575406 3542.7253777943615
1484.4481920988783 3846.329913344313
1485.2342813744108 3838.9555581630098
1486.0201793357446 3969.124328469815
1486.8058860344572 3730.878486067847
1487.591401522117 3826.368522750413
1488.3767258502594 3815.8221603373195
1489.1618590704056 3852.817324995712
1489.9468012340494 3577.875527555786
1490.7315523926754 3915.6802685783246
1491.5161125977356 3932.52659035861
1492.3004819006637 3973.7282338858736
1493.084660352877 3799.794906909129
1493.8686480057622 3874.7995099566047
1494.6524449106964 4073.3289163103864
1495.4360511190262 4033.8975277501827
1496.219466682087 3959.783073147498
1497.0026916511779 3874.816427467637
1497.7857260775945 3867.4795382147654
1498.5685700125996 3978.5808822481913
1499.3512235074395 3698.9317810385155
1500.133686613337 3740.0280031341813
1500.9159593814966 3734.497360297247
1501.698041863101 4250.810685250789
1502.4799341093094 3671.5974825453973
1503.2616361712662 3629.8453504980653
1504.043148100087 3900.199499714929
1504.8244699468742 3966.7057646201365
1505.6056017626997 3768.056507624625
1506.3865435986281 3624.6881404291394
1507.1672955056893 3884.1999661977256
1507.9478575348967 3753.5928727715823
1508.7282297372512 3951.595570973858
1509.5084121637192 3793.424809366514
1510.2884048652577 3812.817087368545
1511.0682078927948 3675.4556231664014
1511.8478212972423 3706.151603849967
1512.6272451294917 3739.495754853072
1513.4064794404076 3839.909569655526
1514.1855242808433 3780.2636559049415
1514.9643797016215 3815.2079205294385
1515.743045753552 3865.9420246803834
1516.5215224874191 3852.906411054987
1517.2998099539836 3504.623472299149
1518.077908203999 3759.220010692956
1518.8558172881785 3704.8028271359644
1519.633537257234 3844.5057025818815
1520.4110681618404 3773.467632301359
1521.1884100526604 3814.247345154408
1521.9655629803365 3631.4523760040875
1522.7425269954856 3970.7764934043903
1523.5193021487103 4015.5076001515054
1524.2958884905856 3638.109500915176
1525.0722860716687 3724.8093390725576
1525.848494942502 3795.00843152337
1526.624515153595 3751.6490873757984
1527.4003467554485 3784.9944269453636
1528.175989798534 4002.2027268077954
1528.9514443333064 3749.6043881778555
1529.726710410203 4148.631382292687
1530.5017880796331 3687.4671927266236
1531.276677391992 3802.0496141572266
1532.0513783976457 4143.718822337444
1532.825891146953 3911.6541479690704
1533.6002156902414 3941.102114385897
1534.3743520778207 3846.9517169439437
1535.1483003599806 3974.688096999011
1535.9220605869923 3988.219626983052
1536.6956328091019 4014.9434447712943
1537.4690170765407 3868.4717833960303
1538.242213439511 4063.0195387519925
1539.015221948208 4000.546912018531
1539.78804265279 3854.8536921966006
1540.560675603405 3798.4151968153374
1541.3331208501804 4122.4447360351905
1542.1053784432224 4176.577851443286
1542.8774484326168 4082.924989554682
1543.649330868422 4067.5258997109986
1544.4210258006842 4082.6184240895623
1545.1925332794308 4125.921214376552
1545.9638533546604 4077.698553629181
1546.7349860763552 4064.081784931813
1547.5059314944829 4447.43111116415
1548.27668965898 4155.990479614886
1549.0472606197673 4119.87782239051
1549.817644426752 4025.990769178696
1550.5878411298072 4245.913023138978
1551.3578507787988 4168.163345289808
1552.1276734235635 4107.8427028657525
1552.8973091139233 4243.273569583915
1553.6667578996767 4304.575376480863
1554.436019830604 4178.569735760687
1555.20509495646 4104.6619750159
1555.9739833269869 4060.7814203205257
1556.7426849919011 4033.02187259797
1557.511200000903 4418.940220541159
1558.2795284036674 4255.872829421929
1559.0476702498509 4131.725733260905
1559.8156255890954 4339.766963075189
1560.5833944710157 4562.181797258536
1561.3509769452048 4141.180360523776
1562.1183730612447 4116.540675857419
1562.8855828686865 4164.118189031811
1563.6526064170703 4566.184791319845
1564.4194437559127 4452.97438673379
1565.1860949347047 4136.72882356359
1565.9525600029283 4527.662456640449
1566.7188390100328 4541.996240381535
1567.4849320054564 4206.617094196626
1568.250839038612 4147.13506921708
1569.0165601588997 4231.5773620477385
1569.7820954156887 4342.2069258539395
1570.5474448583373 4236.302906864335
1571.31260853618 4196.298679126276
1572.0775864985299 4033.332530012388
1572.8423787946813 4281.529003954783
1573.6069854739108 4034.253706392684
1574.371406585471 4245.320218629638
1575.1356421785986 4342.949803739863
1575.899692302506 4131.136262688053
1576.6635570063845 4265.353197016584
1577.4272363394157 4038.8854970080165
1578.190730350747 4048.7796146475075
1578.9540390895163 4195.776472846854
1579.7171626048384 3836.4891940817156
1580.480100945806 3981.8274318300064
1581.2428541614918 4014.2971119687186
1582.0054223009538 4084.7803949757085
1582.767805413223 4020.3552292842446
1583.5300035473156 4106.321147202169
1584.292016752228 4428.104483955308
1585.0538450769309 4095.142560230862
1585.8154885703807 3905.07220050716
1586.5769472815136 4010.196847326394
1587.3382212592405 4041.4566573171455
1588.099310552463 4232.210300585715
1588.8602152100484 4248.060706058466
1589.6209352808564 4246.230325238846
1590.3814708137234 4024.3011285723755
1591.14182185746 4111.774664677363
1591.9019884608679 4078.9251976367714
1592.6619706727215 3751.0324157230834
1593.4217685417734 4084.1408606766718
1594.1813821167616 4313.4613562260365
1594.9408114464022 3870.854261870069
1595.7000565793933 4093.0098543508657
1596.459117564409 4154.959044634216
1597.2179944501113 3950.0423987076174
1597.9766872851324 4036.6161268319693
1598.735196118092 4277.666529384311
1599.4935209975883 4219.964430072757
1600.2516619721973 4284.364001505142
1601.0096190904787 3988.8640873398517
1601.7673924009723 4068.727059662492
1602.524981952196 4000.5214853683806
1603.2823877926476 4017.1977982175085
1604.0396099708087 4014.3868834274413
1604.7966485351371 3894.7803807731916
1605.5535035340745 4028.7649890117877
1606.3101750160404 4261.478341704138
1607.0666630294363 3944.4406237655785
1607.822967622642 3852.628096776126
1608.5790888440224 4073.2936976529795
1609.3350267419137 4160.982546588368
1610.0907813646445 3954.9026181587906
1610.8463527605145 4028.083406726428
1611.601740977805 4116.521271564052
1612.356946064785 4147.97587622639
1613.1119680696902 3801.688861928998
1613.8668070407512 3938.939362398847
1614.6214630261748 3924.879313059892
1615.375936074137 4102.572183867993
1616.1302262328118 4072.4258981026082
1616.8843335503425 3972.3713022175507
1617.638258074854 3834.5395760026486
1618.391999854457 4024.0998025008557
1619.1455589372363 4098.990296096961
1619.8989353712623 3974.662658113203
1620.65212920458 3776.728181440013
1621.4051404852235 3852.029520637928
1622.1579692611976 4034.940034303825
1622.9106155804966 3795.207403551354
1623.663079491087 3831.7475423936876
1624.4153610409248 4138.40353293471
1625.1674602779385 3865.2374037938607
1625.9193772500403 3792.7561501634045
1626.6711120051277 4214.338248670271
1627.4226645910676 3866.9455745532905
1628.174035055721 3863.4338272664404
1628.9252234469168 4075.1176450455887
1629.676229812474 3978.1985776946576
1630.4270542001905 4215.720428119874
1631.1776966578382 3969.527625658302
1631.9281572331747 3970.598139047802
1632.678435973945 4191.5331001544855
1633.4285329278573 4151.712325908978
1634.1784481426203 3798.738496814811
1634.9281816659113 3940.5999067909966
1635.677733545388 4257.206375365722
1636.4271038286934 4084.3145849473885
1637.176292563452 4232.904696690555
1637.9252997972635 4114.005559080018
1638.674125577716 4276.314981359997
1639.4227699523672 4628.890686437562
1640.171232968767 3948.1079025759345
1640.9195146744423 4258.8333767678
1641.6676151168977 4439.630875741812
1642.4155343436178 4505.733094417507
1643.1632724020765 4274.31687247102
1643.9108293397167 4264.466220264419
1644.658205203974 4371.940710000132
1645.4054000422566 4891.328802937735
1646.1524139019566 4297.648172542335
1646.8992468304423 4265.544172146055
1647.6458988750728 4378.293624289709
1648.3923700831765 4447.029841345101
1649.1386605020743 4403.4736393778585
1649.8847701790564 4670.572347303973
1650.6306991614038 4546.952507477146
1651.3764474963682 4631.9154304976655
1652.1220152311944 4194.397946755824
1652.867402413096 4668.0978882755535
1653.6126090892776 4559.2471827131585
1654.3576353069184 4854.565145563541
1655.1024811131829 4503.288188289186
1655.8471465552066 4496.671782591548
1656.5916316801213 4745.251080871209
1657.3359365350298 4574.0978420038655
1658.0800611670165 4367.969215292379
1658.824005623148 4485.3601441179835
1659.5677699504722 4290.338786576522
1660.3113541960192 4603.189027126939
1661.054758406799 4270.366014466087
1661.7979826297997 4247.94778990713
1662.5410269119966 4132.408709414404
1663.283891300338 4680.214955305715
1664.0265758417645 4208.859918000625
1664.7690805831826 4328.0927711161685
1665.5114055714948 4395.70682862465
1666.2535508535748 4563.667050502769
1666.9955164762814 3989.0875996742725
1667.7373024864555 4245.661456892509
1668.478908930916 4178.6960417982145
1669.220335856462 4104.227769632258
1669.9615833098778 3988.947234848244
1670.7026513379296 3958.7546537728617
1671.44353998736 4071.573335968481
1672.1842493048916 3951.872384961344
1672.9247793372379 3945.5656879228927
1673.6651301310812 4075.8206951386287
1674.4053017330934 3801.937403581923
1675.1452941899242 3970.8003893537184
1675.885107548207 3473.5074958123064
1676.6247418545518 3583.7897164581373
1677.3641971555535 3632.538743759183
1678.1034734977893 3931.5203595323046
1678.8425709278108 3725.2555086694783
1679.5814894921605 3996.2386987940563
1680.320229237359 3677.698921906392
1681.0587902098978 3883.831778420748
1681.7971724562685 3615.587266834259
1682.5353760229264 3407.4433789100813
1683.2734009563173 3654.6694591007267
1684.0112473028657 3408.0439532145283
1684.7489151089794 3534.380227977701
1685.4864044210462 3686.9804236985015
1686.2237152854377 3155.4151013199216
1686.960847748498 3561.4960782846842
1687.6978018565642 3290.743835804573
1688.434577655944 3274.7651461870346
1689.1711751929379 3242.919132733816
1689.9075945138156 3426.6801057537114
1690.6438356648396 3267.794816612765
1691.3798986922448 2876.533605133689
1692.1157836422499 3119.9162083562737
1692.851490561059 3181.3675114216912
1693.587019494853 3164.6564123710177
1694.3223704897991 2885.087224222946
1695.0575435920364 2902.772846386327
1695.792538847696 3445.3641416943074
1696.527356302886 2971.4252021933808
1697.2619960036936 2765.978382430096
1697.9964579961907 2817.052864706322
1698.730742326432 2449.731895807624
1699.4648490404488 2648.686189915241
1700.1987781842563 2787.117818327396
1700.9325298038548 2918.4379542721404
1701.6661039452174 3128.4327975859733
1702.3995006543082 2723.1541338427705
1703.1327199770658 2937.174627571305
1703.865761959416 2712.2328547417055
1704.598626647261 2955.5137121348343
1705.3313140864866 2586.290582860106
1706.0638243229587 2694.5863182603566
1706.7961574025303 2834.0829006666677
1707.528313371029 2674.95301075711
1708.260292274268 2445.290004310427
1708.9920941580403 2583.1557886415753
1709.7237190681226 2734.346785682444
1710.4551670502697 2549.571560954195
1711.18643815022 2471.074732306049
1711.9175324136959 2999.2253724533093
1712.6484498863938 2596.9575672069764
1713.379190614005 2341.2116939351686
1714.109754642188 2577.438718254548
1714.8401420165883 2511.8659478846903
1715.570352782839 2540.7834846770384
1716.3003869865497 2569.8554461892777
1717.0302446733076 2409.826833830761
1717.7599258886876 2560.3718554696375
1718.4894306782444 2877.537720716755
1719.2187590875183 2868.8228122501528
1719.9479111620203 2860.0523619585365
1720.6768869472544 2477.1935312717073
1721.4056864887025 2769.839422369814
1722.1343098318284 2778.2316321455237
1722.8627570220742 2530.126317928382
1723.591028104871 2448.223298520481
1724.3191231256242 2291.7225452873413
1725.0470421297232 2548.39487601752
1725.7747851625427 2670.574476588824
1726.5023522694337 2602.2109952844207
1727.2297434957363 2550.907666680848
1727.9569588867635 2194.9296505585326
1728.6839984878152 2671.8470112316118
1729.4108623441734 2130.820156220558
1730.1375505011038 2559.4989159191905
1730.8640630038426 2247.9195784308927
1731.5903998976264 2265.1040051837267
1732.316561227657 2431.7511662895695
1733.0425470391274 2276.8892087656923
1733.7683573772065 2375.9867210060515
1734.4939922870508 2448.7499698186175
1735.2194518137949 2472.934504624239
1735.9447360025606 2367.5874879878324
1736.669844898439 2429.5374496531163
1737.3947785465189 2194.6074198453252
1738.1195369918605 2153.0260497842223
1738.8441202795093 2313.7420975861933
1739.5685284544943 2545.6576142672066
1740.292761561821 2516.740548376821
1741.0168196464838 2575.739542323441
1741.7407027534518 2432.448060577762
1742.464410927687 2428.5522107116813
1743.187944214118 2268.964369597442
1743.9113026576688 2334.2512839704514
1744.634486303241 2307.5788847783183
1745.3574951957125 2355.6198948876686
1746.0803293799509 2506.2679233692497
1746.8029889008048 2280.5912144550957
1747.5254738031017 2480.2561117742325
1748.2477841316504 2265.8211381979154
1748.969919931249 2312.145556643807
1749.6918812466665 2196.8909861333195
1750.4136681226646 2449.1977407810073
1751.1352806039777 2289.709829290572
1751.856718735331 2046.1637523815534
1752.5779825614281 2111.3113937646717
1753.2990721269507 2322.867991481019
1754.0199874765676 2428.2753476117655
1754.7407286549314 2133.2826327204957
1755.4612957066693 2251.8157921317434
1756.1816886763954 2300.884139790765
1756.9019076087097 2414.657727097327
1757.6219525481865 2403.955675894308
1758.3418235393856 2258.32586437494
1759.061520626854 2350.399342748952
1759.7810438551096 2534.8654778047535
1760.5003932686614 2100.167496989285
1761.2195689119999 2498.727665225543
1761.938570829594 2379.9032485691905
1762.657399065898 2274.4422062960557
1763.376053665348 2061.3953553878823
1764.0945346723602 2168.169106358445
1764.812842131334 2475.0849136357574
1765.5309760866512 2207.108583788624
1766.2489365826787 2181.519077103235
1766.9667236637597 2265.633169329448
1767.684337374223 2057.857332915404
1768.401777758383 1989.6452077839524
1769.1190448605284 2082.7849135642987
1769.836138724937 2003.5041360992159
1770.5530593958665 2254.792961992581
1771.2698069175603 2457.4285522356363
1771.9863813342326 2345.719587155105
1772.702782690094 2177.1581741708187
1773.4190110293293 2364.134807640177
1774.1350663961111 2332.8276871848575
1774.8509488345844 2112.9571649443596
1775.5666583888924 2286.232147037326
1776.2821951031437 2330.195801523673
1776.9975590214362 2217.446908051098
1777.7127501878585 2401.428361462594
1778.4277686464684 2319.911692350299
1779.1426144413108 2467.6020986003
1779.8572876164162 2351.009970030425
1780.571788215797 2119.5567935761082
1781.2861162834415 2359.4696649077396
1782.0002718633277 2130.156199044637
1782.7142549994132 2239.358216598567
1783.4280657356376 2294.6934745871054
1784.141704115922 2129.768315516346
1784.855170184177 2202.572977760379
1785.5684639842839 2325.4408196644044
1786.2815855601148 2325.4970749733047
1786.9945349555237 2325.5367284017602
1787.707312214343 1988.0082806146354
1788.4199173803918 2014.3503294011366
1789.132350497468 2040.9129576050495
1789.8446116093583 2172.0411923791366
1790.556700759822 2071.139692454968
1791.2686179926077 2107.616340814315
1791.9803633514493 2123.846585217022
1792.6919368800554 2033.254538475836
1793.4033386221236 2208.5727152149334
1794.1145686213295 2336.8145612700555
1794.8256269213307 2421.107505629484
1795.536513565774 2252.4717327256344
1796.247228598284 1895.7215309663814
1796.9577720624693 2045.422683261809
1797.6681440019165 2234.0184275293614
1798.3783444602013 2226.375452065619
1799.0883734808776 2339.6315989899163
1799.7982311074884 2312.9007348686973
1800.5079173835475 2251.3486098286685
1801.2174323525633 2291.887239833906
1801.9267760580187 2130.8484968249577
1802.635948543386 2276.0801135636316
1803.3449498521113 1986.4568411188295
1804.0537800276325 2175.5193345473817
1804.7624391133668 2111.4522857766256
1805.47092715271 1904.001081251246
1806.1792441890484 1960.786338675293
1806.8873902657433 2361.146438147581
1807.5953654261448 2075.5719510795907
1808.3031697135812 2073.741858953973
1809.0108031713662 2041.142555691537
1809.71826584279 2129.9145871289575
1810.425557771141 2165.448649968271
1811.1326789996747 2115.113177504023
1811.839629571632 2064.603693370137
1812.5464095302468 2189.0415302000165
1813.2530189187182 2217.564677475746
1813.959457780249 2165.0941052157555
1814.6657261580076 2241.9682895898327
1815.371824095153 2146.0145914587465
1816.0777516348262 2314.9277163652782
1816.78350882015 1786.7956091619974
1817.4890956942272 1956.66860997072
1818.1945123001533 1984.5044719465045
1818.8997586809928 2144.716086557602
1819.6048348798067 1927.2381721653783
1820.3097409396287 2150.438259945383
1821.0144769034796 2112.108069413617
1821.7190428143622 2073.630462321379
1822.423438715261 2180.225926823322
1823.1276646491478 2059.205232591932
1823.8317206589727 2157.243605853647
1824.5356067876692 2130.063670859515
1825.2393230781581 2135.593497077081
1825.942869573335 1849.4170374310338
1826.646246316086 1967.5202004311454
1827.3494533492758 2212.6725435683807
1828.052490715756 2108.061622381521
1828.7553584583547 2216.3141853709394
1829.458056619891 2099.1391257755276
1830.1605852431585 2019.0119086592647
1830.8629443709433 1815.9532294507637
1831.5651340460063 2025.676941986913
1832.2671543110919 1880.814002331729
1832.9690052089318 2157.6278885725956
1833.6706867822395 1826.444169375102
1834.3721990737104 2163.8709586809996
1835.0735421260233 2218.1001901881073
1835.774715981841 2048.5947156154666
1836.4757206838058 2301.8932970259702
1837.1765562745459 1953.264518677152
1837.8772227966747 1900.6961731626034
1838.5777202927839 1993.2666252056763
1839.2780488054523 1968.056049960352
1839.9782083772352 1884.8111833993705
1840.6781990506806 1918.3223747776533
1841.378020868313 1951.7808296683063
1842.0776738726418 1943.1038954826768
1842.777158106157 1901.7462871331722
1843.4764736113375 1857.7008179557888
1844.1756204306403 2168.4358877847953
1844.8745986065078 2011.8425891326042
1845.5734081813607 1820.5445220708837
1846.2720491976124 2030.361844858052
1846.970521697649 1893.335960260862
1847.6688257238511 2085.5599718831872
1848.3669613185684 2003.4329176904237
1849.0649285241452 1676.300614938095
1849.7627273829057 2112.170091525294
1850.460357937156 2045.2085977089341
1851.1578202291857 1721.9845764126217
1851.8551143012664 2122.665777479135
1852.5522401956569 2004.457220792588
1853.2491979545957 2262.94322499541
1853.9459876203055 1833.804073202081
1854.6426092349902 1904.4189143067051
1855.3390628408451 1836.555672518752
1856.0353484800362 2190.6653497287634
1856.7314661947203 2153.445549989534
1857.4274160270397 1773.2060025584797
1858.123198019115 2019.3327277336818
1858.8188122130487 1812.3655332838305
1859.5142586509319 1987.0116215677303
1860.209537374838 1967.7573159867256
1860.9046484268183 1959.7273844523982
1861.599591848917 2180.8397942154015
1862.294367683151 1919.2330875456187
1862.988975971528 1981.4856868215204
1863.6834167560355 2016.8341139416957
1864.3776900786452 2218.505116835894
1865.0717959813119 1868.9667253105254
1865.7657345059724 1860.7234548006134
1866.4595056945564 2160.511751444742
1867.1531095889586 2017.2480898677866
1867.846546231076 1836.248644882748
1868.5398156627743 2108.07324948696
1869.2329179259123 1898.0411082357314
1869.9258530623283 2109.953907539105
1870.618621113843 1927.5805656770317
1871.3112221222636 1771.1752129599267
1872.0036561293764 1826.1334952701854
1872.695923176956 2095.5998157445183
1873.3880233067594 2114.7609431720794
1874.0799565605212 1767.7637186750558
1874.7717229799673 1874.8383526261375
1875.4633226068036 2110.836315939657
1876.1547554827175 2069.307643847327
1876.8460216493859 1929.7001615063734
1877.5371211484617 1968.3926870635528
1878.2280540215852 2073.4711593700995
1878.9188203103804 1706.864945473991
1879.6094200564548 1891.5852979910044
1880.299853301396 1898.3611594757008
1880.9901200867826 2126.052005683295
1881.6802204541673 1974.916740662961
1882.3701544450942 2055.4447049738765
1883.059922101087 1775.0367872548948
1883.7495234636517 2077.9340437733563
1884.4389585742792 1867.4293852902185
1885.1282274744517 1900.7600385713208
1885.8173302056166 1892.6632321139782
1886.506266809225 1884.5586448233287
1887.195037326701 1671.5590130806686
1887.8836417994517 1817.4664362526153
1888.5720802688702 2122.7741301892156
1889.260352776333 2114.5149183454714
1889.9484593632042 2059.72940367938
1890.63640007082 1788.9260465307893
1891.3241749405151 1779.6148802411014
1892.0117840135954 2018.0626379420628
1892.6992273313572 1955.0620184567026
1893.3865049350788 1826.3062434746994
1894.0736168660223 2228.219105260254
1894.7605631654333 1918.3492222172124
1895.4473438745408 1663.798726778917
1896.133959034556 1809.210552183415
1896.820408686679 1954.7245507083421
1897.506692872088 2278.224303804417
1898.192811631945 1927.1935303842115
1898.8787650073991 1931.033747042557
1899.5645530395832 2058.861328778704
1900.2501757696118 2063.8669619528596
1900.9356332385796 1775.5445184333644
1901.620925487574 1860.4074341744974
1902.3060525576602 1945.5628945777237
1902.9910144898859 2061.8951985696226
1903.6758113252872 1765.8120685910799
1904.3604431048789 1977.960147668738
1905.0449098696663 2113.169336092726
1905.7292116606295 1948.5850069434011
1906.4133485187394 1915.1262552974233
1907.0973204849488 1634.7304350207044
1907.7811276001976 1693.2185853418694
1908.4647699053967 1793.912703419071
1909.1482474414588 1761.7699297314186
1909.8315602492694 1729.478955482143
1910.5147083696957 2021.3352755401143
1911.1976918436012 1938.437574744176
1911.880510711815 1706.2340611757293
1912.5631650151681 2066.6571944924954
1913.2456547944657 1795.3648532779905
1913.927980090495 1874.0991822361436
1914.6101409440362 1772.9888797019896
1915.2921373958416 1977.437765306883
1915.9739694866603 1843.9583468370577
1916.655637257214 2127.4389429053563
1917.3371407482136 1958.7433987946856
1918.0184800003572 2156.5900795929365
1918.6996550543154 1999.645181722289
1919.3806659507554 1925.877119464975
1920.0615127303208 1952.1553981961351
1920.7421954336423 2055.4517704346363
1921.4227141013343 2209.8936894623503
1922.103068773993 1963.752782986873
1922.783259492202 1993.6512889741953
1923.4632862965227 1889.6236716030126
1924.1431492275078 1783.7002774236546
1924.8228483256917 1629.2688646267652
1925.5023836315922 1818.8494660568297
1926.1817551857057 2002.7200538974241
1926.8609630285227 1696.0789057845109
1927.5400072005123 1893.3890289118324
1928.218887742125 1767.8386166092532
1928.8976046938005 1671.200714959962
1929.5761580959588 1989.8581789206437
1930.2545479890086 2020.218404691556
1930.9327744133352 1638.1900667006394
1931.6108374093164 1890.4018323822274
1932.2887370173066 2172.4140571811495
1932.9664732776473 2054.2246521255274
1933.6440462306673 1935.6892676442064
1934.3214559166754 1764.8300677137636
1934.9987023759659 2107.3237474725415
1935.675785648813 1900.1941448972343
1936.3527057754836 1421.4580776073888
1937.029462796223 1528.3097055675366
1937.70605675126 1635.4250275368502
1938.3824876808085 1644.840019157987
1939.058755625072 1821.9154563876102
1939.7348606242267 1861.1818756471507
1940.4108027184448 1869.0544044514227
1941.0865819478713 1999.256942949814
1941.7621983526478 1689.6751894591562
1942.4376519728921 1654.2472715206507
1943.1129428487038 1765.4138701147767
1943.7880710201734 1872.948208643052
1944.4630365273733 1922.0460000114551
1945.1378394103576 1630.6583810611482
1945.8124797091714 1617.3790096419802
1946.4869574638324 1604.0167098950699
1947.161272714353 1753.1426090544269
1947.8354255007234 1953.6828128731086
1948.5094158629272 1786.3106326227637
1949.1832438409183 1850.795095946184
1949.8569094746435 1919.2631175643305
1950.530412804037 2013.0454934869897
1951.2037538690092 1991.5610989100096
1951.8769327094578 1697.2063124179924
1952.5499493652678 1839.5469542747935
1953.222803876306 2087.073402864672
1953.895496282421 1954.3728694830993
1954.5680266234522 1773.6514361107318
1955.2403949392155 1912.2558341660474
1955.9126012695142 1629.7067185453357
1956.5846456541403 1734.1748933017086
1957.2565281328643 1686.4760185930597
1957.9282487454457 1948.5049840479103
1958.5998075316202 1907.8651782415152
1959.27120453112 1931.828020875361
1959.9424397836501 1848.1637338079377
1960.613513328908 1917.287531612182
1961.2844252065697 2015.9346562682524
1961.9551754563017 1664.0976327420944
1962.6257641177453 1739.9767767085511
1963.29619123054 1582.8956851173284
1963.966456834296 1720.628304358026
1964.6365609686181 1624.2105581407457
1965.306503673086 1632.9990547809825
1965.976284987275 1641.7542554315337
1966.645904950734 1917.6336300681342
1967.315363603002 1576.2925874048174
1967.9846609836077 1811.8026426336794
1968.6537971320486 1764.1177799226493
1969.3227720878222 1875.296941482308
1969.9915858904042 1828.476623963828
1970.660238579252 1851.813974478969
1971.3287301938108 1765.5641462185472
1971.997060773514 1696.2188720534912
1972.665230357772 1635.9088556781103
1973.3332389859843 1718.3043554325745
1974.0010866975335 1563.1215899516708
1974.6687735317864 1792.6274378570884
1975.3362995280932 1819.0064326355937
1976.003664725793 1852.305714091965
1976.6708691642052 1543.4626599621874
1977.3379128826364 1789.291921029025
1978.004795920373 1921.8152198432017
1978.6715183166925 1662.4002952377036
1979.3380801108524 2024.6870012584604
1980.0044813420973 1815.4475084150665
1980.6707220496555 1463.3283683213197
1981.3368022727373 1825.9593347924133
1982.0027220505417 1781.468476427309
1982.66848142225 1624.9848481128142
1983.3340804270283 1468.3147216811885
1983.999519104027 1746.4588365313568
1984.6647974923835 1767.2942356618253
1985.329915631215 1847.416612634034
1985.99487355963 1760.7353810636323
1986.6596713167146 1927.421679457678
1987.3243089415428 1676.306494378614
1987.9887864731754 1950.9605460600524
1988.6531039506553 1498.5634603951955
1989.3172614130071 1501.3590305879795
1989.9812588992481 1504.1830575014997
1990.645096448372 1410.425723978326
1991.3087740993633 1712.4363599932044
1991.9722918911848 1504.2196471185484
1992.635649862792 1798.7979269999728
1993.2988480531185 1738.5748287022084
1993.9618865010852 1721.4906213349593
1994.6247652455968 1704.4483006865782
1995.287484325545 1624.8154989086693
1995.9500437798033 1639.9200128915982
1996.6124436472292 1440.7289328026802
1997.2746839666706 1807.3729294770596
1997.936764776954 1579.3000747548508
1998.598686116895 1661.120639921094
1999.2604480252903 1966.7297661605194
1999.9220505409212 1902.22074925934
2000.5834937025593 1484.812875944738
2001.2447775489582 1797.1412122322818
2001.9059021188514 1614.437826278136
2002.5668674509616 1519.9331200871175
2003.2276735839987 1559.2836288565195
2003.8883205566508 1848.4747716379727
2004.5488084075987 1656.5081439858902
2005.2091371755014 1676.2558212676668
2005.8693068990033 1473.638652491455
2006.5293176167397 1537.9954006691958
2007.1891693673224 1602.6006423043448
2007.848862189354 1557.496295776379
2008.5083961214223 1733.661340911773
2009.1677712020955 1600.4773025901413
2009.8269874699254 1562.8640111435693
2010.4860449634598 1516.3912524634727
2011.1449437212177 1469.8860646738672
2011.8036837817108 1965.3055909241957
2012.4622651834325 1890.691781054397
2013.1206879648653 1851.579539414132
2013.7789521644736 1970.9370560290401
2014.4370578207036 1856.7024302557177
2015.0950049719922 1742.0954734969514
2015.7527936567585 1942.9863343400805
2016.4104239134067 1624.726636141466
2017.067895780323 2097.758565656295
2017.725209295886 2036.0864537698296
2018.3823644984514 1974.1930340810268
2019.0393614263648 1817.5594270112483
2019.6962001179545 1706.2112800554646
2020.3528806115355 1895.9622064358985
2021.0094029454067 1830.282174797699
2021.6657671578487 1524.165178775678
2022.321973287133 1733.7942948288742
2022.9780213715148 1627.0818486861456
2023.6339114492293 1763.6339785898385
2024.2896435585026 1680.4744705935748
2024.9452177375442 1759.6247578313796
2025.600634024544 1902.711223106735
2026.2558924576842 1915.6755357300735
2026.9109930751292 1841.0994170162153
2027.565935915025 1560.4027185579553
2028.2207210155066 1996.1233131086126
2028.8753484146964 2166.923000012879
2029.529818150695 2010.9741975516986
2030.1841302615903 1854.3894303152915
2030.8382847854573 1646.3665607971263
2031.4922817603601 1835.7331645081856
2032.1461212243357 1689.1387403196757
2032.7998032154192 1497.0109966265195
2033.4533277716218 1684.0781081221219
2034.1066949309443 1604.3362139989788
2034.7599047313688 1638.6732997858355
2035.4129572108704 1814.9311367780397
2036.0658524074006 1686.342950034361
2036.7185903589016 1746.0484642034523
2037.3711711032956 1955.9452455118403
2038.023594678496 1737.978466472675
2038.675861122394 1512.0396063024218
2039.3279704728757 1561.8181917516713
2039.9799227678031 1611.8540027319789
2040.6317180450278 1612.765156069349
2041.2833563423865 1559.3146044448363
2041.9348376977014 1942.6868523007815
2042.5861621487784 1831.5379459977753
2043.2373297334088 1881.6052413471243
2043.8883404893695 1669.4132373658147
2044.5391944544208 1758.177541024709
2045.1898916663158 1854.7552536762391
2045.8404321627804 2000.542661656998
2046.4908159815368 1546.2943472877519
2047.1410431602853 1528.2110686668657
2047.7911137367173 1473.0152789273202
2048.441027748504 1504.5944798190792
2049.090785233302 1536.1481604304743
2049.7403862287592 1599.6916133646394
2050.389830772503 1554.3800319824154
2051.0391189021466 1509.0696701476302
2051.688250655294 1691.9799543485083
2052.337226069527 1374.6841345001162
2052.986045182417 1878.7355397915194
2053.634708031521 1294.4421236555822
2054.283214654375 1754.3425219775825
2054.931565088511 1369.9876844473804
2055.579759371436 1451.3637649394932
2056.2277975406523 1706.8629489007035
2056.8756796336384 1842.7146519455684
2057.5234056878617 1383.2113863689965
2058.1709757407752 1469.9099726905495
2058.8183898298194 1638.5892818122018
2059.465647992416 1807.1764088260782
2060.1127502659747 1889.0064988961399
2060.759696687888 1508.4581351847055
2061.4064872955405 1753.4207879923683
2062.053122126292 1518.4938957005322
2062.699601217497 1768.2330234597944
2063.345924606485 1595.7845317745464
2063.992092330587 1494.2245820898008
2064.638104427102 1465.286357138551
2065.283960933324 1891.616375305409
2065.92966188653 1699.3283911929527
2066.5752073239855 1982.9842877039875
2067.2205972829397 1884.9493716162356
2067.86583180062 1786.8412417661561
2068.5109109142522 1675.0131346943647
2069.15583466104 1604.0784147591066
2069.8006030781708 1443.1117087531402
2070.445216202821 1526.9506248991947
2071.089674072153 1931.1572213382726
2071.7339767233116 1808.871828058071
2072.3781241934303 1719.5754167472442
2073.0221165196253 1735.24560166731
2073.6659537390024 1559.1258230891958
2074.3096358886505 1777.1064363595622
2074.953163005637 1635.2449633396404
2075.596535127028 1391.4287819796957
2076.2397522898664 1501.0782030522319
2076.882814531182 1561.6146787261882
2077.5257218879924 1762.073742952634
2078.1684743973 1531.4939314306166
2078.8110720960885 1433.7385634489813
2079.453515021336 1600.543793161809
2080.095803209997 1767.4994549700018
2080.7379366990135 1682.2228088844618
2081.37991552532 1813.0665623604114
2082.0217397258275 1789.8043671886098
2082.6634093374414 1411.8947561168113
2083.3049243970418 1593.5548855591262
2083.9462849415067 1728.2713948004352
2084.587491007689 1775.6287009173805
2085.2285426324324 1683.4970534377935
2085.869439852564 1697.6169455379306
2086.510182704902 1505.9591361808496
2087.1507712262483 1625.3387696979778
2087.791205453381 1751.265180073365
2088.4314854230743 1498.8046322403159
2089.0716111720867 1598.0862117485456
2089.7115827371617 1469.3389524457084
2090.351400155023 1488.0424303754758
2090.991063462385 1506.8547560413444
2091.6305726959527 1486.1939339071537
2092.2699278924047 1716.2010795563754
2092.9091290884153 1483.4604194862975
2093.548176320641 1311.0025948053583
2094.187069625721 1342.8481266042525
2094.8258090402887 1374.7630949166835
2095.464394600951 1685.7115695566645
2096.102826344313 1657.0625512475622
2096.741104306955 1825.7111768617615
2097.379228525453 1459.653012128423
2098.017199036358 1356.4952771252586
2098.6550158762147 1783.4732938872644
2099.2926790815527 1707.549702072744
2099.9301886888825 1730.651954460302
2100.5675447347076 1594.150455430245
2101.2047472555114 1887.0288882294087
2101.841796287761 1711.2923161976237
2102.47869186792 1577.8921736400641
2103.1154340324265 1381.2850970745883
2103.752022817709 1593.2065366517731
2104.388458260184 1565.2029718745525
2105.024740396251 1550.2602575221285
2105.660869262292 1468.5101543717024
2106.296844894685 1492.2796400134698
2106.93266732978 1516.140247630035
2107.5683366039284 1394.6662237184942
2108.2038527534532 1724.7311792134174
2108.8392158146726 1683.6762238262995
2109.4744258238843 1625.7309480438873
2110.1094828173755 1651.867035186022
2110.744386831422 1909.3626832776347
2111.3791379022787 1593.4652140316982
2112.01373606619 1791.2223421968836
2112.648181359389 1702.895521653286
2113.28247381809 1619.1458305347564
2113.916613478492 1632.1114392095214
2114.550600376786 1731.21139667741
2115.1844345491445 1561.871210067329
2115.818116031729 1505.2001855343235
2116.451644860679 1583.5046346772647
2117.085021072133 1303.4638771060586
2117.718244702204 1541.427274842334
2118.3513157869984 1391.358279969581
2118.984234362604 1295.9702967920043
2119.617000465092 1442.6035935505536
2120.249614130529 1519.0374020762329
2120.8820753949585 1595.5944724070887
2121.5143842944162 1455.8813115115977
2122.14654086492 1480.5001674632572
2122.7785451424734 1828.4411789615679
2123.4103971630702 1797.2539390807465
2124.042096962681 1766.1919050947076
2124.6736445772767 1826.460986835807
2125.305040042802 1430.1119636745314
2125.936283395191 1581.6702371027138
2126.567374670365 1796.694021344835
2127.198313904233 1412.1335730186981
2127.8291011326855 1394.458192702141
2128.4597363916037 1376.5801219851471
2129.0902197168507 1529.4642003253584
2129.720551144279 1355.221498837633
2130.3507307097225 1819.36904003382
2130.980758449008 1856.6688773335354
2131.6106343979427 1862.7483715965925
2132.2403585923203 1868.7382885677168
2132.8699310679276 1840.9716292065357
2133.499351860526 1730.7401989434213
2134.1286210058715 1622.9034246693911
2134.7577385397053 1773.089424104714
2135.3867044977487 1923.5188793034292
2136.0155189157176 1894.6839053286433
2136.644181829308 1922.2819062115782
2137.2726932742025 1614.2095686518203
2137.901053286074 1824.939670553622
2138.5292619005777 1672.7284393207913
2139.1573191533535 1520.3053394405645
2139.7852250800315 1668.7899001033038
2140.4129797162295 1623.761404135215
2141.0405830975433 1442.6248475667558
2141.6680352595613 1475.5205175917831
2142.2953362378576 1508.4960049275328
2142.9224860679915 1450.58676459542
2143.549484785508 1503.8548876636446
2144.1763324259373 1454.6845293036608
2144.803029024799 1381.3044244603027
2145.429574617594 1364.787978208888
2146.0559692398165 1371.6304235968885
2146.682212926942 1378.370985612368
2147.308305714432 1470.8055180629676
2147.9342476377333 1909.1985957932927
2148.5600387322847 1954.8527347076542
2149.185679033506 1654.2620677014747
2149.8111685768017 1494.8215685972962
2150.4365073975678 1476.8266357081106
2151.061695531187 1387.493792403615
2151.686733013021 1514.019832378972
2152.311619878423 1640.897747771481
2152.9363561627342 1576.0453530334883
2153.560941901278 1375.1720551749922
2154.1853771293663 1536.7578361623043
2154.809661882293 1540.5542677375902
2155.433796195348 1874.2540833431267
2156.0577801037944 1788.5210706932053
2156.681613642895 1702.5231361201872
2157.3052968478896 1406.0576857113151
2157.928829754006 1723.095124808918
2158.552212396462 1659.4250450959341
2159.1754448104566 1412.9509338723824
2159.7985270311783 1319.6933834902916
2160.4214590938027 1011.126756408941
2161.0442410334927 1179.6580055596714
2161.6668728853874 1257.5090405159124
2162.289354684628 1335.5533361751259
2162.911686466332 1440.280614071939
2163.533868265602 1546.4668918811353
2164.1559001175337 1848.4952094413068
2164.7777820572046 1773.475322850835
2165.399514119681 1607.4014576679422
2166.021096340013 1403.3738985793993
2166.6425287532384 1739.9493935797545
2167.263811394385 1279.4599134753175
2167.8849442984574 1845.9687703012546
2168.505927500455 1369.353972967861
2169.126761035366 1648.9843497093984
2169.7474449381552 1468.0609897143383
2170.367979243778 1193.8542365867115
2170.9883639871823 1804.9074968560606
2171.608599203293 1344.1284029111935
2172.2286849270276 2018.8223261914668
2172.8486211932886 2229.426260796501
2173.4684080369625 1561.6382581272633
2174.0880454929265 1276.0017748116327
2174.7075335960417 1227.3947748927867
2175.3268723811543 1248.7644424456162
2175.9460618831 1270.206033865
2176.565102136701 1495.9283869015494
2177.1839931767627 1503.8664111466755
2177.802735038078 1511.8470136532126
2178.421327755432 1382.0635114664328
2179.0397713635866 1391.8727437661
2179.658065897298 1447.0351511053345
2180.276211391305 1673.3121073113248
2180.8942078803357 1514.7366097349873
2181.5120553991 1576.731114086287
2182.129753982299 1358.5799349001638
2182.7473036646206 1546.6943160149845
2183.3647044807367 1650.6061666127127
2183.9819564653044 1631.7073354076351
2184.599059652968 1612.8196491969063
2185.216014078367 1709.2306237431058
2185.832819776113 1784.2314118765578
2186.4494767808137 1859.3081414780113
2187.065985127063 1475.5584966904366
2187.682344849436 1444.48535361315
2188.298555982501 1714.2634557958002
2188.9146185608097 1582.682287770791
2189.530532618901 1756.450763986466
2190.1462981912937 1787.7756158238894
2190.761915312507 1613.7776073614036
2191.377384017036 1525.333599112734
2191.9927043393654 1618.0714533707364
2192.6078763139667 1752.6615005381652
2193.2228999753006 1336.5306492536852
2193.837775357808 1491.683337942113
2194.452502495922 1231.83773480988
2195.0670814240602 1576.9156067929432
2195.6815121766285 1409.850660168051
2196.2957947880186 1263.0311483829112
2196.9099292926057 1115.9196467955917
2197.523915724758 1558.5649232885553
2198.137754118825 1447.3186879304178
2198.7514445091456 1909.2861432283585
2199.3649869300443 1968.0505894601042
2199.9783814158327 2027.0349401619733
2200.5916280008096 1884.2699167582796
2201.2047267192593 1795.2092553947957
2201.8176776054515 1527.059211516965
2202.430480693649 1306.8445223689089
2203.0431360180955 1611.6155576330152
2203.6556436130195 1399.3490274858016
2204.268003512645 1186.5624582488895
2204.8802157511727 1387.8436619100128
2205.492280362796 1770.0969106569023
2206.1041973816937 1667.6980861136217
2206.715966842032 1457.0304312381145
2207.3275887779655 1584.0624487911623
2207.93906322363 1753.4644085153202
2208.550390213153 1504.984214939859
2209.1615697806465 1709.4062474988464
2209.7726019602105 1337.1643284074196
2210.3834867859277 1432.642605569421
2210.9942242918787 1419.320840298138
2211.6048145121167 1442.5765842202165
2212.2152574806914 2103.155811616695
2212.825553231638 1446.6213058934718
2213.435701798975 1536.4503844824703
2214.045703216707 1626.5454399121943
2214.655557518832 1197.1521619291348
2215.2652647393297 1150.0195486884056
2215.874824912169 1107.2199400473912
2216.4842380713 1473.6513861383205
2217.09350425067 1212.2972556060656
2217.7026234842033 1615.5117131762288
2218.311595805819 1764.4393131785432
2218.9204212494133 1528.1117572726148
2219.52909984888 1890.0923999245074
2220.137631638092 1887.0981795105158
2220.7460166509154 1883.9781248619206
2221.354254921198 1333.7492536739421
2221.9623464827764 1649.2991533300287
2222.5702913694713 1591.9306261018623
2223.178089615096 1438.1235487333292
2223.7857412534486 1284.0304103657995
2224.39324631831 1190.144467721403
2225.000604843457 1434.8863475583576
2225.607816862641 1490.955901051986
2226.214882409611 1759.3323814926498
2226.8218015180973 1650.7837005718343
2227.4285742218217 1424.810542701012
2228.0352005544864 1270.8204623212623
2228.6416805497847 1582.0911873664022
2229.248014241399 1467.7547195865911
2229.8542016629945 1129.3661745137488
2230.460242848223 1610.0014738292234
2231.0661378307304 2014.3211917746835
2231.671886644139 1412.9935283067077
2232.277489322065 1012.8965926704002
2232.8829458981127 1128.391968624549
2233.48825640587 1540.8008053338629
2234.0934208789095 1619.6842634041263
2234.6984393507955 1698.6992014141517
2235.3033118550793 1637.2035675545587
2235.9080384252975 1514.4103453155312
2236.5126190949723 1191.492744540157
2237.1170538976166 1420.3597231358274
2237.721342866729 1439.7971144906674
2238.32548603579 1459.2685096113223
2238.9294834382763 1560.038001071764
2239.533335107646 1474.7993262463394
2240.1370410773434 1528.7639725906727
2240.740601380803 1543.1710997544278
2241.3440160514474 1557.616281372821
2241.9472851226783 1875.0110266612069
2242.550408627896 1884.6588114403378
2243.1533866004793 1894.3541983472962
2243.756219073799 1433.1179024529379
2244.3589060812064 1258.8012768634512
2244.961447656049 1196.428166344972
2245.5638438316564 1357.1601955309109
2246.166094641343 1538.9411569715185
2246.7682001184166 1307.932567636245
2247.3701602961664 1304.778436880361
2247.971975207871 1488.5844736112726
2248.5736448867974 1432.84626950618
2249.175169366197 1376.9424996593941
2249.7765486793123 1424.2733046671306
2250.3777828593684 1516.2619892695739
2250.9788719395783 1499.5010685628104
2251.579815953146 1519.9139499987277
2252.1806149332606 1514.916777781484
2252.781268913097 1509.8727284984966
2253.381777925817 1389.7641181872727
2253.9821420045737 1514.6900807803675
2254.5823611825035 1533.5873853780038
2255.1824354927303 1500.149715491851
2255.782364968365 1336.3961845751396
2256.38214964251 1172.457650510926
2256.9817895482483 1198.829018187443
2257.5812847186553 1331.868216549638
2258.180635186791 1242.8026487427092
2258.779840985704 1341.5953424616096
2259.37890214843 1229.8890408044977
2259.97781870799 1382.3723716616312
2260.5765906973957 1535.1397154181668
2261.175218149645 1679.8744726468271
2261.773701097718 1434.4012669419901
2262.3720395745895 1561.8502793819594
2262.970233613216 1351.3203031480114
2263.568283246548 1450.7915343893856
2264.1661885075137 1188.217075748541
2264.763949429038 1283.070263465032
2265.3615660440246 1224.024534989608
2265.959038385374 1164.9021566324257
2266.5563664859637 1609.4414705966929
2267.153550378669 1251.8045032231998
2267.7505900963424 1653.1290814317829
2268.3474856718312 1324.0693205398634
2268.9442371379664 1433.6275249584335
2269.5408445275643 1686.9616814692295
2270.1373078734377 1555.8154249976833
2270.7336272083758 1471.813252865812
2271.32980256516 1387.6199330732948
2271.925833976562 1634.3116984277283
2272.5217214753357 1458.7410781588821
2273.117465094223 1282.7893274992496
2273.7130648659586 1308.6476122751035
2274.308520823257 1380.7174070526412
2274.903832998827 1643.9384010943716
2275.4990014253563 1303.220405294947
2276.094026135528 1588.4427630893535
2276.6889071620117 1458.5892929645893
2277.2836445374614 1401.1066728412554
2277.878238294519 1604.9638821026904
2278.472688465812 1348.3585714945034
2279.066995083962 1816.6068345918932
2279.6611581815705 1447.2715046745311
2280.255177791232 1362.993885671097
2280.8490539455233 1526.3927174261112
2281.442786677013 1690.153433950393
2282.0363760182554 1599.9070461603492
2282.6298220017943 1659.9054823450278
2283.223124660155 1720.1305009623707
2283.816284025859 1387.9950280716519
2284.4093001314086 1288.7981610634386
2285.002173009292 1189.3972954233145
2285.5949026919952 1502.5208367855103
2286.1874892119777 1491.7108707539842
2286.7799326016993 1565.5925926922378
2287.3722328936 1213.6155604151113
2287.964390120109 1015.0113313604855
2288.556404313642 1562.3349694722706
2289.1482755066027 1858.3672700326108
2289.7400037313873 1429.2773363871231
2290.3315890203703 1316.7493669385483
2290.9230314059205 1524.74081807713
2291.5143309203904 1186.0768753529485
2292.1054875961236 1464.0384483309701
2292.6965014654506 1820.2011703282399
2293.287372560684 1233.8017076283825
2293.878100914131 1231.9235814264957
2294.468686558086 1230.0811114445476
2295.059129524827 1466.8495721419026
2295.649429846617 1567.1826270879787
2296.239587555716 1315.4003789614403
2296.8296026843636 1323.1198857347479
2297.419475264791 1282.8643259071782
2298.0092053292137 1242.454180601927
2298.598792909839 1640.2923740145459
2299.1882380388597 1599.9267504762488
2299.777540748455 1855.8297834990735
2300.3667010707904 1800.9020581543343
2300.9557190380256 1745.8054037183967
2301.544594682302 1511.5957520709055
2302.1333280357503 1277.1106648137709
2302.721919130485 1395.1167115727571
2303.3103679986198 1897.6331993267327
2303.898674672242 1712.32049017695
2304.486839183437 1286.9837822843385
2305.0748615642697 1499.354615249786
2305.6627418468015 1499.3030270636518
2306.2504800630704 1332.972249970047
2306.8380762451143 1572.2241942044798
2307.425530424949 1538.4131906028113
2308.012842634582 1504.5125988988052
2308.6000129060103 1876.2108994457844
2309.187041271214 2102.5465850136934
2309.773927762164 1306.3772372718745
2310.3606724108213 1789.9402810621123
2310.9472752491274 1179.082145845186
2311.5337363090184 1587.008963449297
2312.120055622414 1348.7210953747503
2312.706233221221 1340.585964468636
2313.2922691373424 1542.1444786569318
2313.8781634026564 1287.296512733292
2314.463916049037 1480.2120930009435
2315.049527108342 1370.1632681646727
2315.6349966124235 1757.045381752967
2316.2203245931123 1642.0560478608918
2316.8055110822315 1476.4283588818812
2317.3905561115935 1310.397814933267
2317.9754597129977 1351.5510384619674
2318.560221918229 1228.8865071422792
2319.1448427590603 1105.9702893124545
2319.729322267256 1140.4744341261144
2320.313660474563 1218.324325467345
2320.8978574127195 1436.2023967353948
2321.481913113452 1654.7286708073145
2322.0658276084705 1341.702287984594
2322.6496009294806 1447.1892318841988
2323.233233108165 1427.4984136667902
2323.8167241762058 1297.1429724749203
2324.4000741652617 1517.0277107271797
2324.983283106987 1498.8385055345589
2325.5663510330232 1652.0244464626153
2326.1492779749933 1507.3329865025676
2326.7320639645204 1781.8278551261642
2327.3147090332004 1910.6734163240835
2327.897213212629 2039.5114818041784
2328.4795765343843 1652.3289848466989
2329.0617990300307 1100.646418449967
2329.643880731124 1720.3452545642838
2330.22582166921 1130.8574201880047
2330.807621875816 1014.8419271117589
2331.3892813824623 898.7279130170606
2331.9708002206517 1074.3050818044535
2332.5521784218818 1200.187508356077
2333.133416017634 1326.3778806541034
2333.7145130393765 1334.5864221773013
2334.295469518571 1583.0632151228576
2334.876285486658 1653.0140132944205
2335.456960975076 1694.1165934160435
2336.037496015242 1735.3403924086335
2336.6178906385667 1410.464782150815
2337.198144876451 1317.8787105701715
2337.778258760278 1557.861568491478
2338.3582323214214 1490.9948605874429
2338.938065591243 1423.935301533174
2339.517758601087 1673.391437431818
2340.0973113822965 1561.4736105647712
2340.676723966193 1409.5888083215323
2341.255996384094 1471.4661801346153
2341.835128667295 1778.8990061309366
2342.4141208470883 1728.800534926666
2342.992972954751 1408.4185685536072
2343.5716850215467 1437.5833142071774
2344.1502570787306 928.7801220018986
2344.7286891575386 1148.5160441041237
2345.3069812892045 1303.376790645554
2345.885133504944 1458.399083214846
2346.4631458359618 1229.6155776841288
2347.04101831345 1172.9326109696842
2347.6187509685915 1199.815581722507
2348.196343832553 1256.365111492054
2348.7737969364935 1271.965566243982
2349.351110311558 1287.6113773871389
2349.9282839888765 1092.705182257419
2350.5053179995757 1301.6105808683756
2351.0822123747585 1425.1191952861875
2351.658967145526 1429.7781994480151
2352.2355823429643 1434.5286184660215
2352.812057998144 1597.3090502190814
2353.3883941421263 1273.8939303709576
2353.9645908059647 1623.3698668210013
2354.540648020693 1269.5156147716643
2355.116565817336 1068.2433412557675
2355.6923442269126 1267.8922670556633
2356.2679832804224 1467.9728024196002
2356.8434830088518 1269.7625170183042
2357.41884344318 1325.9391218011915
2357.994064614377 1246.6434050836765
