#exp_cfg={"servo_angle": 0.0, "laser_lim": 100.0, "servo_angle_to": 18.0, "laser_wup": 0.0, "bt_dev": "EnSpectr-25AE3", "laser_wdn_max": 0.0, "frames": 10.0, "servo_used": 0, "servo_calib_use": 0, "laser_wdn_min": 0.0, "servo_pix_from": 90.0, "cooler_tout": 300.0, "servo_angle_from": 0.0, "servo_calib": "[-1.9174921013161362e-09, 3.9322238269163779e-05, -0.27385609119055809, 653.59552119713567]", "laser_autoctl": 0, "servo_pix_to": 3682.0, "laser_pw": 100.0, "cooler_on": 0, "laser_volt": 4.0, "cooler_autoctl": 0, "cooler_curr": 70.0, "cooler_startup": 10.0, "laser_fixed_pw": 0, "gain": 1.3, "offset": 2.53059635486, "servo_calib_degree": 3.0, "laser_curr": 55.0, "shutter": 8200.0, "servo_calib_step": 1.0, "laser_fixed_curr": 0, "exp": 2000.0, "ccd_volt": 4.7, "bt_addr": "00:06:66:62:5A:E3", "servo_delay": 500.0, "laser_autooff": 1}
#proc_cfg={"flat_auto_wnd": 200.0, "flat_auto_fr": 200.0, "flat_auto_shift": 5.0, "yconv": 1, "flatten": 1, "flatten_strength": 100.0, "xfrom": 300.0, "auto_max_frame": 2000.0, "auto_signal": 48000.0, "flat_auto_tol": 0.1, "autoclip": 1, "xrel_range": 0.0, "flat_auto_to": 4000.0, "intensity_adj": 1.0, "xrel": 7852.0, "rmhot": 1, "flat_auto_slit": 4.999999999999997, "auto_ini_exp": 300.0, "auto_off": 0, "xto": 2860.0, "flat_auto_ref": "", "flat_auto_rank": 1, "autobackg": 0, "xrel_adj": 0.0, "auto_black_lvl": 1, "base_wnd": 100.0, "sub_baseline": 0, "xconv": 2, "auto_max_exp": 1000.0, "auto_total_exp": 10000.0, "auto_exp": 0, "rmripple": 0, "black_lvl": 8268.275, "shutter_clip_adj": 0.0, "auto_bckg": 0, "flat_auto_thr": 0.9, "subbackg": 1}
316.8218498245369 20248.80295573483
317.89969571804795 20159.536510956612
318.977263876126 20016.623748409784
320.05455438786703 19847.653076634542
321.1315673423287 19785.301863166405
322.2083028285215 19940.886165316668
323.2847609354267 19666.54052785987
324.3609417519747 19603.030717963626
325.43684536705587 19491.64048682578
326.5124718695279 19413.650341221022
327.58782134820103 19348.545464277493
328.66289389184385 19402.3308449763
329.7376895891921 19076.83155433375
330.8122085289342 19125.60135246798
331.88645079971866 19125.58709887097
332.9604164901575 18961.15002021568
334.03410568881554 18927.729151716096
335.1075184842266 19015.846921585246
336.18065496487543 18831.59670380543
337.2535152192122 18777.865295471613
338.32609933564163 18693.82697333498
339.39840740253203 18597.788991727688
340.4704395082099 18555.798803918136
341.5421957409617 18548.499068445097
342.6136761890357 18604.211954149858
343.6848809406365 18376.85233691011
344.75581008392874 18343.92141302574
345.82646370703696 18277.18616716466
346.8968418980512 18245.370391130862
347.96694474501055 18276.742576022138
349.0367723359268 18262.589357948218
350.106324758759 18190.226173292125
351.1756021014353 18056.65622010077
352.2446044518383 18108.405902850158
353.31333189781435 18219.657339194844
354.38178452716966 18096.876501292252
355.449962427665 18053.615011379014
356.51786568702846 18019.619391762586
357.58549439294256 18165.009816824466
358.6528486330535 18164.34798915036
359.71992849496564 18121.150233834076
360.7867340662433 18108.708696102905
361.8532654344144 18058.598064286496
362.9195226869597 18255.816114276568
363.9855059113288 18002.03953717699
365.05121519492604 18082.143398941575
366.11665062511565 18139.689804053938
367.1818122892273 18149.68776791427
368.2467002745434 18150.964127805455
369.31131466831175 18217.368894662337
370.375655557742 18131.741840084993
371.4397230299983 18157.70513467268
372.5035171722102 18110.158592729866
373.5670380714637 18127.40732237293
374.6302858148101 18235.93640394678
375.6932604892554 18159.962383878545
376.7559621817709 18223.373438679286
377.81839097928605 18011.23453707428
378.8805469686886 18078.963976671534
379.94243023683157 18248.203546506684
381.0040408705263 18065.790288443925
382.0653789565458 17982.797048869477
383.1264445816196 17980.650280896873
384.1872378324406 17993.0641877525
385.2477587956637 17994.216073589472
386.3080075579037 17884.918429180918
387.3679842057336 17744.821543871883
388.4276888256918 17873.607381119684
389.48712150426945 17761.189820297113
390.54628232792857 17717.013882313655
391.6051713830857 17673.82012392981
392.66378875611736 17625.06257405037
393.7221345333637 17658.96877258763
394.7802088011249 17468.11636790937
395.838011645661 17545.729137399998
396.89554315319765 17420.496431923355
397.9528034099112 17326.78292154586
399.00979250194723 17307.23692529431
400.06651051541485 17214.20152514494
401.1229575363741 17218.91887164386
402.17913365085224 17204.92570578126
403.23503894483656 17117.213346647044
404.2906735042761 17082.225861047376
405.3460374150818 16945.560150169906
406.401130763119 17023.675534044978
407.455953634224 16998.72986890812
408.5105061141876 16904.09466493619
409.56478828876243 16713.803111722045
410.6188002436629 16755.00624466601
411.6725420645689 16764.20504559564
412.72601383711117 16677.995171063165
413.77921564689314 16828.95893241502
414.8321475794728 16672.585567349295
415.88480972036814 16598.73396017329
416.93720215506437 16552.142443228913
417.9893249690049 16486.577404925178
419.04117824759123 16440.429088935987
420.09276207619223 16431.265973447968
421.144076540133 16413.850581436098
422.1951217247042 16365.353405690936
423.24589771515275 16356.201883268805
424.2964045966928 16324.486146181365
425.34664245449494 16356.159173489461
426.3966113736933 16342.637620579862
427.4463114393875 16152.752289559532
428.49574273662984 16195.377943998432
429.5449053504417 16085.8285008356
430.5937993658026 16171.244824070416
431.6424248676558 16024.911103641502
432.6907819409007 16074.434962099689
433.73887067040596 16099.07641215022
434.7866911409965 15983.468483229404
435.8342434374608 16024.709611018818
436.88152764455117 15962.371604107506
437.9285438469724 15857.822207284753
438.9752921294057 15881.530679100533
440.02177257648145 15855.876345533263
441.06798527279716 15647.13472800921
442.1139303029122 15857.957187705524
443.1596077513459 15814.749544805716
444.2050177025794 15829.811183228545
445.25016024105753 15834.37556640279
446.2950354511886 15775.697887558123
447.33964341733736 15842.747006498335
448.383984223834 15755.495814882563
449.4280579549686 15617.326154469774
450.471864694995 15695.43745027222
451.5154045281306 15703.28127407431
452.5586775385509 15626.572448904908
453.60168381039693 15620.828881996926
454.64442342776783 15761.075879192114
455.6868964747264 15627.732288384545
456.7291030353008 15611.749572456436
457.77104319347563 15656.787076158678
458.8127170332027 15592.95682309108
459.854124638392 15635.65743910821
460.895266092919 15775.826919976253
461.93614148061897 15727.655142722875
462.97675088529104 15761.161461888138
464.01709439069236 15688.629061556061
465.0571720805492 15748.662067848432
466.0969840385442 15832.91058010229
467.1365303483253 15949.960664286653
468.17581109350067 15782.943597375346
469.2148263576437 15730.578254466158
470.2535762242878 15841.369991228325
471.29206077693016 15991.742162363855
472.33028009902773 15922.831157131426
473.3682342740012 15888.25375623705
474.40592338523857 15925.830830625559
475.4433475160804 16045.123467287358
476.4805067498364 15994.34387848048
477.51740116978 16095.332247834356
478.5540308591426 16180.558816242596
479.59039590112116 16443.718357206155
480.6264963788726 16322.915775268624
481.6623323755193 16604.689713798223
482.6979039741436 16714.160012363212
483.7332112577915 16950.264273905967
484.76825430947247 17172.90119910427
485.80303321215797 17257.50426730325
486.837548048783 17423.196006022044
487.8717989022425 17611.983285890357
488.90578585539697 17760.656889793936
489.9395089910686 17829.034455850517
490.97296839203955 17758.874447762122
492.00616414106116 17727.598715515905
493.0390963208429 17669.467008078973
494.0717650140559 17645.538799369788
495.10417030333883 17501.76067040222
496.1363122712901 17349.867992433068
497.16819100046814 17062.32391226648
498.1998065734024 16772.80344246122
499.2311590725767 16690.951776492602
500.26224858044407 16398.707757711803
501.2930751794156 16202.759468925438
502.3236389518679 16115.83117232591
503.35393998014115 15890.659861118434
504.38397834653733 15740.10220940317
505.4137541333221 15742.907199259807
506.4432674227228 15536.916774529609
507.4725182969323 15529.002334074146
508.5015068381035 15454.883127338715
509.53023312835467 15415.590699783648
510.55869724976765 15318.804486773637
511.58689928438434 15195.196389906798
512.6148393142121 15134.051096827334
513.6425174212218 15236.035366054868
514.6699336873462 15221.31726065942
515.6970881944835 15227.381224468374
516.7239810244901 15039.633052228517
517.7506122591931 15059.94789577093
518.7769819803761 14952.230376891248
519.8030902697901 15045.858960606784
520.8289372091476 15019.76432295865
521.8545228801249 15187.914656316154
522.8798473643619 14965.239475423203
523.9049107434621 14964.698849434903
524.9297130989908 14975.817036565957
525.9542545124805 14898.848278910964
526.9785350654201 14928.518205899212
528.0025548392696 14806.225227239735
529.0263139154504 14796.756450132161
530.0498123753423 14759.669942998886
531.073050300296 14723.506053061032
532.0960277716204 14656.195777374905
533.1187448705896 14641.847850782582
534.1412016784416 14656.781922715989
535.1633982763833 14457.829581918306
536.1853347455726 14414.909212190638
537.2070111671401 14406.21758062745
538.2284276221817 14377.446644098807
539.2495841917516 14315.157835930713
540.2704809568677 14164.310169920343
541.2911179985167 14188.935652919987
542.3114953976419 14182.861424385464
543.3316132351592 14113.932931975414
544.3514715919409 13978.982362800161
545.3710705488247 13999.386063051026
546.3904101866156 13994.116274279764
547.4094905860784 13985.939815268055
548.4283118279418 13923.138765453443
549.4468739929034 13895.249276924753
550.4651771616191 13855.617725961094
551.4832214147063 13734.999836659801
552.501006832761 13794.207827067477
553.5185334963226 13746.182260000362
554.5358014859103 13877.353457919147
555.5528108820035 13717.879602047891
556.5695617650363 13729.31186958522
557.5860542154242 13799.923794611925
558.6022883135283 13683.042483956093
559.6182641396881 13648.484781931775
560.6339817741991 13729.30200968883
561.6494412973225 13704.780567378231
562.6646427892883 13773.88312898114
563.6795863302796 13622.995572671949
564.694272000459 13611.06761577437
565.7086998799423 13789.546801067068
566.7228700488104 13666.333035999774
567.7367825871115 13537.651197062023
568.7504375748576 13688.187755328745
569.7638350920224 13665.018724437648
570.7769752185486 13693.060993167412
571.7898580343353 13725.644906428555
572.802483619258 13647.292917179744
573.8148520531431 13815.839202509782
574.8269634157932 13874.063179005028
575.8388177869692 13797.111233513531
576.8504152463938 13955.224349057267
577.8617558737587 14097.387468592617
578.8728397487175 14022.360297537936
579.883666950891 14107.228780019428
580.8942375598654 14381.477773414372
581.9045516551851 14417.901195075794
582.9146093163617 14632.72757719945
583.924410622878 14606.3326208043
584.9339556541727 14630.47091796046
585.9432444896538 14719.836514715707
586.9522772086875 14582.938344001586
587.9610538906127 14780.265143206247
588.9695746147318 14629.830309350664
589.9778394603054 14770.950441092727
590.985848506567 14636.689391376625
591.9936018327098 14542.55729830364
593.0010995178891 14220.914620972922
594.0083416412344 14362.548363472777
595.0153282818283 14068.518190476205
596.0220595187293 13980.344526501814
597.0285354309508 13900.530183836489
598.0347560974806 13807.863351364776
599.0407215972609 13796.524467162817
600.0464320092051 13706.383748779917
601.0518874121954 13726.48915895398
602.0570878850685 13542.366855441182
603.062033506636 13601.947107613687
604.0667243556636 13565.959938011685
605.0711605108936 13458.374087042775
606.0753420510264 13807.260841323388
607.0792690547278 13551.897405798774
608.082941600629 13531.911426914085
609.0863597673306 13564.881282517148
610.0895236333909 13644.190207259899
611.0924332773357 13814.127803446885
612.0950887776617 13702.042234125789
613.0974902128219 13899.495259814421
614.0996376612384 13983.12300693409
615.1015312013005 14078.136283069272
616.1031709113595 14190.601494808545
617.1045568697336 14101.97798176786
618.1056891547069 14359.23239732476
619.1065678445229 14430.639080574885
620.1071930173985 14833.259743304578
621.1075647515099 14810.020943033076
622.1076831250048 15024.198949258454
623.1075482159849 15228.591358441929
624.1071601025305 15340.302660680605
625.1065188626781 15642.72622655756
626.105624574433 15973.389726831336
627.1044773157682 16102.411095685591
628.1030771646128 16152.16910789056
629.1014241988742 16427.3641109042
630.0995184964158 16587.067606165405
631.0973601350688 16818.798005328164
632.0949491926294 17071.542196985643
633.0922857468631 16841.949277828935
634.089369875499 16907.8644630892
635.0862016562278 17037.206278206948
636.0827811667077 16718.662208967547
637.0791084845641 16726.792409941554
638.0751836873878 16500.064306632506
639.0710068527369 16435.88406425092
640.0665780581294 16133.867343875903
641.0618973810506 16014.86345130667
642.0569648989604 15954.253243357223
643.0517806892676 15547.036749409857
644.0463448293649 15359.603400126385
645.040657396592 15139.936993897785
646.0347184682723 14853.19026187333
647.0285281216875 14603.189938622969
648.0220864340772 14395.879936103196
649.0153934826558 14265.943724272805
650.0084493446047 14124.906181921371
651.0012540970674 14086.43064278596
651.9938078171526 13819.852652647842
652.9861105819346 13726.573540121793
653.9781624684565 13792.270158921461
654.9699635537254 13441.508875787758
655.9615139147136 13518.070034516408
656.9528136283589 13302.869219698443
657.9438627715699 13466.551062915274
658.9346614212154 13317.128855353052
659.925209654135 13126.849667867678
660.9155075471263 13128.725026487567
661.9055551769616 13098.011193950424
662.895352620375 13208.479712297587
663.8848999540678 13077.768939771722
664.8741972547068 12852.311148606213
665.863244598926 12942.113801092912
666.8520420633213 12935.073952791396
667.8405897244611 12743.929310706782
668.8288876588758 12674.408167185804
669.8169359430613 12738.534620282295
670.8047346534822 12693.531795017483
671.7922838665672 12555.810302921967
672.7795836587156 12655.337634604173
673.766634106285 12802.945152507427
674.7534352856092 12585.740440801781
675.7399872729766 12594.311634709115
676.7262901446538 12599.433365955605
677.712343976862 12637.536644246193
678.6981488457986 12635.698510281885
679.6837048276229 12481.672119106588
680.6690119984596 12491.945136256827
681.6540704344043 12505.912474207442
682.6388802115107 12509.539044160747
683.6234414058108 12474.445208423833
684.6077540932874 12409.518014381303
685.591818349907 12401.822259787055
686.575634251587 12385.308941158273
687.5592018742263 12362.433958172976
688.5425212936734 12238.66601829993
689.5255925857564 12354.27879539436
690.5084158262707 12178.246064576238
691.4909910909646 12225.833591025978
692.4733184555644 12198.180830995776
693.4553979957618 12180.175164144643
694.4372297872123 12085.906779438908
695.4188139055404 12050.424840479778
696.4001504263324 11899.789325119036
697.3812394251509 12098.5589089488
698.3620809775111 12028.790951171342
699.3426751589104 11862.982139300631
700.3230220448004 11806.148963337442
701.3031217106054 11946.215995781786
702.2829742317172 11989.382152769289
703.2625796834873 11748.923723021293
704.2419381412474 11695.405857916867
705.22104968028 11856.383321575286
706.1999143758458 11760.174253123447
707.178532303169 11740.817493411445
708.1569035374378 11737.376404535044
709.1350281538107 11826.182289492184
710.1129062274158 11741.04261653917
711.0905378333373 11856.348691195166
712.0679230466376 11863.958281305524
713.0450619423427 11995.03061613542
714.0219545954424 12020.089432836767
714.9986010808989 11841.148297906726
715.9750014736292 11948.193589433393
716.9511558485392 12052.284268949219
717.9270642804786 12137.722922651632
718.9027268442787 12177.290110647215
719.8781436147328 12140.268509325248
720.8533146666014 12049.145485966654
721.828240074612 12055.222891969295
722.8029199134635 12008.701295081757
723.7773542578125 11997.218500059007
724.751543182294 11911.575649219292
725.7254867615029 12080.189746612816
726.6991850700015 11795.698080349559
727.6726381823228 11869.433866951586
728.6458461729599 11749.447860698587
729.6188091163858 11773.390141363281
730.5915270870246 11745.216043448041
731.5640001592856 11603.940485887773
732.536228407529 11666.454226095564
733.5082119060917 11678.075996030933
734.4799507292755 11579.42330005623
735.4514449513481 11588.75717594403
736.4226946465496 11712.073234962816
737.3936998890786 11729.492935560815
738.3644607531078 11536.380261951019
739.3349773127793 11654.5699467557
740.3052496421951 11596.429030309824
741.27527781543 11530.51794121987
742.2450619065221 11444.29986620785
743.2146019894826 11524.203259924396
744.183898138288 11493.79764554794
745.1529504268801 11439.275005328664
746.1217589291682 11317.077617325385
747.0903237190341 11378.858083387848
748.058644870318 11389.429960816846
749.0267224568397 11396.681686561058
749.994556552374 11257.850430659886
750.9621472306771 11319.507182868654
751.9294945654583 11288.602239549622
752.8965986304011 11306.216311362858
753.8634594991636 11220.018003323092
754.8300772453586 11426.826191436227
755.7964519425768 11224.324695782161
756.762583664371 11414.459275238518
757.7284724842611 11354.949077722582
758.6941184757416 11322.512984300982
759.6595217122667 11197.273084560267
760.6246822672638 11401.16113156072
761.5896002141235 11122.829419011578
762.5542756262093 11245.355343938083
763.5187085768503 11312.34813192509
764.4828991393406 11190.094723864344
765.4468473869474 11195.217067275624
766.4105533929032 11227.140565365251
767.3740172304078 11085.436624123908
768.3372389726283 11298.73046821132
769.3002186926988 11045.007155443076
770.2629564637282 11061.01884145443
771.2254523587872 11050.281680706792
772.1877064509154 10892.983924431943
773.1497188131179 10763.730065342721
774.1114895183728 10798.662682649612
775.0730186396268 10729.218041622433
776.0343062497905 10736.384374477679
776.9953524217381 10674.914088560534
777.9561572283274 10654.714637384099
778.9167207423689 10641.57380893909
779.8770430366476 10549.112169162943
780.8371241839159 10552.468241039764
781.7969642568951 10603.854685497554
782.7565633282757 10769.55362147151
783.7159214707099 10589.559934807718
784.6750387568281 10644.133530025403
785.6339152592227 10483.48035303889
786.5925510504512 10540.723298759438
787.5509462030477 10616.3636880569
788.5091007895098 10545.579869508596
789.4670148823006 10583.631627707104
790.4246885538596 10581.308856713473
791.3821218765861 10513.989409946784
792.3393149228505 10405.245328423804
793.2962677649975 10607.017005343649
794.2529804753303 10573.005703417675
795.20945312613 10636.803196351644
796.1656857896378 10542.413604808466
797.1216785380675 10580.40811734918
798.0774314435985 10701.022049029485
799.0329445783846 10797.325096372422
799.9882180145414 10802.34719303448
800.9432518241574 10815.000061812232
801.89804607929 10916.823719756485
802.852600851962 11028.294528968132
803.8069162141637 10981.355705684
804.760992237856 11061.168624135635
805.714828994971 11151.030622997572
806.6684265574077 11198.488757811148
807.6217849970271 11118.964770623132
808.574904385674 11032.466731958459
809.527784795142 11241.68342284863
810.4804262972102 11227.557448140968
811.4328289636178 11001.959048314353
812.3849928660748 10801.400264926408
813.3369180762638 10796.364377573173
814.2886046658241 10770.305812907214
815.2400527063783 10616.430307006356
816.1912622695108 10587.111523937503
817.1422334267718 10505.618059720782
818.0929662496856 10431.768830655039
819.0434608097457 10215.280692417458
819.9937171784059 10248.266003108267
820.9437354271013 10142.718563967135
821.8935156272255 10295.56345306845
822.8430578501484 10100.766770579154
823.7923621672016 9932.757918731611
824.7414286496896 10013.041055220474
825.6902573688876 10003.687471266237
826.6388483960363 10019.647643545055
827.5872018023492 9909.767741486983
828.5353176590033 9995.014616862232
829.4831960371503 9825.862902087398
830.4308370079016 9817.7281531223
831.3782406423525 9934.698571249446
832.3254070115545 9811.122528709708
833.2723361865319 9788.508149885285
834.2190282382799 9745.625188700344
835.1654832377644 9774.810984500557
836.1117012559116 9681.44855558663
837.0576823636256 9871.648380482487
838.003426631778 9626.946683416038
838.9489341312074 9711.632894484459
839.8942049327197 9762.541496510934
840.8392391070975 9791.411519728466
841.7840367250865 9648.441668259495
842.7285978573982 9656.06089082345
843.672922574724 9706.805817451544
844.6170109477152 9629.424834760352
845.560863046996 9641.267225607875
846.5044789431595 9668.38277127503
847.4478587067697 9560.25848966357
848.3910024083561 9811.133245698064
849.333910118421 9635.319777887504
850.2765819074339 9554.812536136136
851.2190178458332 9696.809003252525
852.161218004032 9741.21062404173
853.1031824524016 9618.80888799021
854.0449112612987 9636.59378169902
854.9864045010327 9678.223020533922
855.9276622418947 9608.715891206948
856.8686845541379 9655.406652445181
857.8094715079915 9621.559926295426
858.7500231736467 9768.970902497174
859.690339621271 9648.645551767433
860.6304209209939 9701.229972592857
861.5702671429244 9646.95163561033
862.5098783571284 9678.912653647583
863.4492546336569 9719.361493211309
864.3883960425155 9732.558905199587
865.3273026536863 9628.833107197202
866.2659745371238 9602.349471159401
867.2044117627465 9897.28570509411
868.1426144004472 9699.544031555932
869.0805825200823 9853.868194746003
870.0183161914847 9811.608770937773
870.9558154844526 9983.924725968809
871.8930804687552 9885.370562364551
872.8301112141307 9785.338383354387
873.7669077902865 9993.70977023066
874.7034702669062 10126.845742521886
875.6397987136315 10017.056843858396
876.5758932000863 10109.527525480613
877.5117537958522 10151.787311463844
878.4473805704911 10134.135340592798
879.3827735935283 10053.593742512407
880.3179329344603 10206.215120678706
881.2528586627541 10223.420096727512
882.1875508478479 10306.789177190347
883.1220095591489 10193.739956390966
884.0562348660296 10145.38555363899
884.9902268378391 10313.2791816515
885.9239855438955 10175.769101392882
886.8575110534839 10138.538700944906
887.7908034358588 10133.832721518938
888.7238627602474 10075.90597305597
889.6566890958475 10122.36944015611
890.5892825118208 9932.0034993877
891.5216430773125 9998.106563419009
892.4537708614189 9943.77063677795
893.3856659332196 9803.672424469169
894.3173283617652 9725.78849194551
895.2487582160684 9765.487565077969
896.179955565116 9660.657440610947
897.110920477864 9599.300708862535
898.0416530232451 9470.677453002125
898.9721532701478 9491.582768014534
899.9024212874428 9551.906553289853
900.8324571439662 9422.736815637443
901.7622609085302 9349.570126640243
902.6918326499072 9309.228188168301
903.6211724368477 9336.548544642
904.5502803380696 9496.853537003955
905.4791564222614 9431.0487631023
906.4078007580792 9279.914939680093
907.3362134141571 9269.26128211524
908.2643944590909 9359.43671249457
909.1923439614493 9248.257442322163
910.1200619897754 9233.080934483289
911.0475486125779 9412.773983704283
911.9748038983344 9286.958849350965
912.9018279155007 9222.227338474777
913.8286207324982 9123.042940044887
914.7551824177117 9318.011109191766
915.6815130395116 9197.246978178986
916.6076126662283 9070.71814992721
917.533481366163 9150.483394435196
918.4591192075914 9165.34538022748
919.3845262587565 9247.765034293765
920.3097025878706 9047.870118771083
921.2346482631237 9060.879081264786
922.1593633526682 9123.789388272364
923.0838479246304 9099.823410308447
924.0081020471061 9256.236609276415
924.9321257881656 8964.881878602186
925.8559192158464 9153.287950913884
926.7794823981512 8995.203396052562
927.7028154030686 8994.910643430992
928.6259182985414 8925.432128549799
929.5487911524906 9120.725383834646
930.4714340328119 9158.715910885945
931.3938470073608 8937.08674714992
932.3160301439748 8896.515669721117
933.2379835104548 8938.621653548329
934.1597071745709 9135.673340664576
935.0812012040769 8996.494844823625
936.002465666681 9060.129422209418
936.9235006300696 9085.375745358006
937.8443061619055 9000.659129138789
938.7648823298077 8885.370163913296
939.6852292013809 8880.303675272557
940.6053468441951 9023.70190181964
941.5252353257874 8797.142586395255
942.4448947136698 8929.456362337469
943.364325075323 8892.97811178646
944.2835264782043 8858.817491410022
945.2024989897309 8895.301263141931
946.1212426773054 8883.937258403022
947.0397576082851 8958.691745446826
947.9580438500125 9020.633404618671
948.8761014697939 9012.659588233075
949.7939305349064 8995.683290128381
950.7115311125999 8845.4643856398
951.6289032700952 8861.263528096668
952.5460470745875 9047.750251465259
953.4629625932339 8834.858125680421
954.3796498931715 8969.37387923383
955.2961090415029 8929.313197170875
956.2123401053068 8862.086972580346
957.1283431516276 8852.352539914154
958.0441182474842 8846.420725630265
958.9596654598663 8998.740375738023
959.8749848557309 8923.807986439471
960.7900765020167 8837.443769557021
961.7049404656209 8740.814174372794
962.6195768134185 8906.212926267472
963.5339856122537 8922.541040610708
964.4481669289453 8938.249474812616
965.3621208302793 8779.738259388996
966.2758473830145 8829.942115218217
967.1893466538822 9053.7741487029
968.1026187095813 8861.10401436334
969.0156636167867 8850.27167593916
969.9284814421426 8873.673825130125
970.8410722522622 8894.841276809555
971.753436113735 8873.643121634666
972.6655730931161 8808.496122378081
973.5774832569368 8964.220396659563
974.4891666716958 8852.690585158613
975.4006234038698 8762.074292496512
976.3118535198955 8748.01821083158
977.2228570861935 8982.194737511383
978.1336341691494 8950.889295984316
979.0441848351202 8765.353237582183
979.9545091504333 8928.603521348296
980.864607181391 8941.209581674564
981.7744789942699 8950.354925773972
982.6841246553086 8856.209126556645
983.5935442307236 8910.440547294436
984.5027377867027 8948.240388626355
985.4117053894024 8892.748378998574
986.3204471049557 8867.19881746211
987.2289629994648 9009.683785708967
988.1372531390007 9062.120311178203
989.0453175896091 9028.91663866991
989.9531564173067 9057.111748343126
990.860769688079 8989.647458798421
991.7681574678918 8915.593710837189
992.6753198226706 9044.911862153756
993.582256818323 8958.012887428467
994.4889685207218 9084.68386953247
995.3954549957143 9224.460864723344
996.301716309119 9091.996711195223
997.2077525267232 9125.700410380614
998.1135637142943 8992.735214224322
999.0191499375615 9200.196744372352
999.924511262232 9207.832806005437
1000.8296477539861 9137.175042584968
1001.7345594784656 9089.451469364347
1002.6392465012996 9118.586115322838
1003.5437088880753 9273.663599235817
1004.4479467043584 9190.802244825822
1005.3519600156869 9018.478666305906
1006.2557488875718 9173.08008803272
1007.1593133854858 9260.57413745142
1008.0626535748888 8977.530422180458
1008.9657695212009 8981.792322779733
1009.8686612898182 9222.995840955731
1010.7713289461135 9226.293917317818
1011.6737725554212 9098.480651054642
1012.5759921830577 9092.539765113042
1013.4779878943027 9086.706040660227
1014.379759754418 9181.114389760955
1015.2813078286254 9036.175292606324
1016.18263218213 8927.403421551024
1017.0837328801026 8935.468679056368
1017.9846099876886 9132.65357469796
1018.8852635700023 8973.165248241141
1019.7856936921362 8749.334267835144
1020.6859004191447 8978.870576125799
1021.5858838160675 8833.599343678823
1022.4856439479063 8801.433917657727
1023.3851808796389 8739.070431173652
1024.2844946762143 8957.117517563784
1025.183585402554 8904.319914573707
1026.082453123554 8601.104987855046
1026.9810979040776 8793.118324612431
1027.8795198089647 8619.152471757025
1028.777718903024 8795.407250954906
1029.6756952510368 8719.635125134837
1030.5734489177648 8688.392262162102
1031.4709799679313 8705.587936798478
1032.3682884662358 8827.922680277614
1033.2653744773506 8498.640522889247
1034.1622380659192 8550.516289606825
1035.058879296559 8632.704064583566
1035.9552982338591 8704.03795940489
1036.8514949423825 8675.256533152786
1037.7474694866614 8671.466416162719
1038.6432219312028 8588.02365636634
1039.5387523404825 8794.589200343045
1040.4340607789582 8582.117705215636
1041.3291473110476 8634.590589159317
1042.2240120011465 8794.243566732535
1043.1186549136273 8891.933768871564
1044.0130761128294 8696.008052099742
1044.9072756630649 8748.573025465901
1045.8012536286205 8871.498044989748
1046.6950100737577 8900.019447868524
1047.588545062701 8967.957801045464
1048.481858659663 8950.8998218063
1049.3749509288118 9104.019214246686
1050.2678219343034 8986.810522280617
1051.1604717402515 9031.308403217448
1052.0529004107575 8874.831577050656
1052.9451080098825 9019.508058755217
1053.8370946016694 9072.074842901258
1054.7288602501267 9118.780172200888
1055.6204050192446 8966.430129667764
1056.511728972977 9033.743026083765
1057.402832175254 8964.756549483793
1058.2937146899785 8837.793619922608
1059.1843765810263 8898.070162429829
1060.0748179122456 8999.72315551366
1060.9650387474576 8964.493774524439
1061.855039150456 8951.09449916342
1062.7448191850071 8969.255413655803
1063.6343789148505 8962.951885617354
1064.5237184037014 9143.712915006081
1065.412837715241 8885.268828851571
1066.3017369131267 8905.711121011598
1067.190416060992 8907.789634186682
1068.0788752224398 8907.397886560346
1068.9671144610438 8801.188146132245
1069.8551338403558 8996.39888277283
1070.7429334239023 9012.644138352309
1071.6305132751695 8775.938538573482
1072.517873457633 8903.871204930887
1073.4050140347335 8810.763991715261
1074.2919350698776 8881.907819332886
1075.1786366264623 8849.006182162397
1076.0651187678395 8831.141745429159
1076.95138155735 8666.123414626629
1077.8374250582929 8669.975234212692
1078.7232493339507 8719.200128254653
1079.608854447577 8642.565438984053
1080.4942404623907 8655.382613987862
1081.3794074415982 8667.412620297187
1082.2643554483657 8731.280470925549
1083.149084545841 8599.857282164168
1084.033594797138 8496.948038646991
1084.9178862653516 8440.12328306052
1085.8019590135427 8652.103879763203
1086.6858131047484 8332.35044013095
1087.5694486019802 8524.375862033916
1088.4528655682225 8396.393485886778
1089.3360640664287 8642.973874367915
1090.2190441595321 8431.280648193711
1091.1018059104317 8511.255505599522
1091.98434938201 8545.239206805561
1092.866674637111 8555.665232358388
1093.748781738559 8539.015406758162
1094.6306707491512 8288.843763730441
1095.5123417316554 8475.7534491935
1096.3937947488157 8462.08652121686
1097.2750298633455 8364.03200771797
1098.156047137938 8337.613302268177
1099.0368466352556 8399.23910246403
1099.9174284179317 8589.927100503644
1100.7977925485757 8310.386817352794
1101.6779390897755 8418.13218507476
1102.5578681040806 8404.063440259113
1103.4375796540226 8511.73640457268
1104.3170738021054 8369.963619064863
1105.1963506108077 8250.0867439447
1106.0754101425773 8258.88730922107
1106.9542524598382 8471.225517409997
1107.8328776249855 8310.761884021787
1108.7112857003904 8437.349222641811
1109.5894767483987 8432.5991310758
1110.4674508313292 8605.868624064471
1111.3452080114657 8445.412515020438
1112.2227483510815 8592.848435569656
1113.1000719124077 8636.880875790908
1113.9771787576592 8733.350028873985
1114.854068949022 8737.360294248632
1115.7307425486542 8727.799203725572
1116.6071996186893 8820.436549473052
1117.483440221229 8982.321110487961
1118.3594644183577 8837.928456384176
1119.235272272128 8897.352066356541
1120.1108638445658 8963.46067058796
1120.9862391976712 9347.055691627835
1121.8613983934229 9232.66447866226
1122.7363414937627 9229.137611459288
1123.6110685606182 9362.201641379634
1124.485579655884 9562.95683882973
1125.359874841426 9511.019468244178
1126.2339541790916 9441.216230237464
1127.1078177306936 9717.123701580746
1127.9814655580267 9665.712845843107
1128.854897722851 9712.622424873643
1129.7281142869106 9693.59342139581
1130.6011153119125 9762.523140486916
1131.473900859548 9926.310112432637
1132.3464709914697 9773.609967258652
1133.2188257693178 9718.595682781339
1134.0909652546961 9548.66087216862
1134.96288950919 9565.639574145152
1135.8345985943506 9651.930375516991
1136.7060925717087 9457.579894355576
1137.57737150277 9493.580138849527
1138.4484354490069 9554.913915079498
1139.3192844718778 9371.048429570397
1140.1899186327992 9096.634418959029
1141.060337993178 9289.992482161462
1141.930542614382 9139.486408443507
1142.8005325577597 9068.98328894535
1143.670307884635 8800.454820401317
1144.5398686563003 8869.970500236092
1145.409214934025 8970.407049724636
1146.2783467790541 8657.614353952546
1147.1472642526023 8737.831461318649
1148.0159674158622 8794.152400683775
1148.8844563300026 8567.545299228357
1149.7527310561618 8416.931220478786
1150.6207916554504 8409.792013340648
1151.4886381889592 8311.03107186708
1152.3562707177498 8459.044104788962
1153.2236893028585 8241.2031384161
1154.090894005296 8277.225397039369
1154.9578848860474 8259.470633866029
1155.8246620060709 8233.822303835648
1156.6912254262988 8170.228234320581
1157.5575752076438 8160.57034045939
1158.42371141098 8262.515860288118
1159.2896340971656 8283.487545648004
1160.1553433270346 8183.448166637478
1161.0208391613887 8208.58496807143
1161.8861216610057 8140.845344239911
1162.75119088664 8220.380348523959
1163.6160468990201 8113.398489346572
1164.4806897588442 8102.032912133638
1165.3451195267917 8116.225035788232
1166.2093362635114 8171.772018027672
1167.0733400296285 8179.835295943485
1167.9371308857444 8014.300146926759
1168.8007088924278 8064.769275871938
1169.6640741102328 8108.051413766273
1170.5272265996773 7896.987050085569
1171.390166421259 8009.67276029843
1172.252893635452 8112.011453706055
1173.1154083026995 8246.954005556097
1173.977710483421 8188.498683665118
1174.8398002380145 7971.359694843921
1175.7016776268483 8207.343732400237
1176.563342710264 8069.624043277559
1177.4247955485826 8043.314641258306
1178.2860362020947 8260.453531855661
1179.147064731069 7954.775248925003
1180.0078811957483 8155.1991241021215
1180.8684856563486 8098.375779586061
1181.7288781730604 8163.113344929157
1182.589058806052 8198.118435459732
1183.4490276154593 8410.318223770031
1184.3087846614017 8125.871726541797
1185.1683300039676 8231.399046619837
1186.027663703222 8404.524676249377
1186.8867858192025 8317.257162129401
1187.7456964119228 8347.050678003276
1188.6043955413716 8364.192754791455
1189.4628832675116 8508.105982241328
1190.3211596502842 8534.819011937823
1191.179224749596 8608.544086210954
1192.0370786253388 8384.714742340899
1192.8947213373758 8742.692964268783
1193.7521529455407 8825.129498669023
1194.6093735096438 8490.776738847582
1195.466383089477 8595.886040780013
1196.3231817447977 8719.178178601722
1197.1797695353398 8886.677228509037
1198.0361465208189 8595.581316722055
1198.8923127609214 8649.337396006911
1199.7482683153048 8747.249574041645
1200.6040132436028 8931.326485598063
1201.459547605431 8734.21171998114
1202.3148714603722 8762.036096580227
1203.1699848679855 8781.947267297572
1204.0248878878065 8944.901024446172
1204.8795805793507 8464.532856441829
1205.7340630020935 8710.558062208042
1206.5883352155033 8786.497367926577
1207.4423972790064 8731.4504744497
1208.2962492520237 8586.237641103953
1209.1498911939307 8565.783042966134
1210.0033231640937 8540.592322127706
1210.8565452218427 8500.650635239856
1211.7095574264913 8306.37966761124
1212.5623598373222 8343.397726456078
1213.4149525135963 8261.352491678646
1214.2673355145507 8382.776483842148
1215.1195088993936 8187.255057350516
1215.9714727273113 8179.176088945443
1216.8232270574663 8430.022338906952
1217.6747719489904 7993.026142549624
1218.5261074609934 8098.101800670786
1219.3772336525653 8195.550306713609
1220.2281505827668 8225.88951997941
1221.0788583106296 8280.895128569362
1221.9293568951707 7980.68835300176
1222.7796463953746 7938.9883350249675
1223.629726870202 8118.838918432249
1224.4795983785934 8089.326188008372
1225.3292609794553 8046.420442538933
1226.1787147316809 7852.966400988645
1227.0279596941327 7987.1410023108065
1227.8769959256424 7909.871480680797
1228.7258234850306 8051.372741780161
1229.5744424310833 7855.569964642494
1230.422852822563 8115.471669916338
1231.2710547182105 8210.28852720284
1232.119048176739 8026.590233977453
1232.9668332568417 7792.32175132706
1233.8144100171812 8121.3126252809625
1234.6617785163999 8028.298548976153
1235.508938813111 7721.731333269122
1236.3558909659114 7788.021167081109
1237.2026350333617 8051.015796464455
1238.049171074008 8104.638998291812
1238.8954991463652 7922.8449692275735
1239.741619308932 7961.820251947154
1240.587531620169 6840.953940200539
1241.4332361385277 8055.24990243138
1242.2787329224248 7881.446838466241
1243.1240220302534 7856.825245785885
1243.9691035203869 7801.342507719778
1244.813977451171 8134.713121558831
1245.6586438809263 8001.011606425911
1246.5031028679496 7705.370457897183
1247.3473544705157 8034.577227797941
1248.1913987468706 7942.033667879475
1249.0352357552383 7780.197904517137
1249.8788655538228 7914.733869624302
1250.7222882007918 8028.706998257272
1251.565503754302 7967.569878373889
1252.4085122724755 7724.794852195266
1253.2513138134182 8126.651411256595
1254.0939084352049 7986.028306480688
1254.9362961958905 7886.859044461822
1255.7784771535007 7772.7231820850775
1256.6204513660432 7991.813658712477
1257.4622188915 8124.633087363019
1258.3037797878242 7842.030233645023
1259.1451341129468 7774.750406300975
1259.9862819247755 7960.3408772672165
1260.8272232811978 7967.097879076979
1261.6679582400666 8075.130880118212
1262.5084868592203 7784.507383184717
1263.34880919647 7743.923573081718
1264.1889253095997 7891.650381309625
1265.0288352563712 7937.23869057447
1265.8685390945266 7803.628351849152
1266.7080368817751 7937.881080481546
1267.5473286758115 8054.592005680143
1268.386414534294 8030.677592637547
1269.2252945148703 7648.938296792696
1270.0639686751547 7752.725017738555
1270.9024370727402 7816.3012690918085
1271.7406997651997 7829.9810494202175
1272.5787568100714 7643.277248147604
1273.4166082648808 7764.689783601719
1274.2542541871244 7762.618513662887
1275.091694634275 8085.456167695435
1275.9289296637817 7646.432593950567
1276.7659593330663 7844.773676111785
1277.6027836995308 7823.07729938028
1278.4394028205552 7860.437848153468
1279.2758167534867 7808.921257647693
1280.112025555658 7731.418489187667
1280.9480292843746 7789.054927571708
1281.7838279969128 7665.5436956103495
1282.6194217505326 7699.315114766861
1283.4548106024686 7533.143098203285
1284.289994609926 7693.051227405794
1285.1249738300921 7927.4523064673385
1285.959748320127 7555.345075840541
1286.7943181371702 7740.980231539352
1287.6286833383328 7643.9826159462245
1288.4628439807038 7719.6152605508105
1289.2968001213521 7609.703697630733
1290.1305518173194 7682.422682328504
1290.9640991256183 7851.873452261207
1291.7974421032523 7763.074119508955
1292.630580807183 7600.2151293731
1293.463515294361 7680.142337055603
1294.29624562171 7849.8361255467
1295.12877184613 7630.211143910875
1295.961094024493 7516.788841472274
1296.79321221365 7765.312718336392
1297.6251264704333 7802.132121137981
1298.4568368516466 7971.66528229414
1299.2883434140658 7712.475196409391
1300.1196462144526 7621.441397588713
1300.9507453095375 7879.75514404111
1301.7816407560313 7808.700526843366
1302.6123326106172 7814.142702416046
1303.4428209299622 7649.866285368061
1304.2731057707024 7947.670683610229
1305.1031871894502 7743.247303922534
1305.933065242798 7948.714935978144
1306.7627399873181 7788.168935046679
1307.5922114795467 8150.835115778842
1308.4214797760123 8302.237052500328
1309.2505449332057 7803.36632845188
1310.0794070076026 7931.746354797693
1310.9080660556538 8133.886264134487
1311.736522133786 8142.250881836492
1312.5647752983987 7926.754156083109
1313.3928256058734 7752.02030960881
1314.2206731125661 8036.492120481899
1315.048317874809 8008.521282406518
1315.8757599489109 7935.172624729332
1316.7029993911547 7971.703880821394
1317.5300362578055 8199.16909671651
1318.356870605101 7838.024383779518
1319.183502489257 7808.618465787398
1320.0099319664623 8187.127361654729
1320.836159092889 8145.170995169001
1321.66218392468 8091.724854832343
1322.4880065179532 7890.332889911782
1323.3136269288134 8047.237193798513
1324.1390452133292 8153.7965225742055
1324.9642614275563 8205.217343786453
1325.7892756275214 8048.4940448915395
1326.6140878692295 7923.475095278726
1327.4386982086617 8341.736004496512
1328.2631067017755 8104.415663157075
1329.0873134045069 8097.762092866314
1329.911318372764 7989.928712195668
1330.735121662441 8001.258137538112
1331.558723329399 7924.168321374476
1332.3821234294774 8006.011838099034
1333.2053220185007 8079.568810529544
1334.0283191522612 7876.124954103167
1334.851114886529 8030.211189299933
1335.6737092770582 7805.050662353223
1336.4961023795695 7881.949556685858
1337.3182942497697 7869.1855099923805
1338.1402849433325 7921.976633335803
1338.962074515921 7741.790572368765
1339.7836630231632 7610.991441281037
1340.6050505206676 8143.913761546437
1341.426237064028 8040.27552717212
1342.2472227088037 7748.99462754414
1343.0680075105338 7615.971173545183
1343.888591524741 7828.321013176528
1344.7089748069138 7890.82670632532
1345.5291574125276 7749.775140592607
1346.3491393970307 7542.627883361271
1347.168920815846 7905.474038135481
1347.9885017243778 7905.7782282249045
1348.8078821780036 7693.934861140531
1349.6270622320844 7784.897828689626
1350.4460419419447 7636.463559210226
1351.2648213629054 7814.332452508619
1352.0834005502438 7465.451951139074
1352.90177955923 7500.581902315232
1353.7199584451064 7753.038602875687
1354.5379372630887 7789.253143295124
1355.355716068374 7551.2752245965985
1356.1732949161305 7498.402781156985
1356.9906738615155 7622.181805076949
1357.8078529596478 7610.155567912404
1358.6248322656375 7679.161062000315
1359.441611834567 7487.499285592094
1360.2581917214866 7758.229016673917
1361.0745719814367 7574.384150068499
1361.890752669433 7441.781826236251
1362.7067338404577 7527.078343094628
1363.5225155494845 7632.938781556879
1364.3380978514506 7750.910551130379
1365.1534808012839 7355.481915579117
1365.9686644538815 7221.089358274256
1366.783648864117 7660.909179148082
1367.5984340868417 7660.7743137297175
1368.413020176893 7623.798651020074
1369.2274071890715 7297.169560231503
1370.0415951781652 7578.555598700563
1370.8555841989346 7461.840115280642
1371.6693743061223 7323.391630304692
1372.48296555444 7181.3298851582
1373.2963579985844 7576.262036973114
1374.1095516932255 7584.209636527422
1374.9225466930166 7229.10331664883
1375.7353430525782 7544.694511348076
1376.5479408265164 7247.479340126503
1377.36034006941 7467.998835375887
1378.1725408358216 7551.510616241995
1378.9845431802805 7167.849102706286
1379.796347157304 7633.292212529601
1380.6079528213813 7524.899491071618
1381.4193602269788 7221.9294952598675
1382.230569428546 7243.895108931634
1383.0415804805016 7524.361065748587
1383.852393437246 7426.3024897562445
1384.6630083531563 7353.909229889073
1385.4734252825892 7195.955505743286
1386.2836442798798 7211.361954318154
1387.0936653993322 7219.66710047511
1387.9034886952395 7274.661045047449
1388.713114221864 7360.769294738762
1389.5225420334482 7312.174498055002
1390.331772184214 7207.885936902125
1391.1408047283585 6988.553935402381
1391.9496397200564 7122.739119572236
1392.758277213461 7290.938593026121
1393.5667172627054 7413.269222341242
1394.3749599218918 7209.360878447929
1395.1830052451114 6920.8790591669185
1395.9908532864265 7204.974159967445
1396.7985040998774 7312.945810939766
1397.6059577394808 7104.597210947446
1398.4132142592352 7120.679422868782
1399.2202737131156 7125.024728619812
1400.027136155073 7298.086976851779
1400.8338016390353 7155.958892921228
1401.6402702189134 7053.889505765037
1402.446541948586 7162.899052447817
1403.2526168819204 6994.359869166865
1404.058495072757 6972.923606084272
1404.8641765749107 7037.312286965162
1405.6696614421799 7102.626902494225
1406.4749497283356 7499.416614688987
1407.280041487129 6917.130300671999
1408.084936772295 6724.4456573630305
1408.8896356375335 7226.951932202617
1409.6941381365323 7127.977880439168
1410.498444322955 6802.697058966551
1411.3025542504402 6974.546515850385
1412.106467972606 7031.135193813658
1412.9101855430508 7022.666762738624
1413.7137070153458 6749.920185683339
1414.5170324430437 6897.551907882364
1415.320161879672 6966.6199062836695
1416.1230953787435 7060.426417072403
1416.925832993742 6697.8090993938695
1417.7283747781275 6625.849913259311
1418.5307207853439 6762.511809057581
1419.3328710688093 6834.050405962397
1420.134825681922 6469.506101733232
1420.9365846780584 6611.110302831106
1421.7381481105713 6829.884733837176
1422.539516032788 6794.637801247675
1423.3406884980232 6490.04900502466
1424.1416655595604 6483.300880891419
1424.942447270665 6541.243808974947
1425.7430336845828 6607.639689954643
1426.5434248545298 6381.477947103774
1427.3436208337116 6587.310477438713
1428.143621675301 6613.290298150432
1428.9434274324558 6763.044887550926
1429.7430381583108 6399.496544472941
1430.5424539059713 6429.264902563718
1431.3416747285337 6873.86208761595
1432.1407006790632 6651.207329784828
1432.9395318106053 6495.082704468141
1433.7381681761835 6328.974113447029
1434.5366098288014 6561.878353165031
1435.3348568214424 6560.055848752054
1436.1329092070573 6396.8685741401805
1436.9307670385879 6474.335359915689
1437.7284303689503 6546.804533278788
1438.5258992510335 6614.379761462648
1439.3231737377118 6513.146055409723
1440.1202538818306 6446.609060292469
1440.9171397362225 6424.004170233448
1441.7138313536925 6455.66053545859
1442.5103287870243 6230.398268010051
1443.3066320889775 6226.6622827162855
1444.1027413122956 6642.804325149472
1444.8986565096966 6468.175941032484
1445.694377733882 6445.212082977825
1446.4899050375207 6213.225080840069
1447.2852384732687 6253.556407938334
1448.0803780937622 6407.916986634665
1448.8753239516063 6166.806697994732
1449.6700760993954 6079.781059565445
1450.464634589689 6272.784877116665
1451.2589994750397 6532.7712262742125
1452.0531708079689 6187.654461434943
1452.8471486409799 6177.1655102910045
1453.6409330265524 6478.37410598366
1454.4345240171442 6211.3941508965945
1455.2279216651987 6111.111588575367
1456.0211260231263 6250.264322523963
1456.8141371433194 6546.606984510569
1457.6069550781594 6431.468193759354
1458.3995798799897 6035.581221651033
1459.1920116011424 6134.74611412531
1459.98425029393 6069.117751597221
1460.7762960106338 6084.685592107679
1461.5681488035225 6200.213838831014
1462.3598087248392 6239.512025104462
1463.1512758268036 6409.794561046028
1463.942550161617 6043.432554638153
1464.7336317814625 6039.303251790739
1465.524520738496 6322.887330545327
1466.3152170848552 6015.856244267954
1467.1057208726506 6156.611585677112
1467.8960321539817 6145.995034001235
1468.6861509809169 6042.11152019313
1469.4760774055085 6121.064899627852
1470.265811479785 6099.606212751792
1471.055353255755 5985.8340596600665
1471.844702785409 5974.397718194426
1472.6338601207044 5989.341228815319
1473.4228253135934 6200.477230409449
1474.2115984159936 5901.369112911566
1475.0001794798063 5893.134535535295
1475.7885685569145 6096.9233291615465
1476.576765699172 6025.97163502078
1477.3647709584238 6053.351202856584
1478.1525843864802 6143.723622120656
1478.9402060351367 6097.202749788745
1479.7276359561693 6090.385385068632
1480.514874201328 5965.760661498548
1481.3019208223468 5877.318305345642
1482.0887758709323 5831.764588870135
1482.8754393987747 6253.678707232172
1483.6619114575406 5832.709232693689
1484.4481920988783 6041.633353207763
1485.2342813744108 6078.084195478403
1486.0201793357446 6332.168190491004
1486.8058860344572 5893.822566723464
1487.591401522117 6052.371265017988
1488.3767258502594 5981.560064710287
1489.1618590704056 6046.133670670808
1489.9468012340494 5703.733029845715
1490.7315523926754 6017.384399749529
1491.5161125977356 6220.0876217819
1492.3004819006637 6166.869230658655
1493.084660352877 5978.192543745083
1493.8686480057622 6182.680133964148
1494.6524449106964 6239.387961279936
1495.4360511190262 6339.685307343299
1496.219466682087 6106.844547346418
1497.0026916511779 6090.640586323314
1497.7857260775945 6104.310327746059
1498.5685700125996 6261.563827715383
1499.3512235074395 5920.977118101838
1500.133686613337 5892.695687002458
1500.9159593814966 5915.435727843028
1501.698041863101 6446.325112416145
1502.4799341093094 5887.81094495402
1503.2616361712662 5827.863526278171
1504.043148100087 6024.842258379596
1504.8244699468742 6143.098452331193
1505.6056017626997 5830.250000327478
1506.3865435986281 5872.720275077533
1507.1672955056893 6036.797336093134
1507.9478575348967 5919.317405098064
1508.7282297372512 6130.472850395506
1509.5084121637192 5885.555838628169
1510.2884048652577 5900.293458714649
1511.0682078927948 5868.413691354307
1511.8478212972423 5821.287147908001
1512.6272451294917 5912.453682602331
1513.4064794404076 5984.873738247845
1514.1855242808433 5973.601322038147
1514.9643797016215 5867.758850634298
1515.743045753552 5954.559598147566
1516.5215224874191 5984.9633130871325
1517.2998099539836 5758.783288689313
1518.077908203999 5918.330526682064
1518.8558172881785 5826.207807860822
1519.633537257234 6067.959207353677
1520.4110681618404 5863.061902732241
1521.1884100526604 5935.992333125772
1521.9655629803365 5749.987422277271
1522.7425269954856 6031.654569454326
1523.5193021487103 6233.493293554675
1524.2958884905856 5778.142379078204
1525.0722860716687 5774.464204954403
1525.848494942502 5777.43374074027
1526.624515153595 5878.541664513532
1527.4003467554485 5925.663129558336
1528.175989798534 6073.032424660047
1528.9514443333064 5887.68682310754
1529.726710410203 6132.3829940943815
1530.5017880796331 5736.611999469729
1531.276677391992 5903.069744491812
1532.0513783976457 6051.121079408187
1532.825891146953 5810.327362096451
1533.6002156902414 6032.956155882881
1534.3743520778207 5962.247959362204
1535.1483003599806 5900.142003571419
1535.9220605869923 6039.191315822202
1536.6956328091019 6082.718833769087
1537.4690170765407 5820.616011845432
1538.242213439511 6015.42034027492
1539.015221948208 5928.472733260984
1539.78804265279 5898.04453302859
1540.560675603405 5727.709752237636
1541.3331208501804 6149.707039197533
1542.1053784432224 6103.265464543527
1542.8774484326168 5911.903450932625
1543.649330868422 5995.571278913683
1544.4210258006842 5985.082821553068
1545.1925332794308 5975.355070556534
1545.9638533546604 5915.358569487649
1546.7349860763552 5794.439258961174
1547.5059314944829 6146.144808124264
1548.27668965898 6018.492961103643
1549.0472606197673 5961.60875934009
1549.817644426752 5939.158963721928
1550.5878411298072 6138.934755412067
1551.3578507787988 5947.283810159038
1552.1276734235635 5859.666480105339
1552.8973091139233 5930.5844679247
1553.6667578996767 6005.428548094174
1554.436019830604 5964.28666875341
1555.20509495646 5897.0445897804575
1555.9739833269869 5828.787978758695
1556.7426849919011 5784.092651826217
1557.511200000903 6151.650034370823
1558.2795284036674 6031.532044183301
1559.0476702498509 5819.738793283157
1559.8156255890954 6051.016657179136
1560.5833944710157 6247.885579125477
1561.3509769452048 5826.18581419663
1562.1183730612447 5851.209337692009
1562.8855828686865 5976.046205205924
1563.6526064170703 6206.656818367942
1564.4194437559127 6017.370352489143
1565.1860949347047 5829.152074216343
1565.9525600029283 6237.22986034888
1566.7188390100328 6223.296278709593
1567.4849320054564 5772.450577475705
1568.250839038612 5770.827254493864
1569.0165601588997 5837.453174847471
1569.7820954156887 6012.931444279749
1570.5474448583373 5734.864499194271
1571.31260853618 5752.509970876813
1572.0775864985299 5613.168012397951
1572.8423787946813 5912.081888987337
1573.6069854739108 5733.717556279628
1574.371406585471 5922.380279366924
1575.1356421785986 5968.687020249391
1575.899692302506 5836.779041148406
1576.6635570063845 5829.40093305474
1577.4272363394157 5680.038180345122
1578.190730350747 5620.771771843741
1578.9540390895163 5760.136820397218
1579.7171626048384 5479.624805186361
1580.480100945806 5597.686279486667
1581.2428541614918 5527.678202249112
1582.0054223009538 5588.5556469417315
1582.767805413223 5626.620080572149
1583.5300035473156 5669.342649044307
1584.292016752228 5980.382834917962
1585.0538450769309 5719.018476153336
1585.8154885703807 5477.526281056715
1586.5769472815136 5407.368997860366
1587.3382212592405 5554.826697028927
1588.099310552463 5928.849062068353
1588.8602152100484 5481.819828189551
1589.6209352808564 5740.839044865922
1590.3814708137234 5589.55125983622
1591.14182185746 5592.574104139785
1591.9019884608679 5560.690274927627
1592.6619706727215 5276.546909888913
1593.4217685417734 5636.317798017934
1594.1813821167616 5844.851176632846
1594.9408114464022 5315.452075674664
1595.7000565793933 5525.288975719374
1596.459117564409 5588.1163184964635
1597.2179944501113 5410.527568554445
1597.9766872851324 5464.333446758696
1598.735196118092 5612.413299920926
1599.4935209975883 5661.676960388036
1600.2516619721973 5542.329194324311
1601.0096190904787 5373.281145726651
1601.7673924009723 5462.32967026009
1602.524981952196 5337.531209494279
1603.2823877926476 5328.067181044897
1604.0396099708087 5247.086829848875
1604.7966485351371 5230.300177846612
1605.5535035340745 5281.882662701124
1606.3101750160404 5664.810209949593
1607.0666630294363 5325.284742597845
1607.822967622642 5166.846449786046
1608.5790888440224 5269.987370952314
1609.3350267419137 5449.217094033442
1610.0907813646445 5289.213549991544
1610.8463527605145 5280.631128436404
1611.601740977805 5345.416009259707
1612.356946064785 5304.285404911838
1613.1119680696902 5041.41642262543
1613.8668070407512 5191.13240239348
1614.6214630261748 5101.769239096783
1615.375936074137 5350.2683582666905
1616.1302262328118 5170.310506440866
1616.8843335503425 5143.717471152725
1617.638258074854 4977.34787515848
1618.391999854457 5241.695923011941
1619.1455589372363 5354.498313451271
1619.8989353712623 5142.5773891788995
1620.65212920458 4953.850946671186
1621.4051404852235 5119.19148460551
1622.1579692611976 5173.136954297084
1622.9106155804966 4955.208265030413
1623.663079491087 4989.455106175634
1624.4153610409248 5211.589971148557
1625.1674602779385 5059.74840947132
1625.9193772500403 4899.925456832922
1626.6711120051277 5193.301788590347
1627.4226645910676 5080.277560169154
1628.174035055721 4946.135379253597
1628.9252234469168 5163.860749123313
1629.676229812474 4994.92987025168
1630.4270542001905 5489.491904525085
1631.1776966578382 5067.461308197474
1631.9281572331747 5018.248018592514
1632.678435973945 5088.963014849525
1633.4285329278573 5038.907757544815
1634.1784481426203 4792.818406362505
1634.9281816659113 4913.623289985393
1635.677733545388 5222.089621486793
1636.4271038286934 4943.46094626836
1637.176292563452 5149.391670174131
1637.9252997972635 5072.930629845677
1638.674125577716 5181.353379318668
1639.4227699523672 5475.214680918014
1640.171232968767 4836.403264790864
1640.9195146744423 5071.191424288206
1641.6676151168977 5294.015252652725
1642.4155343436178 5370.556115238505
1643.1632724020765 5122.686742787518
1643.9108293397167 5149.97203762584
1644.658205203974 5005.147138098612
1645.4054000422566 5691.017523131215
1646.1524139019566 5098.389528555397
1646.8992468304423 5039.004216341694
1647.6458988750728 5075.431547539275
1648.3923700831765 5226.618431099456
1649.1386605020743 5115.027519548342
1649.8847701790564 5253.25448965643
1650.6306991614038 5266.255175339332
1651.3764474963682 5354.507215237643
1652.1220152311944 4855.228951775082
1652.867402413096 5332.9695964904595
1653.6126090892776 5196.274499472487
1654.3576353069184 5462.324559997351
1655.1024811131829 5204.103857712913
1655.8471465552066 5146.690288468449
1656.5916316801213 5342.3099896601125
1657.3359365350298 5288.998153721694
1658.0800611670165 5191.957892537466
1658.824005623148 5177.546700267247
1659.5677699504722 4991.138023767469
1660.3113541960192 5250.9540598899075
1661.054758406799 4953.406958391538
1661.7979826297997 4947.364786476837
1662.5410269119966 4912.973332625736
1663.283891300338 5201.711911524197
1664.0265758417645 4873.5072644179145
1664.7690805831826 4974.426000770279
1665.5114055714948 5095.067015798827
1666.2535508535748 5288.509481363486
1666.9955164762814 4623.919475043991
1667.7373024864555 4914.365878434282
1668.478908930916 4878.435018726691
1669.220335856462 4816.53212953426
1669.9615833098778 4713.087882619295
1670.7026513379296 4702.551655013868
1671.44353998736 4750.383836762789
1672.1842493048916 4713.739160076354
1672.9247793372379 4730.091735199259
1673.6651301310812 4791.829396151357
1674.4053017330934 4639.247876486153
1675.1452941899242 4746.069969955198
1675.885107548207 4267.462284492039
1676.6247418545518 4410.787131142233
1677.3641971555535 4479.000769163648
1678.1034734977893 4620.230288736553
1678.8425709278108 4555.294008246048
1679.5814894921605 4765.134803755386
1680.320229237359 4431.333486567522
1681.0587902098978 4717.8515398593945
1681.7971724562685 4471.025880309478
1682.5353760229264 4405.354559168944
1683.2734009563173 4561.634170812163
1684.0112473028657 4238.379029912887
1684.7489151089794 4511.061870266488
1685.4864044210462 4579.797900268739
1686.2237152854377 4049.591692894222
1686.960847748498 4493.974974306612
1687.6978018565642 4129.142991364535
1688.434577655944 4103.023890063402
1689.1711751929379 4106.01730697796
1689.9075945138156 4238.306414715516
1690.6438356648396 4166.637079282487
1691.3798986922448 3814.726383762378
1692.1157836422499 3999.947400622766
1692.851490561059 3994.34065323129
1693.587019494853 4086.821225950099
1694.3223704897991 3740.724868206579
1695.0575435920364 3730.42917584077
1695.792538847696 4270.524540706548
1696.527356302886 3910.2266183608167
1697.2619960036936 3609.472277308278
1697.9964579961907 3694.596711584904
1698.730742326432 3447.714925695167
1699.4648490404488 3538.1242637428186
1700.1987781842563 3611.12650268745
1700.9325298038548 3828.6662996742584
1701.6661039452174 4055.335109345283
1702.3995006543082 3752.6319626459253
1703.1327199770658 3923.284784864747
1703.865761959416 3603.528258402909
1704.598626647261 3928.3831393895684
1705.3313140864866 3434.112946195825
1706.0638243229587 3565.9729310302055
1706.7961574025303 3773.324708057523
1707.528313371029 3672.5666433053884
1708.260292274268 3511.674425677159
1708.9920941580403 3674.0094106675656
1709.7237190681226 3679.523407669337
1710.4551670502697 3592.285877485432
1711.18643815022 3254.4880307137055
1711.9175324136959 3378.9269063823385
1712.6484498863938 3503.5830631857484
1713.379190614005 3249.1562040051967
1714.109754642188 3465.241207904787
1714.8401420165883 3484.314984142236
1715.570352782839 3777.2748785551657
1716.3003869865497 3567.0808496443847
1717.0302446733076 3287.2956081298194
1717.7599258886876 3501.260866801337
1718.4894306782444 3802.0957812280913
1719.2187590875183 3267.645150847678
1719.9479111620203 3683.043302814506
1720.6768869472544 3417.5909774472975
1721.4056864887025 3706.5502858728505
1722.1343098318284 3728.4931739640924
1722.8627570220742 3475.214357235346
1723.591028104871 3349.8323539713247
1724.3191231256242 3221.879301573874
1725.0470421297232 3408.590347104334
1725.7747851625427 3575.767875172684
1726.5023522694337 3558.4114224924974
1727.2297434957363 3493.320185484884
1727.9569588867635 3191.327374962741
1728.6839984878152 3588.054273378029
1729.4108623441734 3062.6148380298887
1730.1375505011038 3491.1351933357882
1730.8640630038426 3319.297420067766
1731.5903998976264 3258.8136353192076
1732.316561227657 3493.8768629695633
1733.0425470391274 3168.1856772812075
1733.7683573772065 3358.649945007436
1734.4939922870508 3376.3794400708234
1735.2194518137949 3345.371384011847
1735.9447360025606 3355.2284623324863
1736.669844898439 3359.522173983518
1737.3947785465189 3205.6175960925466
1738.1195369918605 3025.1765359982755
1738.8441202795093 3217.1691761357974
1739.5685284544943 3409.969827482941
1740.292761561821 3344.8907902178717
1741.0168196464838 3381.427003556055
1741.7407027534518 3290.728117394536
1742.464410927687 3406.9700091110835
1743.187944214118 3245.700421165881
1743.9113026576688 3206.4703357856542
1744.634486303241 3161.2452446005777
1745.3574951957125 3345.3349563132024
1746.0803293799509 3272.883129550028
1746.8029889008048 3316.0373111052745
1747.5254738031017 3324.6970662872336
1748.2477841316504 3100.300247417325
1748.969919931249 3273.418562585078
1749.6918812466665 3116.584979051927
1750.4136681226646 3417.823967875367
1751.1352806039777 3283.3529210545553
1751.856718735331 3000.5067467379695
1752.5779825614281 3017.7611499067234
1753.2990721269507 3301.879453357651
1754.0199874765676 3248.8102517760067
1754.7407286549314 2908.7560774724143
1755.4612957066693 3055.426183312391
1756.1816886763954 3102.940360436978
1756.9019076087097 3327.622778668226
1757.6219525481865 3266.761186625893
1758.3418235393856 3322.0573721835462
1759.061520626854 3187.5935858272774
1759.7810438551096 3395.1810838181977
1760.5003932686614 2987.5221918704274
1761.2195689119999 3345.7041468179123
1761.938570829594 3185.7092319713242
1762.657399065898 3229.065171794838
1763.376053665348 2971.0467509299947
1764.0945346723602 3013.2102028521854
1764.812842131334 3365.6218324416695
1765.5309760866512 2988.9538309232175
1766.2489365826787 3057.062260020466
1766.9667236637597 3147.5316816342056
1767.684337374223 2875.887577055689
1768.401777758383 2874.9199966973833
1769.1190448605284 3003.829345007288
1769.836138724937 2944.582215002369
1770.5530593958665 3103.3576343302516
1771.2698069175603 3403.024709403059
1771.9863813342326 3181.890452505805
1772.702782690094 3045.256419638413
1773.4190110293293 3181.3346350226525
1774.1350663961111 3260.7967349246805
1774.8509488345844 2941.9628506736326
1775.5666583888924 3095.9029761729826
1776.2821951031437 3230.7314043671727
1776.9975590214362 3050.6324312763554
1777.7127501878585 3227.192852694613
1778.4277686464684 3179.1122949664123
1779.1426144413108 3384.381866249637
1779.8572876164162 3353.5942341002024
1780.571788215797 2926.376224977851
1781.2861162834415 3097.9622244088655
1782.0002718633277 3024.6297562748696
1782.7142549994132 3151.6278350281686
1783.4280657356376 3044.227859437421
1784.141704115922 2989.681872542286
1784.855170184177 2996.187506504629
1785.5684639842839 3034.8237350114227
1786.2815855601148 2813.851966051816
1786.9945349555237 3192.094611670783
1787.707312214343 2835.782501444419
1788.4199173803918 3334.8638138029987
1789.132350497468 2822.0149931940755
1789.8446116093583 2998.57687776267
1790.556700759822 2824.5954310557404
1791.2686179926077 2954.670313079914
1791.9803633514493 2998.7400221190787
1792.6919368800554 2735.420804602108
1793.4033386221236 3098.471940161181
1794.1145686213295 3098.538362561049
1794.8256269213307 3222.9104855072023
1795.536513565774 3124.7331313949257
1796.247228598284 2704.1254469692367
1796.9577720624693 2849.741872567017
1797.6681440019165 3071.2040859852123
1798.3783444602013 2849.7502987157823
1799.0883734808776 3051.6822054774466
1799.7982311074884 3022.296716691055
1800.5079173835475 3044.6264937304804
1801.2174323525633 3008.2083827800807
1801.9267760580187 3033.502822151965
1802.635948543386 3023.152134862662
1803.3449498521113 2793.5469941281085
1804.0537800276325 2988.9019882607727
1804.7624391133668 2999.852963232036
1805.47092715271 2754.02098143945
1806.1792441890484 2794.779862109416
1806.8873902657433 3051.358814014873
1807.5953654261448 2996.226619478367
1808.3031697135812 2804.813878135022
1809.0108031713662 2788.5344178473565
1809.71826584279 2971.8347832765076
1810.425557771141 2898.867621350398
1811.1326789996747 3327.9439694190974
1811.839629571632 2749.696862922402
1812.5464095302468 2861.967374495486
1813.2530189187182 2889.1273740003426
1813.959457780249 2804.3933403694473
1814.6657261580076 3016.791862520723
1815.371824095153 2866.03388854681
1816.0777516348262 2999.33113660422
1816.78350882015 2509.978859075787
1817.4890956942272 2646.7593372962738
1818.1945123001533 2862.4380773960447
1818.8997586809928 2898.3682412326666
1819.6048348798067 2745.8286975923593
1820.3097409396287 2863.0070374532943
1821.0144769034796 3225.1178862409465
1821.7190428143622 2942.961971551233
1822.423438715261 2979.3885141743713
1823.1276646491478 2788.941171268069
1823.8317206589727 2801.513483224262
1824.5356067876692 2900.5267573878978
1825.2393230781581 2822.1937133586325
1825.942869573335 2564.7442078898284
1826.646246316086 2740.1724191940534
1827.3494533492758 2804.69476572934
1828.052490715756 2962.6627279810123
1828.7553584583547 2920.5370142908537
1829.458056619891 2861.6399593947435
1830.1605852431585 2725.3582603791046
1830.8629443709433 2585.729165781903
1831.5651340460063 2722.4756862708664
1832.2671543110919 2652.970365764145
1832.9690052089318 2948.7563572564177
1833.6706867822395 2566.579456424845
1834.3721990737104 2935.7809208654353
1835.0735421260233 2879.932642677607
1835.774715981841 2801.6339977436646
1836.4757206838058 2996.564718693152
1837.1765562745459 2682.073193706303
1837.8772227966747 2697.11969053463
1838.5777202927839 2720.6654759070184
1839.2780488054523 2668.1318403103733
1839.9782083772352 2679.0690647989404
1840.6781990506806 3148.3310965886253
1841.378020868313 2679.4450627470565
1842.0776738726418 2825.789292759638
1842.777158106157 2569.287030123468
1843.4764736113375 2610.055866861686
1844.1756204306403 2928.413617785065
1844.8745986065078 2703.7635936649335
1845.5734081813607 2494.3110810344147
1846.2720491976124 2654.572442152578
1846.970521697649 2693.6950534561647
1847.6688257238511 2754.754807789429
1848.3669613185684 2736.8425911726968
1849.0649285241452 2460.857852063104
1849.7627273829057 2793.46312127699
1850.460357937156 2706.2077789547284
1851.1578202291857 2384.356734732592
1851.8551143012664 2728.8495697242734
1852.5522401956569 2692.357709654966
1853.2491979545957 3029.2582121285254
1853.9459876203055 2540.9062631683983
1854.6426092349902 2517.0555562531767
1855.3390628408451 2616.807591013941
1856.0353484800362 2893.8006085581897
1856.7314661947203 2866.602048565265
1857.4274160270397 2345.211422966563
1858.123198019115 2685.183414393719
1858.8188122130487 2466.6280303919334
1859.5142586509319 2652.181720072764
1860.209537374838 2600.5080648435096
1860.9046484268183 2703.9976567782483
1861.599591848917 2921.3324304002954
1862.294367683151 2569.9273281076667
1862.988975971528 2436.1727251663933
1863.6834167560355 2659.767617035347
1864.3776900786452 2830.551560488739
1865.0717959813119 2534.5917945118154
1865.7657345059724 2514.6222294398895
1866.4595056945564 2725.901737031937
1867.1531095889586 2737.635363256169
1867.846546231076 2462.842072828103
1868.5398156627743 2891.7606727850707
1869.2329179259123 2442.542711221001
1869.9258530623283 2822.2707544745253
1870.618621113843 2515.1005015349197
1871.3112221222636 2450.442929577428
1872.0036561293764 2408.4410107607955
1872.695923176956 2715.264951183692
1873.3880233067594 2825.490385897757
1874.0799565605212 2413.8879324287473
1874.7717229799673 2539.0787533803514
1875.4633226068036 2804.695163939035
1876.1547554827175 2806.9634561251796
1876.8460216493859 2565.519337794261
1877.5371211484617 2683.3884760729716
1878.2280540215852 2758.086480180597
1878.9188203103804 2438.939658076884
1879.6094200564548 2594.112425611818
1880.299853301396 2445.3888417298267
1880.9901200867826 2732.0536311327605
1881.6802204541673 2694.137831482417
1882.3701544450942 2660.565493533909
1883.059922101087 2446.392947123367
1883.7495234636517 2877.00682542728
1884.4389585742792 2504.9877532796313
1885.1282274744517 2359.646760842209
1885.8173302056166 2553.3650334843906
1886.506266809225 2747.3457835333907
1887.195037326701 2474.219832448131
1887.8836417994517 2564.399519219248
1888.5720802688702 2954.2922563169836
1889.260352776333 2702.3803760600936
1889.9484593632042 2717.8936236415984
1890.63640007082 2549.7755225968604
1891.3241749405151 2355.42374564056
1892.0117840135954 2726.300461226948
1892.6992273313572 2556.083984784298
1893.3865049350788 2462.8918961434397
1894.0736168660223 2873.4178628145996
1894.7605631654333 2734.2512943722663
1895.4473438745408 2774.086837489029
1896.133959034556 2813.8327797330953
1896.820408686679 2574.659697751999
1897.506692872088 2876.8570702644315
1898.192811631945 2516.2323194313562
1898.8787650073991 2610.813671686813
1899.5645530395832 2669.413577627107
1900.2501757696118 2628.6683145866164
1900.9356332385796 2343.4832554458794
1901.620925487574 2838.57323114689
1902.3060525576602 2571.645453709623
1902.9910144898859 2655.8899500447906
1903.6758113252872 2430.427931961676
1904.3604431048789 2672.4163750634048
1905.0449098696663 2600.6441930456926
1905.7292116606295 2467.6147592244133
1906.4133485187394 2782.654763135922
1907.0973204849488 2230.7776860128397
1907.7811276001976 2370.4373824383706
1908.4647699053967 2587.262881152774
1909.1482474414588 2513.2689153405263
1909.8315602492694 2439.0087833722528
1910.5147083696957 2759.978487327406
1911.1976918436012 2400.016851977143
1911.880510711815 2342.0962575676413
1912.5631650151681 2641.2946030705743
1913.2456547944657 2339.0831881066524
1913.927980090495 2482.756336300842
1914.6101409440362 2442.063052724635
1915.2921373958416 2666.38657194756
1915.9739694866603 2439.1451026497643
1916.655637257214 2830.3614640511632
1917.3371407482136 2513.177869217565
1918.0184800003572 2757.755991554845
1918.6996550543154 2579.000587117708
1919.3806659507554 2475.0179146596606
1920.0615127303208 2608.38498615473
1920.7421954336423 2725.9942248149396
1921.4227141013343 2662.4308534867027
1922.103068773993 2589.4574720592996
1922.783259492202 2790.855992086212
1923.4632862965227 2428.5355237635367
1924.1431492275078 2434.7104233854125
1924.8228483256917 2377.645625297627
1925.5023836315922 2436.2661742090568
1926.1817551857057 2059.1889307775823
1926.8609630285227 2638.143868220877
1927.5400072005123 2567.466609306453
1928.218887742125 2351.756992505862
1928.8976046938005 2211.6611836785796
1929.5761580959588 2619.9555177442267
1930.2545479890086 2437.9316337144655
1930.9327744133352 2153.182376220958
1931.6108374093164 2474.687538872718
1932.2887370173066 2754.566153373654
1932.9664732776473 2126.8425044516775
1933.6440462306673 2479.5209992117157
1934.3214559166754 2321.5416512496467
1934.9987023759659 2733.6959414736402
1935.675785648813 2574.5768888664948
1936.3527057754836 2671.5968863456833
1937.029462796223 2768.8489503305036
1937.70605675126 2271.0904291401926
1938.3824876808085 2308.7925016807176
1939.058755625072 2434.239987285514
1939.7348606242267 2245.39512149869
1940.4108027184448 2474.1958898414587
1941.0865819478713 2568.783879707676
1941.7621983526478 2272.2929411874557
1942.4376519728921 2263.3885863386035
1943.1129428487038 2356.0625378852797
1943.7880710201734 2551.5987143021125
1944.4630365273733 2484.1917538503835
1945.1378394103576 2203.9710058371356
1945.8124797091714 2193.1960278467977
1946.4869574638324 2182.3229559983733
1947.161272714353 2327.172450436994
1947.8354255007234 2522.4482766683627
1948.5094158629272 2386.519703866204
1949.1832438409183 2587.944937825766
1949.8569094746435 2594.1369087381418
1950.530412804037 2542.185419200916
1951.2037538690092 2655.0308461466584
1951.8769327094578 2427.27625453709
1952.5499493652678 2317.6068936644197
1953.222803876306 2645.2632782806463
1953.895496282421 2402.0459677183117
1954.5680266234522 2434.928391459474
1955.2403949392155 2472.623844178076
1955.9126012695142 2207.987781620176
1956.5846456541403 2412.3540673307225
1957.2565281328643 2327.9898925735283
1957.9282487454457 2596.317090193278
1958.5998075316202 2484.7653762811674
1959.27120453112 2317.3740950070696
1959.9424397836501 2416.1703391974943
1960.613513328908 2418.125988382724
1961.2844252065697 2673.138059704547
1961.9551754563017 2207.9372307447456
1962.6257641177453 2274.390759716817
1963.29619123054 2180.5904110739857
1963.966456834296 2205.57903379584
1964.6365609686181 2132.0877830019353
1965.306503673086 2501.6011678211703
1965.976284987275 2244.779787866568
1966.645904950734 2305.0667266805567
1967.315363603002 2128.6206771606803
1967.9846609836077 2267.6672103299306
1968.6537971320486 2215.218643947633
1969.3227720878222 2366.045000805944
1969.9915858904042 2319.3792916352677
1970.660238579252 2504.923141587702
1971.3287301938108 2407.070780262194
1971.997060773514 2219.368547127672
1972.665230357772 2252.3974373347364
1973.3332389859843 2252.05995681753
1974.0010866975335 2041.8140269299358
1974.6687735317864 2491.9474274482336
1975.3362995280932 2375.970503566417
1976.003664725793 2468.354015422715
1976.6708691642052 1935.2479874597364
1977.3379128826364 2289.8035952996997
1978.004795920373 2531.160640712438
1978.6715183166925 2244.6980427586973
1979.3380801108524 2504.1476357913725
1980.0044813420973 2277.2417996054937
1980.6707220496555 2301.1913055007376
1981.3368022727373 2325.3499429199746
1982.0027220505417 2374.2292305687192
1982.66848142225 1959.1488158010768
1983.3340804270283 2009.0981819874876
1983.999519104027 2188.540040139079
1984.6647974923835 2357.333064900139
1985.329915631215 2415.949077513696
1985.99487355963 2158.8944650573217
1986.6596713167146 2474.8967405809244
1987.3243089415428 2317.945274215127
1987.9887864731754 2543.753131317714
1988.6531039506553 2027.2827320340173
1989.3172614130071 2627.8674586341504
1989.9812588992481 2045.944172159971
1990.645096448372 1795.8632643634912
1991.3087740993633 2250.1080889744035
1991.9722918911848 2297.7878342201266
1992.635649862792 2238.051814358748
1993.2988480531185 2304.1590182767322
1993.9618865010852 2673.3639550403736
1994.6247652455968 2267.107650926285
1995.287484325545 2027.15197789244
1995.9500437798033 2186.496283948236
1996.6124436472292 2133.9429425448443
1997.2746839666706 2326.630897409955
1997.936764776954 2136.030375296191
1998.598686116895 2000.2738420114642
1999.2604480252903 2192.927732420155
1999.9220505409212 2385.9438998049236
2000.5834937025593 2054.397042317446
2001.2447775489582 2232.484342780551
2001.9059021188514 2254.1608269520966
2002.5668674509616 2122.055266782078
2003.2276735839987 2184.570616134439
2003.8883205566508 2156.1774463288175
2004.5488084075987 2127.6743136682053
2005.2091371755014 2225.292771708705
2005.8693068990033 1914.430378272899
2006.5293176167397 1983.8024250267863
2007.1891693673224 2053.4717555440975
2007.848862189354 2022.300552744824
2008.5083961214223 2162.613830549134
2009.1677712020955 2139.1038459720835
2009.8269874699254 1990.750007116762
2010.4860449634598 2015.7090852832384
2011.1449437212177 2040.8524149479642
2011.8036837817108 2426.2701306829013
2012.4622651834325 2427.6929969751723
2013.1206879648653 2421.8809765159617
2013.7789521644736 2569.4037099656093
2014.4370578207036 2429.2694746926513
2015.0950049719922 2288.6765296014846
2015.7527936567585 2549.4485659237525
2016.4104239134067 2034.5556945773776
2017.067895780323 1925.870750248449
2017.725209295886 1816.8206974737582
2018.3823644984514 2508.7943513458576
2019.0393614263648 2293.4082882850944
2019.6962001179545 2262.473250348219
2020.3528806115355 2398.6587827447106
2021.0094029454067 2272.8719865409066
2021.6657671578487 2143.5762958782966
2022.321973287133 2058.9099681411703
2022.9780213715148 2044.7800728932277
2023.6339114492293 2137.9880340292902
2024.2896435585026 2256.322517095772
2024.9452177375442 2216.9671250390156
2025.600634024544 2474.002912089673
2026.2558924576842 2480.3837783407494
2026.9109930751292 2349.4551216595764
2027.565935915025 2086.970072613706
2028.2207210155066 2498.6305854608263
2028.8753484146964 2439.801328320292
2029.529818150695 2001.7180127997094
2030.1841302615903 2447.728606195316
2030.8382847854573 2082.211641623536
2031.4922817603601 2243.749831514437
2032.1461212243357 2310.1667708031646
2032.7998032154192 1920.2834370040036
2033.4533277716218 2133.0375385841407
2034.1066949309443 2063.6008888791384
2034.7599047313688 2027.946695331152
2035.4129572108704 2290.3472135359057
2036.0658524074006 2294.2771895830556
2036.7185903589016 2247.5371145131985
2037.3711711032956 2334.2973482706075
2038.023594678496 2251.360758550203
2038.675861122394 1998.3014869094773
2039.3279704728757 2354.5168126504695
2039.9799227678031 2010.611854200269
2040.6317180450278 2186.143476050681
2041.2833563423865 2172.2966041090904
2041.9348376977014 2546.445155745217
2042.5861621487784 2237.881508837384
2043.2373297334088 2390.9642996837347
2043.8883404893695 2258.5440711210426
2044.5391944544208 2306.565310996921
2045.1898916663158 2467.347790092153
2045.8404321627804 2374.206636488182
2046.4908159815368 2089.271139674419
2047.1410431602853 2053.6014502711246
2047.7911137367173 1912.390930681358
2048.441027748504 1992.411947538872
2049.090785233302 2072.43615654917
2049.7403862287592 2222.647431751606
2050.389830772503 2387.6125122142857
2051.0391189021466 1852.8603315892938
2051.688250655294 2393.417809441956
2052.337226069527 1857.2119738869126
2052.986045182417 2327.825579332803
2053.634708031521 1934.2360008395674
2054.283214654375 1851.8568820087876
2054.931565088511 1769.411694572977
2055.579759371436 1952.773490472254
2056.2277975406523 2149.9140772997107
2056.8756796336384 2429.7366517827572
2057.5234056878617 2262.5815707381794
2058.1709757407752 2094.927780153018
2058.8183898298194 2254.1840627617376
2059.465647992416 2195.7586339421505
2060.1127502659747 2315.03323169311
2060.759696687888 1871.071668784672
2061.4064872955405 2171.606864837731
2062.053122126292 1922.0087653021292
2062.699601217497 2195.6416228390563
2063.345924606485 1950.7340736411654
2063.992092330587 2225.916050045518
2064.638104427102 1953.2659368429527
2065.283960933324 2472.8880414032337
2065.92966188653 2174.081233011678
2066.5752073239855 2364.7671738801373
2067.2205972829397 1880.4023602037955
2067.86583180062 2296.3315962345046
2068.5109109142522 1925.3228877881525
2069.15583466104 2153.877411932051
2069.8006030781708 1976.0843585752616
2070.445216202821 2002.06206309942
2071.089674072153 2328.97261676945
2071.7339767233116 2286.69509671725
2072.3781241934303 2117.7553515229692
2073.0221165196253 2304.838204706072
2073.6659537390024 2046.785376417282
2074.3096358886505 2315.3162223341496
2074.953163005637 2081.1623942376586
2075.596535127028 1859.3618694597885
2076.2397522898664 2049.4486376864998
2076.882814531182 2094.3006266296698
2077.5257218879924 2330.6371592596925
2078.1684743973 1959.334393106314
2078.8110720960885 1875.61726214542
2079.453515021336 1999.6210383288417
2080.095803209997 2123.7140458704616
2080.7379366990135 2224.8799637559096
2081.37991552532 2281.233002508355
2082.0217397258275 2251.2995574744323
2082.6634093374414 1799.9337247177514
2083.3049243970418 2042.8695340562094
2083.9462849415067 2258.561863209624
2084.587491007689 2177.086475177663
2085.2285426324324 2119.9031302965554
2085.869439852564 2090.4801855824426
2086.510182704902 1907.2591181379448
2087.1507712262483 2068.6590163134233
2087.791205453381 1857.2664296548512
2088.4314854230743 2219.401898739262
2089.0716111720867 2194.5310043702857
2089.7115827371617 1782.9063226262874
2090.351400155023 1912.8860632825588
2090.991063462385 2043.1941219903365
2091.6305726959527 1911.2574812903645
2092.2699278924047 2206.9814010121913
2092.9091290884153 1984.0982246563622
2093.548176320641 1716.3875241486803
2094.187069625721 2120.5904415065033
2094.8258090402887 1715.4719345362114
2095.464394600951 2217.8487579126513
2096.102826344313 2053.672167408076
2096.741104306955 2286.19537283542
2097.379228525453 1933.5863734358438
2098.017199036358 2192.9823023685426
2098.6550158762147 1945.5335659351756
2099.2926790815527 2174.793706060345
2099.9301886888825 2145.2465616457753
2100.5675447347076 2047.0248697307663
2101.2047472555114 2373.526789550481
2101.841796287761 2017.009833887665
2102.47869186792 2154.394055058339
2103.1154340324265 1921.597573927149
2103.752022817709 1967.6765709158658
2104.388458260184 1875.818740089547
2105.024740396251 2062.57067453314
2105.660869262292 1798.9044385574675
2106.296844894685 2270.250281048749
2106.93266732978 2152.1555148828493
2107.5683366039284 1832.7483674773043
2108.2038527534532 2066.2769375498565
2108.8392158146726 2191.2313742809074
2109.4744258238843 2063.0436375920654
2110.1094828173755 1967.038243210227
2110.744386831422 2432.116871373676
2111.3791379022787 2188.065413108383
2112.01373606619 2303.280509550289
2112.648181359389 2231.3516703994483
2113.28247381809 2076.850620582628
2113.916613478492 2130.405920115869
2114.550600376786 2241.0383209804995
2115.1844345491445 1922.8113447869684
2115.818116031729 1943.1872059272362
2116.451644860679 2010.9892296081648
2117.085021072133 1721.6207577723385
2117.718244702204 1901.4063326453033
2118.3513157869984 1732.1177775163092
2118.984234362604 1734.810913709606
2119.617000465092 1964.9901813036347
2120.249614130529 1976.3326272441122
2120.8820753949585 1987.696401791504
2121.5143842944162 1935.3755723600607
2122.14654086492 1901.5056557807013
2122.7785451424734 2098.7411642601573
2123.4103971630702 1748.0541221077503
2124.042096962681 2078.991133852492
2124.6736445772767 2160.632675047126
2125.305040042802 1927.7301138970438
2125.936283395191 2079.9655265363535
2126.567374670365 2076.501316283589
2127.198313904233 1841.0341853098878
2127.8291011326855 1923.7302716275212
2128.4597363916037 2006.3707682850466
2129.0902197168507 2009.3692402689346
2129.720551144279 1825.5479821663757
2130.3507307097225 2370.9618265413574
2130.980758449008 2262.841962271325
2131.6106343979427 1872.7216761335217
2132.2403585923203 2131.925492364163
2132.8699310679276 2270.2690849177916
2133.499351860526 2082.8345123765207
2134.1286210058715 1962.6771151567723
2134.7577385397053 1707.4744139171303
2135.3867044977487 2234.8958739458603
2136.0155189157176 2300.101058307703
2136.644181829308 2140.1556523701515
2137.2726932742025 2032.7402529890835
2137.901053286074 2206.183778167452
2138.5292619005777 1770.0028971718336
2139.1573191533535 1922.307267754136
2139.7852250800315 2232.099813168549
2140.4129797162295 2118.3703131698626
2141.0405830975433 1620.246506471444
2141.6680352595613 1701.8568379743926
2142.2953362378576 1783.6428995145347
2142.9224860679915 1942.0380749673045
2143.549484785508 2034.98984562337
2144.1763324259373 1943.2977697985432
2144.803029024799 1889.3849832711323
2145.429574617594 1846.6923226835984
2146.0559692398165 2055.1055106196627
2146.682212926942 1868.6560289310332
2147.308305714432 1813.9802325124424
2147.9342476377333 2304.7259788095475
2148.5600387322847 2334.0682373353484
2149.185679033506 1995.5078341085523
2149.8111685768017 1813.3600734392962
2150.4365073975678 1915.4674971261363
2151.061695531187 1831.6194282819324
2151.686733013021 2309.8722654936473
2152.311619878423 2221.45793674484
2152.9363561627342 1930.6335557160824
2153.560941901278 1845.4422961619791
2154.1853771293663 2089.544964542423
2154.809661882293 2053.9921323171134
2155.433796195348 2332.8029043503625
2156.0577801037944 1867.5575252475733
2156.681613642895 2346.6646124565927
2157.3052968478896 1870.37586035362
2157.928829754006 2051.196497339855
2158.552212396462 2099.6429074494004
2159.1754448104566 2036.2429892359673
2159.7985270311783 1742.3302832618817
2160.4214590938027 1466.2828829888165
2161.0442410334927 1582.2595481694943
2161.6668728853874 1674.6607653625802
2162.289354684628 1767.2995722479511
2162.911686466332 1928.0562956216515
2163.533868265602 2013.9601020923371
2164.1559001175337 2376.0117879014406
2164.7777820572046 2093.876441749418
2165.399514119681 1831.9881637819628
2166.021096340013 1771.046004855365
2166.6425287532384 1769.8546468064767
2167.263811394385 1768.7632533435722
2167.8849442984574 2235.4335816406683
2168.505927500455 1879.1842684440817
2169.126761035366 2142.431351195839
2169.7474449381552 1883.7025408615507
2170.367979243778 1617.899482387706
2170.9883639871823 2118.1349199546576
2171.608599203293 1741.781084751278
2172.2286849270276 2041.8204242155366
2172.8486211932886 2342.595941500968
2173.4684080369625 2199.3710362181523
2174.0880454929265 1762.8201579126264
2174.7075335960417 1551.023450320225
2175.3268723811543 1595.94195341878
2175.9460618831 1640.9966138946606
2176.565102136701 1978.5768232936953
2177.1839931767627 1930.7211713375102
2177.802735038078 1882.7667756179248
2178.421327755432 1716.2015562589918
2179.0397713635866 1741.1114186848463
2179.658065897298 1992.916169658013
2180.276211391305 2050.151849172503
2180.8942078803357 1930.818827236577
2181.5120553991 2050.880571489246
2182.129753982299 2048.471368130572
2182.7473036646206 2046.0664108845904
2183.3647044807367 2155.9263385297695
2183.9819564653044 1754.8233246380005
2184.599059652968 2112.6211338031626
2185.216014078367 2147.602966207429
2185.832819776113 2152.2359984597356
2186.4494767808137 2156.756882922478
2187.065985127063 1761.1450061685605
2187.682344849436 1800.8013374342493
2188.298555982501 2168.5301351385347
2188.9146185608097 1913.8249884223355
2189.530532618901 2098.7256410051423
2190.1462981912937 2147.9984267868363
2190.761915312507 1948.454284877315
2191.377384017036 1907.964847319555
2191.9927043393654 1841.5944590903898
2192.6078763139667 1469.5753326088677
2193.2228999753006 1688.8646756997678
2193.837775357808 1908.6267304134751
2194.452502495922 1605.4173519486399
2195.0670814240602 1765.9502807599783
2195.6815121766285 1662.151453039897
2196.2957947880186 1581.4697561936405
2196.9099292926057 1500.6306908620982
2197.523915724758 2088.08673275618
2198.137754118825 1881.023794486652
2198.7514445091456 2235.9573093666045
2199.3649869300443 2322.004733775993
2199.9783814158327 2408.3506503112926
2200.5916280008096 2315.8494269421444
2201.2047267192593 2126.222331851216
2201.8176776054515 1834.9151806019447
2202.430480693649 1685.9066695040037
2203.0431360180955 2213.6144029061875
2203.6556436130195 2195.64588127863
2204.268003512645 1684.2234290630208
2204.8802157511727 1803.8390463311443
2205.492280362796 1873.5469695056993
2206.1041973816937 1943.5039713872527
2206.715966842032 2092.1754703680754
2207.3275887779655 1954.7388536271199
2207.93906322363 1981.2258591227728
2208.550390213153 2146.848062031763
2209.1615697806465 2101.113989958012
2209.7726019602105 1692.5427854727889
2210.3834867859277 1696.5388486195784
2210.9942242918787 1793.499809574026
2211.6048145121167 1846.5933814166
2212.2152574806914 2576.5888950766703
2212.825553231638 1780.2870594243345
2213.435701798975 2533.6976563026133
2214.045703216707 1939.3460422687244
2214.655557518832 1490.353963327441
2215.2652647393297 1722.7698655635006
2215.874824912169 1893.4410045815634
2216.4842380713 1425.3436817659644
2217.09350425067 1651.8717060436443
2217.7026234842033 2085.556450354302
2218.311595805819 2014.0190089047326
2218.9204212494133 1672.328810344655
2219.52909984888 2100.2317203982698
2220.137631638092 2137.530659847472
2220.7460166509154 2174.771307846833
2221.354254921198 1911.5907632949577
2221.9623464827764 1893.2809718462454
2222.5702913694713 1969.7347022756053
2223.178089615096 2126.855591318609
2223.7857412534486 1832.3631166067742
2224.39324631831 1491.2143746780844
2225.000604843457 1681.43844495958
2225.607816862641 2121.57495979952
2226.214882409611 2129.053044085328
2226.8218015180973 2051.1269761359586
2227.4285742218217 1972.9327993107272
2228.0352005544864 1822.1635367152853
2228.6416805497847 1647.9701774941113
2229.248014241399 1848.7498377175132
2229.8542016629945 1680.1439350851447
2230.460242848223 1818.8312545927504
2231.0661378307304 1724.8379067292196
2231.671886644139 1630.782011251676
2232.277489322065 1473.444465196108
2232.8829458981127 1458.3959649241192
2233.48825640587 1785.1905241476602
2234.0934208789095 1927.5543722262105
2234.6984393507955 2070.1388681578
2235.3033118550793 2144.462454881017
2235.9080384252975 1666.1157703113197
2236.5126190949723 1610.4631621011035
2237.1170538976166 1749.083284903039
2237.721342866729 1779.7555572647252
2238.32548603579 1810.480736305617
2238.9294834382763 1910.0694108058735
2239.533335107646 1757.6852396228655
2240.1370410773434 1706.2564494083967
2240.740601380803 1653.273086775375
2241.3440160514474 1961.6433778793594
2241.9472851226783 2052.9270854572706
2242.550408627896 1991.349759723525
2243.1533866004793 2272.8752374456044
2243.756219073799 1847.3447163024018
2244.3589060812064 1586.3422727918796
2244.961447656049 1859.4799249673804
2245.5638438316564 1741.462585661507
2246.166094641343 1948.7583298188279
2246.7682001184166 1657.4303650599563
2247.3701602961664 1928.8633300725865
2247.971975207871 2028.7075796054196
2248.5736448867974 2153.9573690542206
2249.175169366197 1751.5853337660596
2249.7765486793123 1762.0441595512978
2250.3777828593684 2009.179765659707
2250.9788719395783 1942.1142170695796
2251.579815953146 1930.0213505012362
2252.1806149332606 1946.9240741358415
2252.781268913097 1963.795773891703
2253.381777925817 1760.2931795974116
2253.9821420045737 1904.8785810171707
2254.5823611825035 2036.2128675332283
2255.1824354927303 1856.4060370754473
2255.782364968365 1747.5662050762962
2256.38214964251 1638.6301849849467
2256.9817895482483 1702.849101223002
2257.5812847186553 1681.6536840591168
2258.180635186791 1627.4282361435505
2258.779840985704 1863.3842980725979
2259.37890214843 1812.334389994666
2259.97781870799 1869.6814635175601
2260.5765906973957 1927.146419496466
2261.175218149645 1990.7422656873046
2261.773701097718 2051.3967707743586
2262.3720395745895 1457.5442659261685
2262.970233613216 1511.6897128561511
2263.568283246548 1677.9065094421887
2264.1661885075137 1544.2939231873322
2264.763949429038 1601.492309793602
2265.3615660440246 2033.5289458264629
2265.959038385374 1728.2308085077882
2266.5563664859637 1719.605635693298
2267.153550378669 1711.0497662688686
2267.7505900963424 2003.178855277744
2268.3474856718312 1704.904675552408
2268.9442371379664 1723.3455117877652
2269.5408445275643 1706.804922420742
2270.1373078734377 1841.5560027150161
2270.7336272083758 1871.05275555939
2271.32980256516 1638.748611215534
2271.925833976562 1966.9414080790018
2272.5217214753357 2163.800864275778
2273.117465094223 1628.3735210933003
2273.7130648659586 1633.0469322722215
2274.308520823257 1794.692169849894
2274.903832998827 1942.7837771996087
2275.4990014253563 1983.2117666615927
2276.094026135528 2023.6801315875114
2276.6889071620117 1640.876748125584
2277.2836445374614 1892.7840817257515
2277.878238294519 1911.3528895447707
2278.472688465812 1677.4389780038214
2279.066995083962 1443.1151814761192
2279.6611581815705 1785.36560475522
2280.255177791232 1656.3319762176343
2280.8490539455233 1925.586691480437
2281.442786677013 2195.4019453928786
2282.0363760182554 2013.8152820401403
2282.6298220017943 1632.6476361743278
2283.223124660155 1676.4718717384658
2283.816284025859 1720.4816419514711
2284.4093001314086 2188.1731869878145
2285.002173009292 2110.9528419224775
2285.5949026919952 2033.5479442804349
2286.1874892119777 1849.2745251669244
2286.7799326016993 1621.3278852431115
2287.3722328936 1392.784705068868
2287.964390120109 1442.9227247617093
2288.556404313642 1812.7022237927406
2289.1482755066027 2127.8585962004818
2289.7400037313873 1990.7756264803054
2290.3315890203703 1686.1139904358079
2290.9230314059205 1820.1513294859735
2291.5143309203904 1620.8630331095903
2292.1054875961236 1845.4025135045308
2292.6965014654506 2195.586107397076
2293.287372560684 1753.839564959822
2293.878100914131 1722.3519723253278
2294.468686558086 1690.8525942170268
2295.059129524827 1637.0458762765643
2295.649429846617 1606.9916733085406
2296.239587555716 1576.8266149983124
2296.8296026843636 1801.8246005554906
2297.419475264791 1754.8418010366731
2298.0092053292137 1707.6625975607185
2298.598792909839 2013.0906408149015
2299.1882380388597 2146.7460264255965
2299.777540748455 1831.7944293336327
2300.3667010707904 1961.2405642500958
2300.9557190380256 2049.022653781255
2301.544594682302 1791.7029625163802
2302.1333280357503 2114.665595821089
2302.721919130485 1861.126469091841
2303.3103679986198 2201.527855618849
2303.898674672242 2019.6471723864265
2304.486839183437 1662.1988867150897
2305.0748615642697 1794.3294397778632
2305.6627418468015 1683.2492651321325
2306.2504800630704 1521.9689970687311
2306.8380762451143 1885.9615068891926
2307.425530424949 1914.035749539708
2308.012842634582 1942.1595201325836
2308.6000129060103 2311.109668937299
2309.187041271214 2204.896850995912
2309.773927762164 1685.3496394623303
2310.3606724108213 1954.4108271584544
2310.9472752491274 1793.741510095308
2311.5337363090184 2071.8348454365073
2312.120055622414 1737.7182877694372
2312.706233221221 1800.4375320471045
2313.2922691373424 1966.5183892455716
2313.8781634026564 1713.0117752477188
2314.463916049037 1869.4876500201249
2315.049527108342 1968.7553373111023
2315.6349966124235 2083.0377547774706
2316.2203245931123 2100.2946638898297
2316.8055110822315 1589.4682108787056
2317.3905561115935 1553.2514640328686
2317.9754597129977 1593.0212660602203
2318.560221918229 1655.245446883432
2319.1448427590603 1717.6469720385182
2319.729322267256 1581.9350245436444
2320.313660474563 1725.1372747709545
2320.8978574127195 2379.597382122659
2321.481913113452 2046.2571965285092
2322.0658276084705 1890.6041954961279
2322.6496009294806 1734.5595158978588
2323.233233108165 1810.6464751769447
2323.8167241762058 1719.3663086353204
2324.4000741652617 1847.5503722473338
2324.983283106987 1809.630938205823
2325.5663510330232 1778.1733065170308
2326.1492779749933 1746.435167982274
2326.7320639645204 1899.8087713390705
2327.3147090332004 2224.4274353595893
2327.897213212629 1685.0156678854964
2328.4795765343843 1936.1102327712997
2329.0617990300307 1671.9388487194192
2329.643880731124 2146.5469176305323
2330.22582166921 1684.280488415826
2330.807621875816 1560.2122836862643
2331.3892813824623 1436.0788472175238
2331.9708002206517 1551.0670646089964
2332.5521784218818 1873.5747510385704
2333.133416017634 1719.0953882161928
2333.7145130393765 1685.1719683235028
2334.295469518571 1881.211933919118
2334.876285486658 1874.7376959959358
2335.456960975076 1977.55430504521
2336.037496015242 2080.6349899746433
2336.6178906385667 1768.1347777155624
2337.198144876451 1869.573771662032
2337.778258760278 2055.3137519475686
2338.3582323214214 1898.8690575662265
2338.938065591243 1742.0130686857053
2339.517758601087 2114.0350457713057
2340.0973113822965 1764.8022661097252
2340.676723966193 1711.4510387842697
2341.255996384094 1948.0334446358593
2341.835128667295 1898.1620475330474
2342.4141208470883 2029.856435923466
2342.992972954751 1877.7831764429654
2343.5716850215467 1539.006241929942
2344.1502570787306 1199.5071083988084
2344.7286891575386 1570.6193033419374
2345.3069812892045 1691.0756976087334
2345.885133504944 1811.6076599266366
2346.4631458359618 1727.5995482552037
2347.04101831345 1476.1026405806394
2347.6187509685915 1496.2008675535142
2348.196343832553 1725.6348710912728
2348.7737969364935 1754.6120766705517
2349.351110311558 1661.3952990635748
2349.9282839888765 1625.7853871375755
2350.5053179995757 1565.714986963781
2351.0822123747585 1421.618480290474
2351.658967145526 1478.8279454739522
2352.2355823429643 1536.220052117879
2352.812057998144 1820.1842812872114
2353.3883941421263 1806.156084506819
2353.9645908059647 1927.5799941895293
2354.540648020693 1825.774471543095
2355.116565817336 1533.47273330282
2355.6923442269126 1616.317309572047
2356.2679832804224 1699.3338817392093
2356.8434830088518 1621.5964613387532
2357.41884344318 1715.303075145664
2357.994064614377 1809.12217742803
