#exp_cfg={"servo_angle": 0.0, "laser_lim": 100.0, "servo_angle_to": 18.0, "laser_wup": 0.0, "bt_dev": "EnSpectr-25AE3", "laser_wdn_max": 0.0, "frames": 10.0, "servo_used": 0, "servo_calib_use": 0, "laser_wdn_min": 0.0, "servo_pix_from": 90.0, "cooler_tout": 300.0, "servo_angle_from": 0.0, "servo_calib": "[-1.9174921013161362e-09, 3.9322238269163779e-05, -0.27385609119055809, 653.59552119713567]", "laser_autoctl": 0, "servo_pix_to": 3682.0, "laser_pw": 100.0, "cooler_on": 0, "laser_volt": 4.0, "cooler_autoctl": 0, "cooler_curr": 70.0, "cooler_startup": 10.0, "laser_fixed_pw": 0, "gain": 1.3, "offset": 2.53059635486, "servo_calib_degree": 3.0, "laser_curr": 55.0, "shutter": 8200.0, "servo_calib_step": 1.0, "laser_fixed_curr": 0, "exp": 2000.0, "ccd_volt": 4.7, "bt_addr": "00:06:66:62:5A:E3", "servo_delay": 500.0, "laser_autooff": 1}
#proc_cfg={"flat_auto_wnd": 200.0, "flat_auto_fr": 200.0, "flat_auto_shift": 5.0, "yconv": 1, "flatten": 1, "flatten_strength": 100.0, "xfrom": 300.0, "auto_max_frame": 2000.0, "auto_signal": 48000.0, "flat_auto_tol": 0.1, "autoclip": 1, "xrel_range": 0.0, "flat_auto_to": 4000.0, "intensity_adj": 1.0, "xrel": 7852.0, "rmhot": 1, "flat_auto_slit": 4.999999999999997, "auto_ini_exp": 300.0, "auto_off": 0, "xto": 2860.0, "flat_auto_ref": "", "flat_auto_rank": 1, "autobackg": 0, "xrel_adj": 0.0, "auto_black_lvl": 1, "base_wnd": 100.0, "sub_baseline": 0, "xconv": 2, "auto_max_exp": 1000.0, "auto_total_exp": 10000.0, "auto_exp": 0, "rmripple": 0, "black_lvl": 8270.7625, "shutter_clip_adj": 0.0, "auto_bckg": 0, "flat_auto_thr": 0.9, "subbackg": 1}
316.8218498245369 11550.326375256122
317.89969571804795 11290.629267360653
318.977263876126 11331.18111521185
320.05455438786703 11117.004096777819
321.1315673423287 11112.752176880247
322.2083028285215 11221.881356539607
323.2847609354267 11093.290131571226
324.3609417519747 10989.935593280135
325.43684536705587 10959.92585280165
326.5124718695279 10958.783347015586
327.58782134820103 10727.621118246261
328.66289389184385 10832.15217992788
329.7376895891921 10602.45488968154
330.8122085289342 10690.440337854217
331.88645079971866 10668.979940143221
332.9604164901575 10623.890470054945
334.03410568881554 10498.005966086446
335.1075184842266 10571.53826276325
336.18065496487543 10464.855632393115
337.2535152192122 10476.638830759019
338.32609933564163 10489.371402794019
339.39840740253203 10347.16071476127
340.4704395082099 10338.969011835059
341.5421957409617 10282.76277243382
342.6136761890357 10298.553963568429
343.6848809406365 10228.06566429597
344.75581008392874 10183.100460044669
345.82646370703696 10120.398692220495
346.8968418980512 10125.28868376198
347.96694474501055 10178.316814061494
349.0367723359268 10065.692811448242
350.106324758759 10058.444966196792
351.1756021014353 9959.865597326381
352.2446044518383 9968.348770490591
353.31333189781435 10058.990478867809
354.38178452716966 9943.428191031117
355.449962427665 10025.91775521965
356.51786568702846 9959.04434115671
357.58549439294256 10005.2414407335
358.6528486330535 10078.040626645186
359.71992849496564 9964.864942240962
360.7867340662433 10003.850982468746
361.8532654344144 10026.840231933762
362.9195226869597 10123.201715719415
363.9855059113288 9976.692309050548
365.05121519492604 9928.620982558325
366.11665062511565 10067.650393685119
367.1818122892273 10103.050926570435
368.2467002745434 10107.949845738385
369.31131466831175 10074.38684021445
370.375655557742 10061.191448161384
371.4397230299983 10077.801945230623
372.5035171722102 10008.220238115766
373.5670380714637 10017.093615270449
374.6302858148101 10159.671954040288
375.6932604892554 10083.050597861402
376.7559621817709 10060.344354756051
377.81839097928605 9981.12908959485
378.8805469686886 9927.091015386177
379.94243023683157 10084.841242665394
381.0040408705263 9925.140307550035
382.0653789565458 9860.699577397176
383.1264445816196 9909.11590679793
384.1872378324406 9920.72073032901
385.2477587956637 9899.15216656918
386.3080075579037 9816.46297799485
387.3679842057336 9730.924661898865
388.4276888256918 9830.350645962826
389.48712150426945 9708.19980457042
390.54628232792857 9781.542460905675
391.6051713830857 9635.293521540385
392.66378875611736 9681.344936805412
393.7221345333637 9575.760610554064
394.7802088011249 9615.367358860149
395.838011645661 9603.427906105306
396.89554315319765 9519.20357312671
397.9528034099112 9481.759598278748
399.00979250194723 9385.591111766054
400.06651051541485 9414.858363720008
401.1229575363741 9461.168702887795
402.17913365085224 9400.940902324119
403.23503894483656 9448.755036549872
404.2906735042761 9311.123403007889
405.3460374150818 9331.167514161336
406.401130763119 9297.16138502189
407.455953634224 9252.25486933082
408.5105061141876 9221.795133033951
409.56478828876243 9110.362694680298
410.6188002436629 9114.20719709752
411.6725420645689 9135.942638187928
412.72601383711117 9149.641506328884
413.77921564689314 9134.173463432848
414.8321475794728 9070.44637602945
415.88480972036814 9066.024528671263
416.93720215506437 9062.587736153993
417.9893249690049 9025.172613187166
419.04117824759123 8939.550157964046
420.09276207619223 8883.220934191888
421.144076540133 8946.833002177262
422.1951217247042 8847.988214496829
423.24589771515275 8869.195348558856
424.2964045966928 8843.992664600662
425.34664245449494 8842.793733259627
426.3966113736933 8767.279829675861
427.4463114393875 8734.889452604802
428.49574273662984 8782.988673311918
429.5449053504417 8697.010824741326
430.5937993658026 8790.807751500313
431.6424248676558 8601.421517571258
432.6907819409007 8655.56149817298
433.73887067040596 8702.023831244358
434.7866911409965 8680.062651232047
435.8342434374608 8619.577556311691
436.88152764455117 8581.544119739947
437.9285438469724 8623.541616385075
438.9752921294057 8569.794123833777
440.02177257648145 8552.944385897212
441.06798527279716 8431.610032756154
442.1139303029122 8648.008792915029
443.1596077513459 8523.60740754271
444.2050177025794 8524.262170868678
445.25016024105753 8565.581718254985
446.2950354511886 8560.12041860692
447.33964341733736 8609.003197804417
448.383984223834 8528.581505276132
449.4280579549686 8446.638779776891
450.471864694995 8551.256776652368
451.5154045281306 8519.797221763347
452.5586775385509 8479.61329178229
453.60168381039693 8477.55234063095
454.64442342776783 8547.175857326129
455.6868964747264 8534.662805115619
456.7291030353008 8451.461049456839
457.77104319347563 8647.656154045886
458.8127170332027 8482.400998514062
459.854124638392 8550.804418719355
460.895266092919 8664.254556349695
461.93614148061897 8587.11247590815
462.97675088529104 8689.793062426183
464.01709439069236 8665.530798974898
465.0571720805492 8624.916292176007
466.0969840385442 8675.658835612145
467.1365303483253 8767.239036651243
468.17581109350067 8659.763416178623
469.2148263576437 8596.031861754407
470.2535762242878 8761.57940225127
471.29206077693016 8843.689955971928
472.33028009902773 8924.834291343368
473.3682342740012 8782.119106551183
474.40592338523857 8818.97040340045
475.4433475160804 8910.04629287619
476.4805067498364 8877.29280672401
477.51740116978 8915.870578079699
478.5540308591426 9077.996400335569
479.59039590112116 9153.890904254478
480.6264963788726 9128.135616730073
481.6623323755193 9283.563690629428
482.6979039741436 9258.331714708109
483.7332112577915 9545.737671524108
484.76825430947247 9805.9416359676
485.80303321215797 9757.325552302396
486.837548048783 9803.301311691834
487.8717989022425 9999.390890860948
488.90578585539697 10060.80631017516
489.9395089910686 10240.591375322529
490.97296839203955 10110.37836787254
492.00616414106116 9996.603364232044
493.0390963208429 9983.760666294296
494.0717650140559 9978.046247545706
495.10417030333883 9790.21863270408
496.1363122712901 9787.606898013099
497.16819100046814 9607.908168010077
498.1998065734024 9448.716806874609
499.2311590725767 9321.651272291241
500.26224858044407 9143.165891554536
501.2930751794156 9007.83379236071
502.3236389518679 9046.377493867552
503.35393998014115 8872.308602609457
504.38397834653733 8780.493672432003
505.4137541333221 8770.382874927524
506.4432674227228 8596.772920978734
507.4725182969323 8494.407422002558
508.5015068381035 8466.481750289307
509.53023312835467 8464.413971109243
510.55869724976765 8379.734366976061
511.58689928438434 8322.158825090692
512.6148393142121 8280.077272692643
513.6425174212218 8315.583023134195
514.6699336873462 8249.101227814583
515.6970881944835 8275.886196798598
516.7239810244901 8208.171924235618
517.7506122591931 8252.506192307123
518.7769819803761 8155.835693682091
519.8030902697901 8237.758716620523
520.8289372091476 8230.543698875923
521.8545228801249 8351.221364079738
522.8798473643619 8262.18454597585
523.9049107434621 8185.742464252721
524.9297130989908 8164.759700554942
525.9542545124805 8201.045243107215
526.9785350654201 8184.951762953827
528.0025548392696 8224.764323110761
529.0263139154504 8103.416566964603
530.0498123753423 8166.557748518242
531.073050300296 8110.936690756188
532.0960277716204 8032.076010799092
533.1187448705896 8030.952766900354
534.1412016784416 8070.21311251084
535.1633982763833 7976.791291544995
536.1853347455726 7929.166521689326
537.2070111671401 7918.768910571617
538.2284276221817 7805.29623231461
539.2495841917516 7802.190117116372
540.2704809568677 7720.895725216629
541.2911179985167 7754.27048472967
542.3114953976419 7723.655780924196
543.3316132351592 7626.5525975428345
544.3514715919409 7618.399670365342
545.3710705488247 7621.3217733913525
546.3904101866156 7576.145959734044
547.4094905860784 7609.4208154283815
548.4283118279418 7561.761218520283
549.4468739929034 7574.425226838478
550.4651771616191 7547.856921200584
551.4832214147063 7496.61211994029
552.501006832761 7570.808730077483
553.5185334963226 7436.217826251685
554.5358014859103 7557.489813109074
555.5528108820035 7517.974045930345
556.5695617650363 7410.439238409749
557.5860542154242 7476.778992964287
558.6022883135283 7468.514893751548
559.6182641396881 7399.984547522754
560.6339817741991 7460.295210752949
561.6494412973225 7479.912826545925
562.6646427892883 7517.887712991309
563.6795863302796 7383.955765640181
564.694272000459 7421.841397215299
565.7086998799423 7516.247370609
566.7228700488104 7411.552492834397
567.7367825871115 7331.989070621702
568.7504375748576 7378.370535213576
569.7638350920224 7431.9982669441915
570.7769752185486 7418.036028785957
571.7898580343353 7477.209445061218
572.802483619258 7411.873367624005
573.8148520531431 7580.893538779814
574.8269634157932 7629.166205687278
575.8388177869692 7539.386880753259
576.8504152463938 7596.142573975716
577.8617558737587 7720.219021999648
578.8728397487175 7676.135055015178
579.883666950891 7805.082960380763
580.8942375598654 7915.316417827817
581.9045516551851 7993.4435065471
582.9146093163617 8153.4348583675255
583.924410622878 7980.729447275405
584.9339556541727 8080.486128821231
585.9432444896538 8212.913081070543
586.9522772086875 8151.101612489334
587.9610538906127 8156.020850664005
588.9695746147318 8156.918551947197
589.9778394603054 8130.282657679483
590.985848506567 8063.774545390965
591.9936018327098 7952.565158067638
593.0010995178891 7836.693131119905
594.0083416412344 7899.901091947618
595.0153282818283 7673.790381044471
596.0220595187293 7634.186089494962
597.0285354309508 7623.498487308183
598.0347560974806 7644.304505521967
599.0407215972609 7538.95502471762
600.0464320092051 7519.748104721439
601.0518874121954 7511.744943382427
602.0570878850685 7487.852330628433
603.062033506636 7428.458386738848
604.0667243556636 7409.21358798321
605.0711605108936 7263.608313001088
606.0753420510264 7638.431888086388
607.0792690547278 7433.370476579478
608.082941600629 7408.830702998392
609.0863597673306 7507.435028822534
610.0895236333909 7506.05129941297
611.0924332773357 7685.722835177335
612.0950887776617 7587.571676168867
613.0974902128219 7674.7005405319305
614.0996376612384 7821.287285740138
615.1015312013005 7918.596320371975
616.1031709113595 7975.514971961301
617.1045568697336 7927.711342183119
618.1056891547069 8076.089232264618
619.1065678445229 8202.465572571979
620.1071930173985 8446.360996723677
621.1075647515099 8465.57662629088
622.1076831250048 8541.130224819075
623.1075482159849 8811.974594851265
624.1071601025305 8861.020974741743
625.1065188626781 9004.132164216006
626.105624574433 9297.369260382906
627.1044773157682 9400.06544505461
628.1030771646128 9463.093531892184
629.1014241988742 9672.355562733272
630.0995184964158 9905.306208473574
631.0973601350688 9925.279428046928
632.0949491926294 10116.071132985711
633.0922857468631 9965.806258821143
634.089369875499 10032.443431790103
635.0862016562278 10110.64457297869
636.0827811667077 9919.05616089767
637.0791084845641 9863.186496091392
638.0751836873878 9706.377894692194
639.0710068527369 9724.060455126679
640.0665780581294 9426.278917694259
641.0618973810506 9297.641481155197
642.0569648989604 9159.826980238799
643.0517806892676 8881.12703887351
644.0463448293649 8861.694371853151
645.040657396592 8657.394199564285
646.0347184682723 8509.71184908543
647.0285281216875 8298.056966591348
648.0220864340772 8120.764807822471
649.0153934826558 8020.425484599665
650.0084493446047 7948.468576208116
651.0012540970674 7862.299254425602
651.9938078171526 7697.625280708615
652.9861105819346 7620.91658915962
653.9781624684565 7710.112324470489
654.9699635537254 7450.3156997740425
655.9615139147136 7505.60685779397
656.9528136283589 7307.116886453843
657.9438627715699 7454.539510029577
658.9346614212154 7316.161277472405
659.925209654135 7124.192382042146
660.9155075471263 7121.887796079323
661.9055551769616 7166.3154131416495
662.895352620375 7247.900098491334
663.8848999540678 7121.633464063458
664.8741972547068 7020.609973544034
665.863244598926 6932.436925255019
666.8520420633213 7051.492702751852
667.8405897244611 6842.949686909256
668.8288876588758 6827.938408469301
669.8169359430613 6945.122846423187
670.8047346534822 6940.680559300088
671.7922838665672 6732.74537291834
672.7795836587156 6840.079199499014
673.766634106285 6953.561124764188
674.7534352856092 6718.496332465166
675.7399872729766 6784.844888797672
676.7262901446538 6849.364551704995
677.712343976862 6829.707589532176
678.6981488457986 6871.745071211441
679.6837048276229 6748.331262095644
680.6690119984596 6770.14627996284
681.6540704344043 6747.17703017623
682.6388802115107 6752.114817124003
683.6234414058108 6705.2854106960585
684.6077540932874 6640.628768242894
685.591818349907 6598.230771353202
686.575634251587 6680.72559455898
687.5592018742263 6626.181034761759
688.5425212936734 6514.806579803609
689.5255925857564 6717.530025446233
690.5084158262707 6547.341073697576
691.4909910909646 6488.738248563333
692.4733184555644 6444.469753133703
693.4553979957618 6531.641223960318
694.4372297872123 6487.3721516084715
695.4188139055404 6466.277212031459
696.4001504263324 6311.239209755967
697.3812394251509 6421.475330148141
698.3620809775111 6479.157160434091
699.3426751589104 6307.680619435451
700.3230220448004 6269.892274217555
701.3031217106054 6303.082115529004
702.2829742317172 6477.625681314789
703.2625796834873 6184.513679230371
704.2419381412474 6249.615234955925
705.22104968028 6263.751646334982
706.1999143758458 6167.304610501386
707.178532303169 6199.967160734056
708.1569035374378 6234.931275881795
709.1350281538107 6302.26946000255
710.1129062274158 6242.507438765133
711.0905378333373 6326.610871579479
712.0679230466376 6251.645533803703
713.0450619423427 6410.951326636265
714.0219545954424 6522.115301841064
714.9986010808989 6352.129275387493
715.9750014736292 6390.810044868512
716.9511558485392 6492.132428731655
717.9270642804786 6677.519155570703
718.9027268442787 6616.8248464579565
719.8781436147328 6594.3426285182095
720.8533146666014 6482.888503825374
721.828240074612 6623.690164625604
722.8029199134635 6596.509358961562
723.7773542578125 6606.117569583907
724.751543182294 6467.553861572631
725.7254867615029 6558.427800570213
726.6991850700015 6350.690363333435
727.6726381823228 6357.392340317862
728.6458461729599 6421.1209977623785
729.6188091163858 6365.918718471568
730.5915270870246 6403.06821066622
731.5640001592856 6306.04063600017
732.536228407529 6292.313407132244
733.5082119060917 6311.87514723741
734.4799507292755 6272.6196035919465
735.4514449513481 6248.203882606401
736.4226946465496 6327.580907548488
737.3936998890786 6325.479690540485
738.3644607531078 6227.33863026652
739.3349773127793 6228.972720459583
740.3052496421951 6252.642898736648
741.27527781543 6178.544636938401
742.2450619065221 6076.016486535069
743.2146019894826 6209.864856885285
744.183898138288 6144.906375529262
745.1529504268801 6097.660931631689
746.1217589291682 6018.12446893607
747.0903237190341 6043.989126443652
748.058644870318 6037.801557485412
749.0267224568397 6053.8412026647375
749.994556552374 5881.517533826034
750.9621472306771 5988.639725666042
751.9294945654583 6024.037976610578
752.8965986304011 6015.424197780402
753.8634594991636 5940.9463080941805
754.8300772453586 6091.401792633555
755.7964519425768 5975.135249771999
756.762583664371 6133.3039075917095
757.7284724842611 6038.29920872129
758.6941184757416 5951.2783465373595
759.6595217122667 5983.55356027197
760.6246822672638 6081.703564933019
761.5896002141235 5898.0401137241115
762.5542756262093 6018.464910021823
763.5187085768503 6065.541858173739
764.4828991393406 5884.079890139461
765.4468473869474 5922.629096606768
766.4105533929032 5982.908543730473
767.3740172304078 5873.800969457985
768.3372389726283 5968.693550386948
769.3002186926988 5840.373925062997
770.2629564637282 5866.258834590311
771.2254523587872 5792.353299574112
772.1877064509154 5778.6203335861355
773.1497188131179 5599.841997960751
774.1114895183728 5630.057497374675
775.0730186396268 5626.8073849092
776.0343062497905 5580.050625233873
776.9953524217381 5535.907585342805
777.9561572283274 5615.354003937389
778.9167207423689 5569.473536701091
779.8770430366476 5466.537080239304
780.8371241839159 5491.463757040481
781.7969642568951 5488.6852770353635
782.7565633282757 5651.477245964319
783.7159214707099 5543.595248149148
784.6750387568281 5534.3796067804815
785.6339152592227 5496.273088224896
786.5925510504512 5476.5063206789255
787.5509462030477 5598.11364563015
788.5091007895098 5458.381715303103
789.4670148823006 5542.504284856571
790.4246885538596 5519.6092367068095
791.3821218765861 5556.665309038204
792.3393149228505 5406.713424313805
793.2962677649975 5588.2106408121845
794.2529804753303 5590.001287275554
795.20945312613 5616.197001541711
796.1656857896378 5608.820328317922
797.1216785380675 5530.554081835799
798.0774314435985 5663.1857476460555
799.0329445783846 5818.976662129786
799.9882180145414 5764.503410328114
800.9432518241574 5748.706839654247
801.89804607929 5838.897959765609
802.852600851962 5897.902329018105
803.8069162141637 5855.832262766897
804.760992237856 5994.394586927098
805.714828994971 6022.211201984157
806.6684265574077 6092.975826740908
807.6217849970271 5980.239664233913
808.574904385674 5951.305962405349
809.527784795142 6061.678605011674
810.4804262972102 6097.65440333563
811.4328289636178 5934.431832420797
812.3849928660748 5760.072407145302
813.3369180762638 5776.270075730765
814.2886046658241 5809.851942674496
815.2400527063783 5648.340337078248
816.1912622695108 5644.154886209648
817.1422334267718 5642.718076332223
818.0929662496856 5537.345803053618
819.0434608097457 5364.639407619049
819.9937171784059 5455.812429033179
820.9437354271013 5295.8335138345665
821.8935156272255 5394.017694083399
822.8430578501484 5256.622491540508
823.7923621672016 5163.030579637997
824.7414286496896 5218.8917270748
825.6902573688876 5237.088228821451
826.6388483960363 5201.204424280208
827.5872018023492 5052.5416909012965
828.5353176590033 5201.464518933013
829.4831960371503 5084.648457807939
830.4308370079016 5089.54357752163
831.3782406423525 5105.217227376436
832.3254070115545 5153.614478287376
833.2723361865319 5057.526525917943
834.2190282382799 5030.1170956781725
835.1654832377644 5120.816903817746
836.1117012559116 4974.143655143818
837.0576823636256 5141.964097093371
838.003426631778 4941.794433745623
838.9489341312074 4923.6554472547605
839.8942049327197 5147.356734416411
840.8392391070975 5122.090832834296
841.7840367250865 5008.663120642412
842.7285978573982 4995.405044265232
843.672922574724 5118.450583183297
844.6170109477152 5002.355273447388
845.560863046996 4980.3355615424125
846.5044789431595 5028.260844198484
847.4478587067697 4941.2519750039055
848.3910024083561 5059.106985953368
849.333910118421 4988.75199456341
850.2765819074339 4881.853113098974
851.2190178458332 5078.978088590194
852.161218004032 5065.600058518504
853.1031824524016 5035.937646689751
854.0449112612987 5015.881523882239
854.9864045010327 5130.794123459788
855.9276622418947 5002.358606618503
856.8686845541379 5016.524072719943
857.8094715079915 5051.531040111147
858.7500231736467 5176.818865862021
859.690339621271 5069.081828722463
860.6304209209939 5077.890340678778
861.5702671429244 5035.432600780732
862.5098783571284 5148.93598959666
863.4492546336569 5114.282098925249
864.3883960425155 5049.751450844134
865.3273026536863 5021.9867593012295
866.2659745371238 5018.48261528574
867.2044117627465 5240.400540284909
868.1426144004472 5083.443255127886
869.0805825200823 5204.889893682218
870.0183161914847 5220.03209282676
870.9558154844526 5308.139192218196
871.8930804687552 5293.338831642294
872.8301112141307 5222.473384288724
873.7669077902865 5373.66414225625
874.7034702669062 5483.636093714039
875.6397987136315 5360.455808862313
876.5758932000863 5396.43544498801
877.5117537958522 5439.038204500413
878.4473805704911 5407.084850127724
879.3827735935283 5455.3039536024435
880.3179329344603 5504.468795517005
881.2528586627541 5538.819916992866
882.1875508478479 5651.701717531
883.1220095591489 5489.663737244473
884.0562348660296 5461.741396036381
884.9902268378391 5548.867052733598
885.9239855438955 5454.370037578947
886.8575110534839 5373.117027472491
887.7908034358588 5405.063853497659
888.7238627602474 5406.702082070378
889.6566890958475 5387.05774308686
890.5892825118208 5273.23711765025
891.5216430773125 5387.267818352418
892.4537708614189 5255.223427324259
893.3856659332196 5199.55443348035
894.3173283617652 5093.248858311199
895.2487582160684 5182.973936621331
896.179955565116 5080.036324742117
897.110920477864 5018.4526144110405
898.0416530232451 5010.971191245693
898.9721532701478 4980.276542019083
899.9024212874428 5022.292636503557
900.8324571439662 4888.670367545134
901.7622609085302 4823.365642249444
902.6918326499072 4808.505589620359
903.6211724368477 4858.14595014015
904.5502803380696 4927.966624083963
905.4791564222614 4983.349027932109
906.4078007580792 4779.828846896239
907.3362134141571 4824.432067847343
908.2643944590909 4898.3964019805635
909.1923439614493 4744.2411404214745
910.1200619897754 4775.176207191827
911.0475486125779 4936.171312212495
911.9748038983344 4835.519371594807
912.9018279155007 4727.019809745541
913.8286207324982 4654.362288355218
914.7551824177117 4787.67506558979
915.6815130395116 4720.80747638963
916.6076126662283 4655.822826365364
917.533481366163 4685.767493391197
918.4591192075914 4741.352136199389
919.3845262587565 4778.416570823882
920.3097025878706 4581.819416220058
921.2346482631237 4626.167361449517
922.1593633526682 4684.466495108545
923.0838479246304 4743.847043141637
924.0081020471061 4801.708808794237
924.9321257881656 4631.180380160017
925.8559192158464 4654.072318231331
926.7794823981512 4653.593339400915
927.7028154030686 4603.772080559611
928.6259182985414 4537.05188388512
929.5487911524906 4692.370863827621
930.4714340328119 4712.843887671412
931.3938470073608 4491.24168339479
932.3160301439748 4560.835092823118
933.2379835104548 4625.994361453775
934.1597071745709 4695.074722890727
935.0812012040769 4596.810360942667
936.002465666681 4710.806660865355
936.9235006300696 4665.518279980812
937.8443061619055 4620.787648187023
938.7648823298077 4547.29005940971
939.6852292013809 4523.804596317068
940.6053468441951 4666.346952210823
941.5252353257874 4550.547082284521
942.4448947136698 4563.066670244344
943.364325075323 4557.652606044374
944.2835264782043 4623.151575994596
945.2024989897309 4568.93214798515
946.1212426773054 4559.145308422514
947.0397576082851 4603.815007016437
947.9580438500125 4727.326958456985
948.8761014697939 4684.858393425189
949.7939305349064 4640.528729929252
950.7115311125999 4492.026664105273
951.6289032700952 4486.305419736242
952.5460470745875 4612.877788221785
953.4629625932339 4529.5355505169155
954.3796498931715 4569.248957238272
955.2961090415029 4623.626694579479
956.2123401053068 4628.917988038889
957.1283431516276 4541.498787876235
958.0441182474842 4491.190416923428
958.9596654598663 4631.8007666648655
959.8749848557309 4577.845705102756
960.7900765020167 4478.035836151166
961.7049404656209 4537.20496160798
962.6195768134185 4539.339323519942
963.5339856122537 4553.628231271196
964.4481669289453 4609.921688354542
965.3621208302793 4579.867368466338
966.2758473830145 4473.667185800038
967.1893466538822 4693.169272880878
968.1026187095813 4558.867822265063
969.0156636167867 4538.396787180576
969.9284814421426 4629.888552141322
970.8410722522622 4538.869890498673
971.753436113735 4501.492416559382
972.6655730931161 4525.818305109836
973.5774832569368 4558.910845437918
974.4891666716958 4507.914225467071
975.4006234038698 4431.030806086992
976.3118535198955 4460.765028051529
977.2228570861935 4612.74385783071
978.1336341691494 4636.06110562584
979.0441848351202 4418.618065906449
979.9545091504333 4556.923675725497
980.864607181391 4540.6522049663545
981.7744789942699 4573.558709209975
982.6841246553086 4502.47635422243
983.5935442307236 4556.213637732072
984.5027377867027 4568.852546537977
985.4117053894024 4632.978238510875
986.3204471049557 4518.779762828169
987.2289629994648 4633.148295928599
988.1372531390007 4676.777578999892
989.0453175896091 4624.0599544690995
989.9531564173067 4668.325229925273
990.860769688079 4558.046937731968
991.7681574678918 4595.512473725964
992.6753198226706 4693.4725665767855
993.582256818323 4559.097497309686
994.4889685207218 4566.702390760615
995.3954549957143 4815.231594367799
996.301716309119 4705.567014810596
997.2077525267232 4661.611267543383
998.1135637142943 4618.238852212538
999.0191499375615 4787.98391318894
999.924511262232 4811.106774101952
1000.8296477539861 4778.122720301757
1001.7345594784656 4766.285074062829
1002.6392465012996 4724.062212692303
1003.5437088880753 4824.741288457877
1004.4479467043584 4832.735169683865
1005.3519600156869 4640.541260464241
1006.2557488875718 4854.291054925579
1007.1593133854858 4815.24888625719
1008.0626535748888 4647.4188808586705
1008.9657695212009 4611.25649282933
1009.8686612898182 4893.58528208436
1010.7713289461135 4808.639918449504
1011.6737725554212 4680.773559209434
1012.5759921830577 4659.814515506807
1013.4779878943027 4721.444591547528
1014.379759754418 4830.641167459331
1015.2813078286254 4634.835187035825
1016.18263218213 4570.01701656602
1017.0837328801026 4599.439213973142
1017.9846099876886 4665.9797549707455
1018.8852635700023 4637.735369523251
1019.7856936921362 4484.889380742191
1020.6859004191447 4646.537183871543
1021.5858838160675 4548.888617412714
1022.4856439479063 4461.23418134423
1023.3851808796389 4472.993126228635
1024.2844946762143 4548.307364131513
1025.183585402554 4581.460242957514
1026.082453123554 4292.959771967598
1026.9810979040776 4420.713210931852
1027.8795198089647 4352.356002083235
1028.777718903024 4415.5889366978845
1029.6756952510368 4336.899669101258
1030.5734489177648 4356.15358672359
1031.4709799679313 4332.0613165810655
1032.3682884662358 4508.0933837572475
1033.2653744773506 4223.290322146936
1034.1622380659192 4297.217176406133
1035.058879296559 4400.319805081437
1035.9552982338591 4445.874555266912
1036.8514949423825 4339.146537099253
1037.7474694866614 4365.349854185528
1038.6432219312028 4336.885977157882
1039.5387523404825 4568.79517534933
1040.4340607789582 4435.70766726051
1041.3291473110476 4435.393492589357
1042.2240120011465 4566.018794376016
1043.1186549136273 4591.675372064541
1044.0130761128294 4488.910848699337
1044.9072756630649 4477.4503371147475
1045.8012536286205 4632.72595242699
1046.6950100737577 4677.286806285781
1047.588545062701 4691.423528248901
1048.481858659663 4617.759808736637
1049.3749509288118 4816.613394760847
1050.2678219343034 4772.02831949248
1051.1604717402515 4756.414875875312
1052.0529004107575 4630.65737399807
1052.9451080098825 4768.204234771566
1053.8370946016694 4760.333973604962
1054.7288602501267 4792.328126496311
1055.6204050192446 4715.762304600421
1056.511728972977 4781.741871996237
1057.402832175254 4773.2513647632995
1058.2937146899785 4601.831377179299
1059.1843765810263 4591.194454547618
1060.0748179122456 4730.490414393667
1060.9650387474576 4617.229242211394
1061.855039150456 4686.139787682646
1062.7448191850071 4644.10653295974
1063.6343789148505 4680.486926403254
1064.5237184037014 4770.189075159454
1065.412837715241 4585.693874722188
1066.3017369131267 4601.004507204298
1067.190416060992 4540.880457570589
1068.0788752224398 4526.563099585228
1068.9671144610438 4497.311091833399
1069.8551338403558 4586.600868063559
1070.7429334239023 4571.670773283184
1071.6305132751695 4473.114308072326
1072.517873457633 4482.209002190817
1073.4050140347335 4488.059846466084
1074.2919350698776 4443.683862564174
1075.1786366264623 4478.701885321176
1076.0651187678395 4402.758458434878
1076.95138155735 4330.740929810386
1077.8374250582929 4359.119577821801
1078.7232493339507 4415.274512983811
1079.608854447577 4294.420984541841
1080.4942404623907 4226.570934732535
1081.3794074415982 4327.673783360227
1082.2643554483657 4319.797299456493
1083.149084545841 4234.329414106223
1084.033594797138 4212.138056813147
1084.9178862653516 4187.217983928133
1085.8019590135427 4373.232867779792
1086.6858131047484 4101.5506164191565
1087.5694486019802 4217.50875128094
1088.4528655682225 4165.646879896344
1089.3360640664287 4313.843672841258
1090.2190441595321 4198.955974732313
1091.1018059104317 4143.599076726571
1091.98434938201 4219.131183168845
1092.866674637111 4300.676623944162
1093.748781738559 4135.785148902725
1094.6306707491512 4062.244229795956
1095.5123417316554 4148.536415653808
1096.3937947488157 4129.39142562077
1097.2750298633455 4103.3914998695145
1098.156047137938 4040.467028642931
1099.0368466352556 4177.261075728639
1099.9174284179317 4286.850239878847
1100.7977925485757 4044.888416151808
1101.6779390897755 4110.75063569529
1102.5578681040806 4135.819333315316
1103.4375796540226 4176.836676385338
1104.3170738021054 4150.111425292945
1105.1963506108077 4011.5089239179497
1106.0754101425773 3976.825935884276
1106.9542524598382 4153.2257399486
1107.8328776249855 4031.658165060274
1108.7112857003904 4053.7259435735446
1109.5894767483987 4065.014681291901
1110.4674508313292 4241.075150682158
1111.3452080114657 4134.030117411889
1112.2227483510815 4256.772893460038
1113.1000719124077 4300.1094506265845
1113.9771787576592 4334.799632737113
1114.854068949022 4259.370631348801
1115.7307425486542 4353.391067681518
1116.6071996186893 4431.90805962349
1117.483440221229 4627.083445217165
1118.3594644183577 4412.477307170751
1119.235272272128 4507.6676684960985
1120.1108638445658 4656.465521270935
1120.9862391976712 4805.670662689992
1121.8613983934229 4734.763863110323
1122.7363414937627 4802.253874986231
1123.6110685606182 4767.9060962182675
1124.485579655884 4973.535863395412
1125.359874841426 4918.867477202383
1126.2339541790916 4956.269357211499
1127.1078177306936 5189.716120050499
1127.9814655580267 4972.879350955556
1128.854897722851 4980.3999826046065
1129.7281142869106 5062.812484670472
1130.6011153119125 5018.802796051497
1131.473900859548 5279.602033039291
1132.3464709914697 5107.956339804745
1133.2188257693178 5055.171839588198
1134.0909652546961 4988.606299358575
1134.96288950919 4954.350021157256
1135.8345985943506 5020.692495809572
1136.7060925717087 4843.499767554031
1137.57737150277 4912.162479584052
1138.4484354490069 4915.94283566038
1139.3192844718778 4758.712117874018
1140.1899186327992 4618.881792121572
1141.060337993178 4734.250997973402
1141.930542614382 4642.370986568505
1142.8005325577597 4485.26504215599
1143.670307884635 4382.198366498054
1144.5398686563003 4436.678759213723
1145.409214934025 4429.278293878997
1146.2783467790541 4219.9748072482025
1147.1472642526023 4298.32378331273
1148.0159674158622 4332.740450575146
1148.8844563300026 4120.326502460846
1149.7527310561618 4093.2750366170476
1150.6207916554504 4086.2212090744965
1151.4886381889592 3949.724096245807
1152.3562707177498 4096.258185912196
1153.2236893028585 3969.6505310091
1154.090894005296 3959.352153299853
1154.9578848860474 3921.2896045242633
1155.8246620060709 4002.44299213055
1156.6912254262988 3762.7501597728988
1157.5575752076438 3838.7581431718404
1158.42371141098 3968.5243393107885
1159.2896340971656 3929.9569359559255
1160.1553433270346 3852.3280786261735
1161.0208391613887 3871.5552989471944
1161.8861216610057 3833.034341022097
1162.75119088664 3911.6764756092716
1163.6160468990201 3853.954417958316
1164.4806897588442 3771.9544826455726
1165.3451195267917 3930.548560177561
1166.2093362635114 3871.4187420079775
1167.0733400296285 3823.764085777237
1167.9371308857444 3778.952522208564
1168.8007088924278 3742.9460121156894
1169.6640741102328 3803.4745055694366
1170.5272265996773 3697.3024404573152
1171.390166421259 3785.544717129779
1172.252893635452 3859.1821036228393
1173.1154083026995 3979.1453960923923
1173.977710483421 3917.624502493013
1174.8398002380145 3691.5414592432803
1175.7016776268483 3812.284081442341
1176.563342710264 3808.7466938376538
1177.4247955485826 3816.6013685085404
1178.2860362020947 3899.567927884627
1179.147064731069 3720.2095720456664
1180.0078811957483 3888.662125711252
1180.8684856563486 3872.262143672029
1181.7288781730604 3921.8995230858627
1182.589058806052 3935.338852656435
1183.4490276154593 4091.9219407649775
1184.3087846614017 3870.5391268487024
1185.1683300039676 3971.4421722417746
1186.027663703222 4161.363043741626
1186.8867858192025 3884.264395160698
1187.7456964119228 3993.6077985170605
1188.6043955413716 4073.978065083935
1189.4628832675116 4132.686566809575
1190.3211596502842 4265.007203172073
1191.179224749596 4159.895701785405
1192.0370786253388 4053.1769831666497
1192.8947213373758 4308.435263648292
1193.7521529455407 4405.093684908451
1194.6093735096438 4190.1132809646415
1195.466383089477 4176.50729478369
1196.3231817447977 4252.185736199787
1197.1797695353398 4413.77457439415
1198.0361465208189 4180.2878835583115
1198.8923127609214 4245.763538330799
1199.7482683153048 4336.030663938058
1200.6040132436028 4490.028575545446
1201.459547605431 4365.790579254618
1202.3148714603722 4347.1189543523315
1203.1699848679855 4366.370420133942
1204.0248878878065 4462.257453867916
1204.8795805793507 4142.591947189427
1205.7340630020935 4349.073684080922
1206.5883352155033 4387.484377663569
1207.4423972790064 4343.056794578324
1208.2962492520237 4195.663945438644
1209.1498911939307 4202.50874956452
1210.0033231640937 4251.140978646862
1210.8565452218427 4161.768449143212
1211.7095574264913 3938.378092298207
1212.5623598373222 4041.3974500271593
1213.4149525135963 3980.7863740434173
1214.2673355145507 4088.387744115708
1215.1195088993936 3921.272964729028
1215.9714727273113 3930.9916644536215
1216.8232270574663 4069.0775204343263
1217.6747719489904 3789.782106281001
1218.5261074609934 3825.282049394278
1219.3772336525653 3894.0842876164306
1220.2281505827668 3912.922830768999
1221.0788583106296 4003.8458636876603
1221.9293568951707 3790.696538927509
1222.7796463953746 3697.2321482026236
1223.629726870202 3878.695507306301
1224.4795983785934 3821.093864263188
1225.3292609794553 3785.928715439244
1226.1787147316809 3567.2847175134666
1227.0279596941327 3788.1669774651104
1227.8769959256424 3674.399947159306
1228.7258234850306 3812.3207840280375
1229.5744424310833 3556.3326233067937
1230.422852822563 3796.351644662569
1231.2710547182105 3926.4781145388833
1232.119048176739 3702.1815651150923
1232.9668332568417 3600.786732563415
1233.8144100171812 3810.449486268363
1234.6617785163999 3712.9168835200535
1235.508938813111 3534.942574538241
1236.3558909659114 3586.6789907820507
1237.2026350333617 3786.807415594686
1238.049171074008 3813.3677159214576
1238.8954991463652 3629.377086318708
1239.741619308932 3743.243633907725
1240.587531620169 3728.9120893624627
1241.4332361385277 3713.5790186094805
1242.2787329224248 3631.53754936659
1243.1240220302534 3659.4434968398464
1243.9691035203869 3620.6252215464324
1244.813977451171 3787.62851299349
1245.6586438809263 3741.1126480659273
1246.5031028679496 3498.4392342344217
1247.3473544705157 3749.5178847989387
1248.1913987468706 3644.212871147322
1249.0352357552383 3555.029086644366
1249.8788655538228 3595.844816943086
1250.7222882007918 3754.364855122596
1251.565503754302 3736.507082289468
1252.4085122724755 3455.774757496606
1253.2513138134182 3809.6479895259654
1254.0939084352049 3610.0515221284004
1254.9362961958905 3617.8907387686195
1255.7784771535007 3618.103869584681
1256.6204513660432 3710.452450462569
1257.4622188915 3813.400196722128
1258.3037797878242 3664.522082310034
1259.1451341129468 3534.5525380386084
1259.9862819247755 3732.281506625592
1260.8272232811978 3603.968832897168
1261.6679582400666 3789.1028269573035
1262.5084868592203 3483.396123932505
1263.34880919647 3525.5805017853572
1264.1889253095997 3629.5896165086365
1265.0288352563712 3749.5424543204326
1265.8685390945266 3556.0243893009983
1266.7080368817751 3722.669227542511
1267.5473286758115 3799.551056641686
1268.386414534294 3669.9725813829587
1269.2252945148703 3427.3552735533995
1270.0639686751547 3556.718120515573
1270.9024370727402 3539.5215398606915
1271.7406997651997 3568.427121307091
1272.5787568100714 3440.0702357423193
1273.4166082648808 3480.576961555231
1274.2542541871244 3517.7640618330124
1275.091694634275 3707.157818019115
1275.9289296637817 3370.5096440255256
1276.7659593330663 3621.537758898177
1277.6027836995308 3519.00245543759
1278.4394028205552 3640.1227313630043
1279.2758167534867 3557.895642152882
1280.112025555658 3508.8789739592794
1280.9480292843746 3572.792904048558
1281.7838279969128 3357.9768164288207
1282.6194217505326 3528.7907217167785
1283.4548106024686 3349.0571380173706
1284.289994609926 3494.3811536245594
1285.1249738300921 3667.318546036792
1285.959748320127 3421.446016259169
1286.7943181371702 3561.055456083347
1287.6286833383328 3387.5668069037383
1288.4628439807038 3603.353846768727
1289.2968001213521 3515.8077345615575
1290.1305518173194 3551.1469585395
1290.9640991256183 3579.138464279834
1291.7974421032523 3493.13306775137
1292.630580807183 3434.9452169937695
1293.463515294361 3572.040449835475
1294.29624562171 3628.554020724543
1295.12877184613 3481.9721790847516
1295.961094024493 3458.52195107993
1296.79321221365 3575.837893680656
1297.6251264704333 3561.819406808577
1298.4568368516466 3744.780313736129
1299.2883434140658 3584.7391729941255
1300.1196462144526 3451.68776782507
1300.9507453095375 3681.274970300173
1301.7816407560313 3675.811489596511
1302.6123326106172 3655.4378968934616
1303.4428209299622 3603.176469785359
1304.2731057707024 3830.844350540136
1305.1031871894502 3562.6612173174494
1305.933065242798 3733.7478029038116
1306.7627399873181 3663.745746217869
1307.5922114795467 3951.6491483059954
1308.4214797760123 4062.7815451422675
1309.2505449332057 3727.5969168572155
1310.0794070076026 3793.8976503277445
1310.9080660556538 3881.780550037644
1311.736522133786 3971.197317082681
1312.5647752983987 3660.5703510292287
1313.3928256058734 3602.40481501779
1314.2206731125661 3787.2266798834016
1315.048317874809 3806.571650048555
1315.8757599489109 3828.4786012996838
1316.7029993911547 3802.000616188092
1317.5300362578055 3952.1966948313247
1318.356870605101 3664.6678380770195
1319.183502489257 3765.5461554282047
1320.0099319664623 3860.5822446804837
1320.836159092889 3828.780736366748
1321.66218392468 3938.4358546778312
1322.4880065179532 3685.21785653952
1323.3136269288134 3933.7704795101063
1324.1390452133292 3928.7805231684893
1324.9642614275563 3987.414095218345
1325.7892756275214 3823.6639297763313
1326.6140878692295 3706.440046619523
1327.4386982086617 4158.132259744248
1328.2631067017755 3811.008592964679
1329.0873134045069 3955.142090478754
1329.911318372764 3833.4042962443614
1330.735121662441 3879.120724103591
1331.558723329399 3782.379989324466
1332.3821234294774 3769.9045820493616
1333.2053220185007 3835.7629810231238
1334.0283191522612 3802.1434006476693
1334.851114886529 3954.2990954097127
1335.6737092770582 3681.4429498274394
1336.4961023795695 3771.1432484381776
1337.3182942497697 3689.82471835377
1338.1402849433325 3838.0130148796475
1338.962074515921 3653.3323384814807
1339.7836630231632 3628.7419909850096
1340.6050505206676 4032.77539869313
1341.426237064028 3923.374442047139
1342.2472227088037 3685.1946752367658
1343.0680075105338 3614.6582061777726
1343.888591524741 3761.2958206961616
1344.7089748069138 3764.729753818953
1345.5291574125276 3713.2362361316473
1346.3491393970307 3577.127484118817
1347.168920815846 3768.7805424304424
1347.9885017243778 3817.3526767904796
1348.8078821780036 3665.8513119206123
1349.6270622320844 3695.0754633921497
1350.4460419419447 3532.2291580518277
1351.2648213629054 3710.2900394209487
1352.0834005502438 3502.8706538822
1352.90177955923 3636.853236365377
1353.7199584451064 3726.7178128309306
1354.5379372630887 3706.052352136988
1355.355716068374 3571.4903630948806
1356.1732949161305 3523.1697579586885
1356.9906738615155 3655.041519174991
1357.8078529596478 3635.783756649129
1358.6248322656375 3716.824265768868
1359.441611834567 3553.390604123485
1360.2581917214866 3716.6927799576792
1361.0745719814367 3623.556804119055
1361.890752669433 3544.9785694943703
1362.7067338404577 3543.693610687859
1363.5225155494845 3737.059595580293
1364.3380978514506 3743.1485850725176
1365.1534808012839 3430.8509416964334
1365.9686644538815 3289.8870235046115
1366.783648864117 3775.6564961079193
1367.5984340868417 3737.3816179232062
1368.413020176893 3609.812549065546
1369.2274071890715 3416.6197308049946
1370.0415951781652 3720.7663738296287
1370.8555841989346 3594.5872767990104
1371.6693743061223 3425.013941122294
1372.48296555444 3326.4348730405172
1373.2963579985844 3612.682316275106
1374.1095516932255 3580.593327414638
1374.9225466930166 3346.945922380198
1375.7353430525782 3537.6621729649983
1376.5479408265164 3455.367795966916
1377.36034006941 3629.8799328816444
1378.1725408358216 3601.04010661349
1378.9845431802805 3423.006424209976
1379.796347157304 3797.938286013848
1380.6079528213813 3580.194715957468
1381.4193602269788 3426.4587451864986
1382.230569428546 3458.5019351665883
1383.0415804805016 3667.547445559245
1383.852393437246 3563.4635096007505
1384.6630083531563 3546.775103378044
1385.4734252825892 3393.588213992418
1386.2836442798798 3480.9949873172727
1387.0936653993322 3573.2792523900753
1387.9034886952395 3425.605388297388
1388.713114221864 3524.810983525241
1389.5225420334482 3565.881443548118
1390.331772184214 3478.126704579537
1391.1408047283585 3253.2940921784916
1391.9496397200564 3436.517752828929
1392.758277213461 3600.4276944564945
1393.5667172627054 3670.4817860483554
1394.3749599218918 3488.3144074502648
1395.1830052451114 3333.4944476762953
1395.9908532864265 3477.3874695709246
1396.7985040998774 3621.347490554964
1397.6059577394808 3361.9392489564184
1398.4132142592352 3401.0214456013955
1399.2202737131156 3376.8829189002427
1400.027136155073 3611.698709227296
1400.8338016390353 3375.656099714974
1401.6402702189134 3385.7558410801844
1402.446541948586 3616.9956878009953
1403.2526168819204 3427.167460038444
1404.058495072757 3325.375249499511
1404.8641765749107 3415.0647800636734
1405.6696614421799 3466.4006872922487
1406.4749497283356 3818.1189108561944
1407.280041487129 3267.6547679056685
1408.084936772295 3245.662767462779
1408.8896356375335 3476.585702935269
1409.6941381365323 3443.111143006897
1410.498444322955 3178.518254367394
1411.3025542504402 3341.5099318200582
1412.106467972606 3348.5449218042404
1412.9101855430508 3452.870359234768
1413.7137070153458 3101.246900965364
1414.5170324430437 3272.725534942165
1415.320161879672 3335.999849780744
1416.1230953787435 3496.877617883894
1416.925832993742 3111.6493082364605
1417.7283747781275 3024.926317619059
1418.5307207853439 3306.098459251955
1419.3328710688093 3204.881999730103
1420.134825681922 3021.043096006396
1420.9365846780584 3078.0749326567143
1421.7381481105713 3398.3179361976313
1422.539516032788 3220.1986067278244
1423.3406884980232 3000.7308906386934
1424.1416655595604 2963.419052556615
1424.942447270665 3044.7273814104583
1425.7430336845828 3244.438060208585
1426.5434248545298 2965.462510945028
1427.3436208337116 3178.2498826197034
1428.143621675301 3107.7467023189847
1428.9434274324558 3263.9138609012152
1429.7430381583108 2866.423273289231
1430.5424539059713 3088.3569133138776
1431.3416747285337 3520.9530691622685
1432.1407006790632 3273.3079421257603
1432.9395318106053 3071.8668339847745
1433.7381681761835 2915.0592044889927
1434.5366098288014 3062.0053365210697
1435.3348568214424 3140.8026888433956
1436.1329092070573 2911.49385589336
1436.9307670385879 3082.9561974904905
1437.7284303689503 3143.1205058932605
1438.5258992510335 3249.3667330580165
1439.3231737377118 3093.1119958763534
1440.1202538818306 2973.587791179566
1440.9171397362225 3045.0656489835956
1441.7138313536925 3046.185956410383
1442.5103287870243 2911.6834566126204
1443.3066320889775 2906.444011194845
1444.1027413122956 3170.280801618891
1444.8986565096966 3025.596866958599
1445.694377733882 2986.981058851548
1446.4899050375207 2869.0312980322233
1447.2852384732687 2913.069215265258
1448.0803780937622 3166.074000543568
1448.8753239516063 2848.628085407133
1449.6700760993954 2694.479065267504
1450.464634589689 2881.957124265314
1451.2589994750397 3222.9063004894515
1452.0531708079689 2799.8041891772546
1452.8471486409799 2807.038673034124
1453.6409330265524 3127.7696855669064
1454.4345240171442 2953.177507787781
1455.2279216651987 2778.9048291216127
1456.0211260231263 2925.529453892693
1456.8141371433194 3170.2544793342963
1457.6069550781594 3007.438504767603
1458.3995798799897 2783.5340506286675
1459.1920116011424 2898.806182684792
1459.98425029393 2725.609301073757
1460.7762960106338 2799.7102051025167
1461.5681488035225 2858.7514098212896
1462.3598087248392 2900.929472746981
1463.1512758268036 3077.071234845049
1463.942550161617 2842.515481375913
1464.7336317814625 2838.5815166912234
1465.524520738496 2907.5936743473508
1466.3152170848552 2850.5593467066215
1467.1057208726506 2891.6128642588055
1467.8960321539817 2802.8541305611498
1468.6861509809169 2718.564367222395
1469.4760774055085 2755.8202677532804
1470.265811479785 2862.6717815745274
1471.055353255755 2755.5926477538314
1471.844702785409 2661.2403395520714
1472.6338601207044 2723.410964008165
1473.4228253135934 2880.7853148293825
1474.2115984159936 2655.0821780735073
1475.0001794798063 2549.1545633559917
1475.7885685569145 2778.941051095911
1476.576765699172 2745.0378015106467
1477.3647709584238 2758.8254352963613
1478.1525843864802 3017.089655736689
1478.9402060351367 2793.346067149024
1479.7276359561693 2838.741137849675
1480.514874201328 2739.42092694901
1481.3019208223468 2686.510441629591
1482.0887758709323 2559.0295427488245
1482.8754393987747 2874.7407362908025
1483.6619114575406 2636.039330906035
1484.4481920988783 2794.2041121199986
1485.2342813744108 2851.381123318508
1486.0201793357446 3021.855633154383
1486.8058860344572 2679.3032646131733
1487.591401522117 2704.1366246577822
1488.3767258502594 2717.781469268804
1489.1618590704056 2812.8406113350843
1489.9468012340494 2524.7157958947164
1490.7315523926754 2874.901098782681
1491.5161125977356 2932.12776975845
1492.3004819006637 2916.124247575594
1493.084660352877 2641.44119906958
1493.8686480057622 2834.3975643528433
1494.6524449106964 3097.9386884900823
1495.4360511190262 3043.022087454869
1496.219466682087 2820.817726098964
1497.0026916511779 2848.1377883295618
1497.7857260775945 2821.0765220147905
1498.5685700125996 2970.465329432073
1499.3512235074395 2605.8300398447673
1500.133686613337 2689.4120712379095
1500.9159593814966 2782.13479512049
1501.698041863101 3208.488561769476
1502.4799341093094 2651.3696462507705
1503.2616361712662 2557.222990367121
1504.043148100087 2820.110156718373
1504.8244699468742 2885.088827901656
1505.6056017626997 2704.107664208789
1506.3865435986281 2643.4718355454925
1507.1672955056893 2841.6487351117166
1507.9478575348967 2625.3974505269816
1508.7282297372512 2913.50776059735
1509.5084121637192 2743.387755863969
1510.2884048652577 2749.050698698502
1511.0682078927948 2685.9492291487277
1511.8478212972423 2698.2995285051884
1512.6272451294917 2677.568058428389
1513.4064794404076 2781.6649811683105
1514.1855242808433 2868.006265916005
1514.9643797016215 2677.025566978068
1515.743045753552 2850.1814287897205
1516.5215224874191 2830.0408557261026
1517.2998099539836 2590.86847111358
1518.077908203999 2734.137375201582
1518.8558172881785 2737.6088333923153
1519.633537257234 2763.8423519785715
1520.4110681618404 2849.4675373614473
1521.1884100526604 2769.8269253234407
1521.9655629803365 2640.6047942241607
1522.7425269954856 2878.821560003117
1523.5193021487103 3064.7291276257088
1524.2958884905856 2687.830443919545
1525.0722860716687 2783.021131647002
1525.848494942502 2740.8671183644524
1526.624515153595 2793.7722539113247
1527.4003467554485 2847.3382179955047
1528.175989798534 2867.143032897055
1528.9514443333064 2792.812498546821
1529.726710410203 3055.1283261053654
1530.5017880796331 2664.088480895379
1531.276677391992 2720.059695584649
1532.0513783976457 2973.4532032222223
1532.825891146953 2770.312977618807
1533.6002156902414 2919.5321924745876
1534.3743520778207 2796.3715772634905
1535.1483003599806 2826.4259758127164
1535.9220605869923 2919.6958585499406
1536.6956328091019 2854.102699162709
1537.4690170765407 2840.630055686785
1538.242213439511 2933.328752653273
1539.015221948208 2860.6305203267984
1539.78804265279 2784.779066609649
1540.560675603405 2719.985224338726
1541.3331208501804 3084.203714902359
1542.1053784432224 3059.122380202333
1542.8774484326168 2992.1022385238184
1543.649330868422 2909.2883253835535
1544.4210258006842 2889.328818721521
1545.1925332794308 2895.0068863296606
1545.9638533546604 2903.3560371217336
1546.7349860763552 2822.536231909978
1547.5059314944829 3135.3468415024863
1548.27668965898 3004.882218894836
1549.0472606197673 2954.4956168177296
1549.817644426752 2853.830139326642
1550.5878411298072 3096.494282622051
1551.3578507787988 2934.0556889055847
1552.1276734235635 2924.18968060507
1552.8973091139233 2878.395565240642
1553.6667578996767 3111.1649401623954
1554.436019830604 2943.041339256071
1555.20509495646 2881.9118812535303
1555.9739833269869 2885.652820911709
1556.7426849919011 2886.056278427264
1557.511200000903 3146.4319924954916
1558.2795284036674 3015.469075870845
1559.0476702498509 2880.413949070077
1559.8156255890954 3075.6351641667193
1560.5833944710157 3305.480425051115
1561.3509769452048 2928.03835925879
1562.1183730612447 2951.3680580728214
1562.8855828686865 3026.53373031681
1563.6526064170703 3298.218046228832
1564.4194437559127 3180.5081591887433
1565.1860949347047 2849.502777930193
1565.9525600029283 3223.7260145882674
1566.7188390100328 3239.8920337294535
1567.4849320054564 2996.0328826375726
1568.250839038612 2975.781164147017
1569.0165601588997 3054.7073605597952
1569.7820954156887 3191.337359269276
1570.5474448583373 2963.802189116746
1571.31260853618 2946.6613332490433
1572.0775864985299 2818.1827067452964
1572.8423787946813 3089.3119282991943
1573.6069854739108 2875.898051128338
1574.371406585471 3053.735517170082
1575.1356421785986 3126.994851584252
1575.899692302506 2904.8420974640358
1576.6635570063845 3075.7826678364067
1577.4272363394157 2976.694110774567
1578.190730350747 2815.2699890299086
1578.9540390895163 3058.019270094691
1579.7171626048384 2718.0499589904275
1580.480100945806 2776.7284317532703
1581.2428541614918 2917.3483775759355
1582.0054223009538 2961.3118614231107
1582.767805413223 2960.5713897747023
1583.5300035473156 2951.6569822360643
1584.292016752228 3302.7598927995946
1585.0538450769309 3056.135128027142
1585.8154885703807 2851.7096301556744
1586.5769472815136 2778.0505095796484
1587.3382212592405 2936.373732855671
1588.099310552463 3211.6938905394923
1588.8602152100484 3069.385975583699
1589.6209352808564 3023.4469996718003
1590.3814708137234 2954.47533435292
1591.14182185746 3075.4369797050085
1591.9019884608679 2913.6061202835576
1592.6619706727215 2710.0597096669503
1593.4217685417734 2995.7311359116675
1594.1813821167616 3211.8478815107737
1594.9408114464022 2818.697275394411
1595.7000565793933 2992.0277843565073
1596.459117564409 2985.936949212191
1597.2179944501113 2864.219586770308
1597.9766872851324 2831.7109905471198
1598.735196118092 3046.7729176484345
1599.4935209975883 3099.4004850444626
1600.2516619721973 3181.4489837624405
1601.0096190904787 2944.7054979929558
1601.7673924009723 2889.5344267017977
1602.524981952196 2896.715961073711
1603.2823877926476 2925.7626959566396
1604.0396099708087 2814.2599681226375
1604.7966485351371 2894.9306623719326
1605.5535035340745 2888.9194880206337
1606.3101750160404 3120.8960209144548
1607.0666630294363 2816.4982054069706
1607.822967622642 2810.1601152235103
1608.5790888440224 2962.0841096845966
1609.3350267419137 3128.7486825954206
1610.0907813646445 2884.0679332979
1610.8463527605145 2847.0871390711322
1611.601740977805 2971.920613949304
1612.356946064785 2933.3738181019294
1613.1119680696902 2682.4764162800084
1613.8668070407512 2856.209445493376
1614.6214630261748 2808.936669283239
1615.375936074137 2909.8105098936862
1616.1302262328118 2891.3364582298564
1616.8843335503425 2920.3987924661697
1617.638258074854 2760.1370437259707
1618.391999854457 2921.91185893044
1619.1455589372363 3022.7026912466704
1619.8989353712623 2836.928012284578
1620.65212920458 2574.0322225720756
1621.4051404852235 2756.2453302454032
1622.1579692611976 2742.6543247207564
1622.9106155804966 2667.4802166498644
1623.663079491087 2747.449622226116
1624.4153610409248 2927.569635545492
1625.1674602779385 2778.7236304343996
1625.9193772500403 2762.600337314803
1626.6711120051277 3018.837377723473
1627.4226645910676 2891.227257297956
1628.174035055721 2662.7987715916947
1628.9252234469168 2860.2386357359455
1629.676229812474 2780.3259903954668
1630.4270542001905 3248.64319605024
1631.1776966578382 2833.527828661893
1631.9281572331747 2810.80318282193
1632.678435973945 3122.053293196179
1633.4285329278573 2933.8171784069646
1634.1784481426203 2725.634341032953
1634.9281816659113 2831.937540951548
1635.677733545388 3054.9806028467597
1636.4271038286934 2924.1855056040727
1637.176292563452 3036.375294321654
1637.9252997972635 2885.7459119076657
1638.674125577716 3023.720974132332
1639.4227699523672 3315.539297551507
1640.171232968767 2686.9049821009276
1640.9195146744423 2966.153196103596
1641.6676151168977 3122.2975687171424
1642.4155343436178 3286.13842798249
1643.1632724020765 3006.1914109055697
1643.9108293397167 2945.1159168600097
1644.658205203974 2918.7612407276083
1645.4054000422566 2942.7338476171476
1646.1524139019566 2966.484638140988
1646.8992468304423 2884.174547050219
1647.6458988750728 2977.0722823918654
1648.3923700831765 3005.8871388613134
1649.1386605020743 3010.028349648367
1649.8847701790564 3235.5966116484574
1650.6306991614038 3058.5060674231418
1651.3764474963682 3175.6143988123617
1652.1220152311944 2812.4281805595597
1652.867402413096 3146.267904945539
1653.6126090892776 3135.2603981843577
1654.3576353069184 3175.0220037757094
1655.1024811131829 3026.52600293667
1655.8471465552066 3014.947986907888
1656.5916316801213 3167.216373066462
1657.3359365350298 3191.681159960727
1658.0800611670165 2902.2033400129153
1658.824005623148 3121.219505020031
1659.5677699504722 2959.406568941841
1660.3113541960192 3081.1778026215807
1661.054758406799 3070.6130203986763
1661.7979826297997 2796.3499894259944
1662.5410269119966 2878.1120963832573
1663.283891300338 3093.833547187382
1664.0265758417645 2882.343408739843
1664.7690805831826 2937.1960224650247
1665.5114055714948 3001.8922290978544
1666.2535508535748 3305.7663646712995
1666.9955164762814 2713.7114248330845
1667.7373024864555 2840.132339689814
1668.478908930916 2986.3986635772235
1669.220335856462 2776.8684798223508
1669.9615833098778 2835.536508525477
1670.7026513379296 2687.9977431320826
1671.44353998736 2846.254564454751
1672.1842493048916 2721.44864283781
1672.9247793372379 2733.4604751208453
1673.6651301310812 2782.824155816029
1674.4053017330934 2648.360203140498
1675.1452941899242 2997.5601837057898
1675.885107548207 2371.939931180702
1676.6247418545518 2477.5016705487483
1677.3641971555535 2591.7971986585294
1678.1034734977893 2746.320518473976
1678.8425709278108 2651.0431619802284
1679.5814894921605 2828.477739384035
1680.320229237359 2634.9343981287857
1681.0587902098978 2768.402307786587
1681.7971724562685 2623.291076361032
1682.5353760229264 2462.0846511495074
1683.2734009563173 2656.819024837524
1684.0112473028657 2362.6856368998333
1684.7489151089794 2541.0506031499003
1685.4864044210462 2626.533937697374
1686.2237152854377 2272.759075168592
1686.960847748498 2712.1644228457817
1687.6978018565642 2344.4225091516428
1688.434577655944 2389.2148826801117
1689.1711751929379 2417.490842039928
1689.9075945138156 2464.734143304068
1690.6438356648396 2372.540293370635
1691.3798986922448 2035.7510554101004
1692.1157836422499 2282.0577267613617
1692.851490561059 2246.6942571536997
1693.587019494853 2350.33567555783
1694.3223704897991 2138.0911246560327
1695.0575435920364 1982.3792308989862
1695.792538847696 2099.138683195188
1696.527356302886 2215.9548991539727
1697.2619960036936 1996.262793456824
1697.9964579961907 1992.1159432317636
1698.730742326432 1877.5287408872227
1699.4648490404488 1916.5926395389517
1700.1987781842563 2147.6413010037527
1700.9325298038548 2137.1494635553563
1701.6661039452174 2343.7465594713003
1702.3995006543082 2152.2360346459395
1703.1327199770658 2335.7704200447524
1703.865761959416 2000.9140940601112
1704.598626647261 2298.799273073851
1705.3313140864866 2048.260082429447
1706.0638243229587 2000.6719895262097
1706.7961574025303 2184.5297335361292
1707.528313371029 2049.184733203135
1708.260292274268 1837.4638077653049
1708.9920941580403 2095.3295224569347
1709.7237190681226 2139.6824057009608
1710.4551670502697 2015.2174756594213
1711.18643815022 1791.2804305391503
1711.9175324136959 1900.8229229008098
1712.6484498863938 2010.5328481450738
1713.379190614005 1778.1507219784446
1714.109754642188 1911.5404566559966
1714.8401420165883 1881.84489302513
1715.570352782839 2188.303507881879
1716.3003869865497 1996.0322277925588
1717.0302446733076 1916.6696433516688
1717.7599258886876 1989.230977305382
1718.4894306782444 2248.4334189493306
1719.2187590875183 1820.1870635851942
1719.9479111620203 2158.1087376192463
1720.6768869472544 1833.0081883937685
1721.4056864887025 2238.914924645896
1722.1343098318284 2282.070329282546
1722.8627570220742 2069.536536867324
1723.591028104871 1863.3691729899456
1724.3191231256242 1775.5062073502522
1725.0470421297232 1976.889351329651
1725.7747851625427 2019.6610398785572
1726.5023522694337 2060.066058184802
1727.2297434957363 1936.1454635421444
1727.9569588867635 1735.876330573708
1728.6839984878152 1665.10301294408
1729.4108623441734 1594.3308801606008
1730.1375505011038 1919.2349041553225
1730.8640630038426 1806.6278854611912
1731.5903998976264 1851.3891843800798
1732.316561227657 1984.2938109125785
1733.0425470391274 1753.129373924278
1733.7683573772065 1910.0279287370547
1734.4939922870508 1869.0290339919804
1735.2194518137949 1959.465087979428
1735.9447360025606 1931.2112305781307
1736.669844898439 1859.3024514199926
1737.3947785465189 1829.0700141408463
1738.1195369918605 1674.8993301910646
1738.8441202795093 1972.0429704253788
1739.5685284544943 1981.8946756359474
1740.292761561821 2019.190255782738
1741.0168196464838 1863.439452577569
1741.7407027534518 2043.8751754798554
1742.464410927687 2001.4049812282435
1743.187944214118 1767.888416983605
1743.9113026576688 1876.5954137480926
1744.634486303241 1858.0305727679577
1745.3574951957125 1904.163330592309
1746.0803293799509 2066.724553711006
1746.8029889008048 1815.2086565996287
1747.5254738031017 1922.645529424865
1748.2477841316504 1753.9693302822864
1748.969919931249 1885.5516829762407
1749.6918812466665 1865.7837448854466
1750.4136681226646 1990.7746667769673
1751.1352806039777 1856.395795757575
1751.856718735331 1574.3749824580996
1752.5779825614281 1663.0867473176088
1753.2990721269507 1930.9037619320195
1754.0199874765676 1927.653690297612
1754.7407286549314 1677.3022987806266
1755.4612957066693 1757.1175264443846
1756.1816886763954 1782.2712293497952
1756.9019076087097 1904.974273381617
1757.6219525481865 1897.0183265756434
1758.3418235393856 1871.6078010366844
1759.061520626854 1932.9280086040137
1759.7810438551096 1978.5104231645703
1760.5003932686614 1696.4191511127672
1761.2195689119999 2044.6051477513938
1761.938570829594 1869.8504227801454
1762.657399065898 1914.8394249360342
1763.376053665348 1631.6577331307517
1764.0945346723602 1661.8814029068174
1764.812842131334 1663.9548590011977
1765.5309760866512 1666.1452906270813
1766.2489365826787 1703.900814009828
1766.9667236637597 1780.4608046385304
1767.684337374223 1533.5106060819987
1768.401777758383 1599.1263904647185
1769.1190448605284 1693.4280187645425
1769.836138724937 1601.040767864592
1770.5530593958665 1750.3628994703565
1771.2698069175603 2084.221756577776
1771.9863813342326 2045.220682419697
1772.702782690094 1697.307121780992
1773.4190110293293 1952.2991490183922
1774.1350663961111 1795.448704158977
1774.8509488345844 1783.379531583871
1775.5666583888924 1819.8629471931004
1776.2821951031437 1976.164252690622
1776.9975590214362 1784.8121267074644
1777.7127501878585 1919.6823982819951
1778.4277686464684 1889.8609713414298
1779.1426144413108 1954.6682261955327
1779.8572876164162 1996.446045042148
1780.571788215797 1543.8951432979866
1781.2861162834415 1857.1802139031993
1782.0002718633277 1695.7392696366762
1782.7142549994132 1642.6690691074054
1783.4280657356376 1929.5473216449052
1784.141704115922 1643.2940008034413
1784.855170184177 1741.531780587426
1785.5684639842839 1841.4263518681933
1786.2815855601148 1528.2314379135285
1786.9945349555237 1831.9284476717803
1787.707312214343 1677.8358713819623
1788.4199173803918 1680.8284939153182
1789.132350497468 1683.9724440677746
1789.8446116093583 1776.584868938943
1790.556700759822 1667.1325801914877
1791.2686179926077 1671.4262639578042
1791.9803633514493 1753.9617610146565
1792.6919368800554 1430.5312445630045
1793.4033386221236 1798.67819262358
1794.1145686213295 1921.574970290007
1794.8256269213307 1960.4287399586706
1795.536513565774 1797.861786623406
1796.247228598284 1503.76656433949
1796.9577720624693 1647.3154620757298
1797.6681440019165 1696.6565583107354
1798.3783444602013 1718.9067959824176
1799.0883734808776 1833.3245167324174
1799.7982311074884 1808.6095872216051
1800.5079173835475 1867.8519405125703
1801.2174323525633 1927.0730517536715
1801.9267760580187 1586.5615651819282
1802.635948543386 1842.99114103927
1803.3449498521113 1547.3018058908679
1804.0537800276325 1912.338744215016
1804.7624391133668 1727.227272373409
1805.47092715271 1613.9814990781144
1806.1792441890484 1619.1785292815823
1806.8873902657433 1893.2102383126723
1807.5953654261448 1688.6624683107852
1808.3031697135812 1682.400253231844
1809.0108031713662 1574.698121141148
1809.71826584279 1693.9276278467685
1810.425557771141 1800.7683455970077
1811.1326789996747 2077.576647585978
1811.839629571632 1681.166130940527
1812.5464095302468 1702.8484383914324
1813.2530189187182 1626.036820948452
1813.959457780249 1768.6096497324645
1814.6657261580076 1844.4850490850786
1815.371824095153 1633.9301015271326
1816.0777516348262 1543.9815254199932
1816.78350882015 1453.9954560766703
1817.4890956942272 1409.5625901629987
1818.1945123001533 1653.0301358088886
1818.8997586809928 1670.700283440098
1819.6048348798067 1496.5250790463326
1820.3097409396287 1682.6054206536078
1821.0144769034796 1961.9209403061238
1821.7190428143622 1765.6198473535383
1822.423438715261 1782.2710801152268
1823.1276646491478 1771.9609293429035
1823.8317206589727 1674.1986953511182
1824.5356067876692 1704.0299316961577
1825.2393230781581 1716.1853937257813
1825.942869573335 1454.2954415863956
1826.646246316086 1601.7399981182646
1827.3494533492758 1686.1911338217246
1828.052490715756 1780.804493791657
1828.7553584583547 1708.076906285592
1829.458056619891 1681.6467750280306
1830.1605852431585 1603.0652526442668
1830.8629443709433 1499.2312786230514
1831.5651340460063 1638.8883403571035
1832.2671543110919 1530.0876846891529
1832.9690052089318 1731.647800923744
1833.6706867822395 1499.7866841485447
1834.3721990737104 1729.7243887297561
1835.0735421260233 1788.6592573746384
1835.774715981841 1549.3360174011189
1836.4757206838058 1582.177699867281
1837.1765562745459 1615.5329666354855
1837.8772227966747 1558.954411739561
1838.5777202927839 1626.1069447836067
1839.2780488054523 1552.2259711343072
1839.9782083772352 1574.0727652251987
1840.6781990506806 1882.6598442577592
1841.378020868313 1640.3624710523782
1842.0776738726418 1627.5589509116828
1842.777158106157 1437.0908653670454
1843.4764736113375 1608.5913049954959
1844.1756204306403 1718.2810834473635
1844.8745986065078 1678.3847270453323
1845.5734081813607 1525.1762611242266
1846.2720491976124 1671.8844517342454
1846.970521697649 1503.052745693936
1847.6688257238511 1712.001840373187
1848.3669613185684 1646.6083791123651
1849.0649285241452 1374.1619264660671
1849.7627273829057 1661.945354380047
1850.460357937156 1734.0456030823898
1851.1578202291857 1643.9792726572869
1851.8551143012664 1554.3146562166262
1852.5522401956569 1608.3655829236923
1853.2491979545957 1859.928271439237
1853.9459876203055 1531.4446790911793
1854.6426092349902 1531.2684842744354
1855.3390628408451 1551.1278816161955
1856.0353484800362 1939.553317491905
1856.7314661947203 1720.8354070505484
1857.4274160270397 1447.4026886119195
1858.123198019115 1600.7439640825467
1858.8188122130487 1460.9482512309744
1859.5142586509319 1538.3141161552771
1860.209537374838 1529.111527160238
1860.9046484268183 1597.0799593658876
1861.599591848917 1798.8198168283968
1862.294367683151 1569.0722766824142
1862.988975971528 1502.401602561632
1863.6834167560355 1652.24775245295
1864.3776900786452 1719.5849673112734
1865.0717959813119 1570.0779814586047
1865.7657345059724 1536.3351710149793
1866.4595056945564 1677.0836821709684
1867.1531095889586 1701.096311478476
1867.846546231076 1385.2564957766815
1868.5398156627743 1736.2918484092218
1869.2329179259123 1531.1919072694698
1869.9258530623283 1490.8931791715677
1870.618621113843 1450.4946476133268
1871.3112221222636 1431.4865042218628
1872.0036561293764 1525.7027795575054
1872.695923176956 1569.049255178518
1873.3880233067594 1757.5820145374314
1874.0799565605212 1427.9213082223523
1874.7717229799673 1607.8537949954032
1875.4633226068036 1855.9842533604703
1876.1547554827175 1726.8954923496312
1876.8460216493859 1542.8549699610778
1877.5371211484617 1556.4857341399409
1878.2280540215852 1776.2185285563041
1878.9188203103804 1457.1783389158852
1879.6094200564548 1501.7292524693971
1880.299853301396 1462.9887425925288
1880.9901200867826 1795.9341729325024
1881.6802204541673 1584.1732452571132
1882.3701544450942 1660.8610777052431
1883.059922101087 1345.4911117893798
1883.7495234636517 1407.8318760291927
1884.4389585742792 1470.2354194783786
1885.1282274744517 1433.7982465517339
1885.8173302056166 1497.1672229771852
1886.506266809225 1560.623116852365
1887.195037326701 1440.2583250746804
1887.8836417994517 1551.1593285471827
1888.5720802688702 1789.2168926316451
1889.260352776333 1767.2873092368245
1889.9484593632042 1738.2027503049806
1890.63640007082 1504.7837179027579
1891.3241749405151 1423.4901020204281
1892.0117840135954 1666.1317233772588
1892.6992273313572 1513.897071760522
1893.3865049350788 1371.2891151503004
1894.0736168660223 1494.7779444106875
1894.7605631654333 1618.408401127651
1895.4473438745408 1360.9365529108022
1896.133959034556 1765.8670550455276
1896.820408686679 1640.6398678584399
1897.506692872088 1796.9140789611415
1898.192811631945 1645.2657434102475
1898.8787650073991 1554.0248177580552
1899.5645530395832 1858.9054672808518
1900.2501757696118 1642.9247679476728
1900.9356332385796 1451.2102855441399
1901.620925487574 1505.4370496731049
1902.3060525576602 1559.8756224168496
1902.9910144898859 1669.474927454577
1903.6758113252872 1401.1711661245004
1904.3604431048789 1581.071132389201
1905.0449098696663 1699.442135653088
1905.7292116606295 1594.6026110830312
1906.4133485187394 1629.2413674182758
1907.0973204849488 1325.6794782898319
1907.7811276001976 1322.5213704784887
1908.4647699053967 1592.311521562809
1909.1482474414588 1556.758347095377
1909.8315602492694 1521.0603053588598
1910.5147083696957 1747.5021383344556
1911.1976918436012 1543.0034354712614
1911.880510711815 1431.955224834102
1912.5631650151681 1440.852652878969
1913.2456547944657 1449.7235686056597
1913.927980090495 1532.8246548481625
1914.6101409440362 1429.6269355637307
1915.2921373958416 1644.9114520480912
1915.9739694866603 1609.1530127552783
1916.655637257214 1837.8880458313968
1917.3371407482136 1562.5286984684858
1918.0184800003572 1822.139436930769
1918.6996550543154 1737.2551186187036
1919.3806659507554 1573.3301203540293
1920.0615127303208 1548.3351929468618
1920.7421954336423 1816.710330435832
1921.4227141013343 1756.3692138635095
1922.103068773993 1501.6215244251155
1922.783259492202 1614.0604556443852
1923.4632862965227 1483.752774309837
1924.1431492275078 1457.6713228875485
1924.8228483256917 1344.9579237149908
1925.5023836315922 1446.662373765292
1926.1817551857057 1659.1816076709251
1926.8609630285227 1405.5076788357135
1927.5400072005123 1652.1211432106024
1928.218887742125 1492.6647425514066
1928.8976046938005 1425.7337798064568
1929.5761580959588 1568.7970387190585
1930.2545479890086 1498.2528711779573
1930.9327744133352 1328.0082251658764
1931.6108374093164 1535.6317370463646
1932.2887370173066 1709.836284144691
1932.9664732776473 1657.5967882434961
1933.6440462306673 1605.1769490125203
1934.3214559166754 1462.3130877384604
1934.9987023759659 1918.9744802998168
1935.675785648813 1612.1962473015133
1936.3527057754836 1270.642602245284
1937.029462796223 1345.5389799977825
1937.70605675126 1420.6266570585908
1938.3824876808085 1386.99958965395
1939.058755625072 1435.2248967799428
1939.7348606242267 1521.7180323443874
1940.4108027184448 1443.2958495195721
1941.0865819478713 1551.9847922178901
1941.7621983526478 1435.138677851257
1942.4376519728921 1385.0542199545798
1943.1129428487038 1596.5971800671402
1943.7880710201734 1619.4741645828037
1944.4630365273733 1669.2605857050396
1945.1378394103576 1390.1147766432869
1945.8124797091714 1286.0796069227579
1946.4869574638324 1181.792910005689
1947.161272714353 1521.5408631772796
1947.8354255007234 1627.2341293344275
1948.5094158629272 1440.2359779172814
1949.1832438409183 1616.626679148315
1949.8569094746435 1623.884802040714
1950.530412804037 1768.7664961879666
1951.2037538690092 1569.5569952445935
1951.8769327094578 1472.8821289061652
1952.5499493652678 1469.2812720519082
1953.222803876306 1766.1020687976247
1953.895496282421 1637.0480660193623
1954.5680266234522 1603.1583624793047
1955.2403949392155 1553.5593981920433
1955.9126012695142 1461.9150062092235
1956.5846456541403 1500.8983338897503
1957.2565281328643 1407.1562886455138
1957.9282487454457 1715.8959802481647
1958.5998075316202 1555.79716543363
1959.27120453112 1397.4822008105234
1959.9424397836501 1577.8097277728436
1960.613513328908 1543.8026892772998
1961.2844252065697 1753.9728892082444
1961.9551754563017 1421.5662777212817
1962.6257641177453 1419.6599396963593
1963.29619123054 1312.4953470277674
1963.966456834296 1401.8568119473937
1964.6365609686181 1433.2029535872095
1965.306503673086 1646.7248393053565
1965.976284987275 1437.7281536180872
1966.645904950734 1489.7196898688221
1967.315363603002 1237.9299886693343
1967.9846609836077 1384.4912804086628
1968.6537971320486 1461.0189635995168
1969.3227720878222 1544.4493124538863
1969.9915858904042 1488.635177091183
1970.660238579252 1578.0589690144254
1971.3287301938108 1525.3080503214223
1971.997060773514 1522.1034851579375
1972.665230357772 1355.804844209124
1973.3332389859843 1338.969002824922
1974.0010866975335 1372.7719705373065
1974.6687735317864 1464.232226432949
1975.3362995280932 1623.3616336555483
1976.003664725793 1578.9963820197236
1976.6708691642052 1274.9181802482108
1977.3379128826364 1477.7781317121994
1978.004795920373 1656.906778601337
1978.6715183166925 1783.3802485560623
1979.3380801108524 1169.370596437469
1980.0044813420973 1560.0518265836436
1980.6707220496555 1123.9290055165836
1981.3368022727373 1572.2064820375958
1982.0027220505417 1558.4959709961654
1982.66848142225 1420.82216950088
1983.3340804270283 1282.983723305384
1983.999519104027 1425.6116364640177
1984.6647974923835 1514.3577349902564
1985.329915631215 1653.4902893110134
1985.99487355963 1386.6443098807993
1986.6596713167146 1647.5829217672685
1987.3243089415428 1273.330647662217
1987.9887864731754 1707.9332287408772
1988.6531039506553 1338.068404774871
1989.3172614130071 1333.6577254939257
1989.9812588992481 1329.2604214836233
1990.645096448372 1081.5771925571903
1991.3087740993633 1413.6665586137033
1991.9722918911848 1346.0507643605154
1992.635649862792 1446.722748520862
1993.2988480531185 1435.918747005518
1993.9618865010852 1399.2233080749772
1994.6247652455968 1362.5157366903193
1995.287484325545 1275.3811740444414
1995.9500437798033 1447.1269601926324
1996.6124436472292 1284.462262160324
1997.2746839666706 1347.847515680146
1997.936764776954 1411.398300981756
1998.598686116895 1321.9033983288184
1999.2604480252903 1607.621260202408
1999.9220505409212 1660.8084921996342
2000.5834937025593 1368.5698979474198
2001.2447775489582 1502.7314148742105
2001.9059021188514 1395.9816928958144
2002.5668674509616 1384.8036100679253
2003.2276735839987 1399.2859993766806
2003.8883205566508 1660.4844420711881
2004.5488084075987 1405.361593287628
2005.2091371755014 1391.8500280836965
2005.8693068990033 1236.6225616773424
2006.5293176167397 1250.046002967843
2007.1891693673224 1263.6051630538236
2007.848862189354 1180.8155021477937
2008.5083961214223 1418.8927842756407
2009.1677712020955 1329.0194030116697
2009.8269874699254 1299.4044007884208
2010.4860449634598 1290.6427802922187
2011.1449437212177 1281.9342759239044
2011.8036837817108 1664.2021947014248
2012.4622651834325 1617.4152119875014
2013.1206879648653 1514.9942358304809
2013.7789521644736 1355.0807460296214
2014.4370578207036 1543.275865182286
2015.0950049719922 1360.79199830264
2015.7527936567585 1542.1279832248292
2016.4104239134067 1284.544751779312
2017.067895780323 1832.1918908511725
2017.725209295886 1757.436221810239
2018.3823644984514 1682.4295919576984
2019.0393614263648 1459.5442332542937
2019.6962001179545 1368.984108055567
2020.3528806115355 1606.206089291796
2021.0094029454067 1436.683855770043
2021.6657671578487 1236.8198275766724
2022.321973287133 1225.7342140626818
2022.9780213715148 1214.6717910996338
2023.6339114492293 1425.682905260634
2024.2896435585026 1422.5649152513474
2024.9452177375442 1385.07481033442
2025.600634024544 1596.5177412167052
2026.2558924576842 1563.6101794083843
2026.9109930751292 1626.873455844033
2027.565935915025 1317.6372910515424
2028.2207210155066 1620.5316868917917
2028.8753484146964 1752.6453188150954
2029.529818150695 1739.2098908260098
2030.1841302615903 1725.6190140426163
2030.8382847854573 1333.888030887591
2031.4922817603601 1453.901213229715
2032.1461212243357 1487.5373790130313
2032.7998032154192 1181.1329723875583
2033.4533277716218 1338.2339013741034
2034.1066949309443 1404.3006281846988
2034.7599047313688 1294.4165133651986
2035.4129572108704 1605.767321757688
2036.0658524074006 1460.5014373578133
2036.7185903589016 1577.3471311528249
2037.3711711032956 1698.8616100913882
2038.023594678496 1491.7067728672048
2038.675861122394 1317.4657827697406
2039.3279704728757 1286.821470248311
2039.9799227678031 1256.2256897124294
2040.6317180450278 1430.8118086381355
2041.2833563423865 1377.1273593000599
2041.9348376977014 1768.050041002915
2042.5861621487784 1601.021469338936
2043.2373297334088 1665.3087593811542
2043.8883404893695 1487.471671874883
2044.5391944544208 1745.8220630098053
2045.1898916663158 1643.4080339387688
2045.8404321627804 1492.5582347953682
2046.4908159815368 1341.348596656238
2047.1410431602853 1304.0939829105714
2047.7911137367173 1309.300212258126
2048.441027748504 1562.2774936026121
2049.090785233302 1300.4703420524752
2049.7403862287592 1376.2553203958907
2050.389830772503 1313.4360373196785
2051.0391189021466 1250.5947059387322
2051.688250655294 1527.7912256472473
2052.337226069527 1245.2648815410412
2052.986045182417 1210.0950595534398
2053.634708031521 1174.973570664691
2054.283214654375 1496.1126596117108
2054.931565088511 1102.506174841733
2055.579759371436 1245.7603681944297
2056.2277975406523 1533.8667413992418
2056.8756796336384 1319.5270531022356
2057.5234056878617 1546.678607739426
2058.1709757407752 1405.299322983435
2058.8183898298194 1639.084815789507
2059.465647992416 1582.7928316772382
2060.1127502659747 1559.2181852931662
2060.759696687888 1535.0167436026718
2061.4064872955405 1510.8246983590072
2062.053122126292 1253.1913699529935
2062.699601217497 1507.9757645871105
2063.345924606485 1290.6611736004656
2063.992092330587 1440.8366290500085
2064.638104427102 1623.5250842200219
2065.283960933324 1436.291633929708
2065.92966188653 1592.494804629379
2066.5752073239855 1407.3982958033744
2067.2205972829397 1567.7242785452434
2067.86583180062 1402.3778869504063
2068.5109109142522 1316.5439684029493
2069.15583466104 1258.5331599365147
2069.8006030781708 1200.4696463541536
2070.445216202821 1280.778526299348
2071.089674072153 1544.6693058271453
2071.7339767233116 1709.586653051771
2072.3781241934303 1291.6603399941773
2073.0221165196253 1478.3439278769065
2073.6659537390024 1319.2218771384203
2074.3096358886505 1412.5150141992292
2074.953163005637 1420.2184329594902
2075.596535127028 1096.1818812759511
2076.2397522898664 1195.3387892745404
2076.882814531182 1442.4047186106914
2077.5257218879924 1460.5259330690137
2078.1684743973 1209.1081143804138
2078.8110720960885 1225.926454662685
2079.453515021336 1377.6778136215867
2080.095803209997 1529.5682171366911
2080.7379366990135 1363.6847835209653
2081.37991552532 1533.4751487032622
2082.0217397258275 1519.2801448281084
2082.6634093374414 1552.2998057719365
2083.3049243970418 1585.418258110381
2083.9462849415067 1539.1392644235168
2084.587491007689 1490.6138694427223
2085.2285426324324 1341.6889208187533
2085.869439852564 1378.6322155238481
2086.510182704902 1327.7883048544377
2087.1507712262483 1441.2248617938808
2087.791205453381 1524.1299888594835
2088.4314854230743 1607.140605029528
2089.0716111720867 1437.878703613645
2089.7115827371617 1169.635324789317
2090.351400155023 1245.035940622707
2090.991063462385 1320.6338888781981
2091.6305726959527 1181.007041068489
2092.2699278924047 1530.7741320942241
2092.9091290884153 1356.185802641635
2093.548176320641 1042.2306342663148
2094.187069625721 1532.240075656107
2094.8258090402887 1144.0382299423766
2095.464394600951 1616.4839204657494
2096.102826344313 1411.7483563405872
2096.741104306955 1557.8051132284897
2097.379228525453 1222.0248239914981
2098.017199036358 1164.5182671974148
2098.6550158762147 1601.892125433582
2099.2926790815527 1628.4220479883538
2099.9301886888825 1464.812356797394
2100.5675447347076 1344.5817711787993
2101.2047472555114 1572.092518715448
2101.841796287761 1423.275013315702
2102.47869186792 1557.652331352617
2103.1154340324265 1275.5233828555088
2103.752022817709 1224.6061715755504
2104.388458260184 1267.6039085057323
2105.024740396251 1386.9613120998686
2105.660869262292 1511.3749362775723
2106.296844894685 1289.8012872574539
2106.93266732978 1408.4689600229735
2107.5683366039284 1319.1838324868274
2108.2038527534532 1354.3487724209413
2108.8392158146726 1551.6128934553535
2109.4744258238843 1356.5403587529845
2110.1094828173755 1428.0443523882982
2110.744386831422 1413.6345253553375
2111.3791379022787 1399.2100526447034
2112.01373606619 1628.1094737342203
2112.648181359389 1382.3602632390307
2113.28247381809 1518.5688354994356
2113.916613478492 1480.4862481673072
2114.550600376786 1414.314512330088
2115.1844345491445 1435.4054431674554
2115.818116031729 1239.8986726609082
2116.451644860679 1167.5140165687585
2117.085021072133 1385.0684724401667
2117.718244702204 1325.3635734110178
2118.3513157869984 1274.031365155665
2118.984234362604 1317.8970476721145
2119.617000465092 1358.1133740735108
2120.249614130529 1331.022949559921
2120.8820753949585 1303.8920800193468
2121.5143842944162 1345.4351430520971
2122.14654086492 1318.4038488016756
2122.7785451424734 1597.380765392404
2123.4103971630702 1545.6430000922833
2124.042096962681 1493.9549779007396
2124.6736445772767 1435.4893599225175
2125.305040042802 1189.2518137296706
2125.936283395191 1445.581836871225
2126.567374670365 1438.8099673924744
2127.198313904233 1373.6285866912558
2127.8291011326855 1293.8623711361654
2128.4597363916037 1213.7755133447515
2129.0902197168507 1318.0293535496992
2129.720551144279 1204.5894885519558
2130.3507307097225 1621.3154788513027
2130.980758449008 1685.898636676217
2131.6106343979427 1673.8010004868033
2132.2403585923203 1661.603098849957
2132.8699310679276 1513.9287091852248
2133.499351860526 1470.9613936644344
2134.1286210058715 1455.4368423864332
2134.7577385397053 1553.6697055131397
2135.3867044977487 1652.080048381451
2136.0155189157176 1775.7333864858288
2136.644181829308 1600.4016195915308
2137.2726932742025 1327.1745839781547
2137.901053286074 1555.2314110348736
2138.5292619005777 1320.5792124713314
2139.1573191533535 1276.5131543988377
2139.7852250800315 1607.0992915993672
2140.4129797162295 1424.8323438698485
2141.0405830975433 1127.6140952273686
2141.6680352595613 1141.2961670546495
2142.2953362378576 1155.0174399492203
2142.9224860679915 1278.6893509258193
2143.549484785508 1314.0847933092844
2144.1763324259373 1272.324827337873
2144.803029024799 1362.2197276595841
2145.429574617594 1231.5509382315872
2146.0559692398165 1364.5703861380875
2146.682212926942 1205.5486832638035
2147.308305714432 1320.7460190826303
2147.9342476377333 1614.063311802265
2148.5600387322847 1784.2534785968314
2149.185679033506 1535.7651119691661
2149.8111685768017 1262.8459024461094
2150.4365073975678 1161.7926013357528
2151.061695531187 1114.3022868570567
2151.686733013021 1298.0506478308985
2152.311619878423 1482.250724765958
2152.9363561627342 1327.6255946107774
2153.560941901278 1176.4764714064781
2154.1853771293663 1478.962082165485
2154.809661882293 1457.0403900770773
2155.433796195348 1351.402460230359
2156.0577801037944 1696.5528385135797
2156.681613642895 1606.0144144285675
2157.3052968478896 1270.926305591212
2157.928829754006 1496.5604271570433
2158.552212396462 1566.6671512191892
2159.1754448104566 1481.1235024277746
2159.7985270311783 1199.7798271336037
2160.4214590938027 808.6112914487378
2161.0442410334927 915.0474964845855
2161.6668728853874 1050.1439512877605
2162.289354684628 1185.5247507733225
2162.911686466332 1341.8683122738619
2163.533868265602 1501.0611282162313
2164.1559001175337 1721.3954687158844
2164.7777820572046 1438.7242550542135
2165.399514119681 1385.329992843493
2166.021096340013 1168.1384542592857
2166.6425287532384 1495.4251898862567
2167.263811394385 1155.751406171525
2167.8849442984574 1166.6034169092386
2168.505927500455 1177.5971498771403
2169.126761035366 1519.6666418132334
2169.7474449381552 1264.079670293232
2170.367979243778 1403.177497390096
2170.9883639871823 1542.7105875101904
2171.608599203293 1309.9243665400477
2172.2286849270276 1680.9966934307563
2172.8486211932886 1860.8845898395853
2173.4684080369625 1369.181969077882
2174.0880454929265 1063.5134663341155
2174.7075335960417 976.3348764298174
2175.3268723811543 1021.8591406310125
2175.9460618831 1067.5127011657503
2176.565102136701 1403.0285075753825
2177.1839931767627 1400.886870439672
2177.802735038078 1398.7596937531289
2178.421327755432 1147.6843102262342
2179.0397713635866 1169.1831020538366
2179.658065897298 1237.4081646103957
2180.276211391305 1315.0972019827364
2180.8942078803357 1176.168101161045
2181.5120553991 1477.5314129876808
2182.129753982299 1072.8850981797482
2182.7473036646206 1377.4682549679424
2183.3647044807367 1606.1722618680114
2183.9819564653044 1472.177942258726
2184.599059652968 1337.9119929908036
2185.216014078367 1428.5880221923883
2185.832819776113 1554.5661641488455
2186.4494767808137 1680.7543941279666
2187.065985127063 1241.3200355693095
2187.682344849436 1238.4690065036598
2188.298555982501 1268.048144836939
2188.9146185608097 1297.5976010674506
2189.530532618901 1597.4525386253597
2190.1462981912937 1405.7185448568207
2190.761915312507 1438.191393166699
2191.377384017036 1399.9742066286042
2191.9927043393654 1463.9734665769665
2192.6078763139667 1643.434578514843
2193.2228999753006 1823.2944459644434
2193.837775357808 1457.4222108148556
2194.452502495922 1025.1202589343345
2195.0670814240602 1376.8367874718558
2195.6815121766285 1098.5025689644447
2196.2957947880186 1090.6865462568996
2196.9099292926057 1082.8585414461263
2197.523915724758 1558.4789619558494
2198.137754118825 1247.5906021532314
2198.7514445091456 1166.2643056908144
2199.3649869300443 1084.8039052644372
2199.9783814158327 1611.0934148473739
2200.5916280008096 1709.891737262916
2201.2047267192593 1623.3836913869523
2201.8176776054515 1399.3925892021634
2202.430480693649 1192.9002459979426
2203.0431360180955 1451.6444441590097
2203.6556436130195 1589.9834687729613
2204.268003512645 1157.2011579750165
2204.8802157511727 1239.7849019765688
2205.492280362796 1382.0718166134006
2206.1041973816937 1524.8075370489516
2206.715966842032 1393.8489227926536
2207.3275887779655 1450.587351311169
2207.93906322363 1415.9521663150024
2208.550390213153 1678.030567356221
2209.1615697806465 1407.7877632536479
2209.7726019602105 1221.4371671656463
2210.3834867859277 1082.5743606943959
2210.9942242918787 1287.9169522670538
2211.6048145121167 1369.0306943459623
2212.2152574806914 1927.826582014446
2212.825553231638 1279.7000642568723
2213.435701798975 2035.6928795151252
2214.045703216707 1416.9796517383766
2214.655557518832 1042.6723480885416
2215.2652647393297 988.3132788404713
2215.874824912169 1112.8079282091298
2216.4842380713 1202.1869518252836
2217.09350425067 1212.2083449162521
2217.7026234842033 1646.7590053636347
2218.311595805819 1544.7200453338799
2218.9204212494133 1385.2333525892384
2219.52909984888 1711.3131566132838
2220.137631638092 1053.4263405030974
2220.7460166509154 1597.3928481578857
2221.354254921198 1094.2067047879348
2221.9623464827764 1438.2369404739043
2222.5702913694713 1360.5615423804425
2223.178089615096 1286.3400910184887
2223.7857412534486 1211.9807880398448
2224.39324631831 1204.4596935605514
2225.000604843457 1168.0585842524292
2225.607816862641 1417.269434948334
2226.214882409611 1510.8360474795531
2226.8218015180973 1520.6179379166215
2227.4285742218217 1219.3550860265593
2228.0352005544864 1351.767321176684
2228.6416805497847 1294.5945505041325
2229.248014241399 1237.3287272759458
2229.8542016629945 1029.265940067796
2230.460242848223 1409.7822960051649
2231.0661378307304 1274.9235655291745
2231.671886644139 1139.941217814454
2232.277489322065 1056.3907628083764
2232.8829458981127 892.7916485791786
2233.48825640587 1408.3321221821877
2234.0934208789095 1784.8096320542688
2234.6984393507955 1576.2515661763557
2235.3033118550793 1508.8401027120694
2235.9080384252975 1326.146100954772
2236.5126190949723 1033.7401635377885
2237.1170538976166 1242.0271908771151
2237.721342866729 1080.7388559801097
2238.32548603579 1267.4737076899844
2238.9294834382763 1368.088245263075
2239.533335107646 1432.2015446012342
2240.1370410773434 1335.0441360638906
2240.740601380803 1142.3081153423286
2241.3440160514474 1447.335248894559
2241.9472851226783 1536.7315780928636
2242.550408627896 1387.9020772356007
2243.1533866004793 1319.1163643674013
2243.756219073799 1250.2352900216245
2244.3589060812064 1124.4467636124036
2244.961447656049 1262.7887195812625
2245.5638438316564 1487.1393933467157
2246.166094641343 1407.174579510459
2246.7682001184166 1250.0840180097039
2247.3701602961664 1125.3169704146037
2247.971975207871 1457.3307842706088
2248.5736448867974 1281.253269305105
2249.175169366197 1538.897474820088
2249.7765486793123 1297.7022326689612
2250.3777828593684 1352.3593827319937
2250.9788719395783 1435.3258877292321
2251.579815953146 1306.5648955100364
2252.1806149332606 1092.5158612899281
2252.781268913097 1321.6402485317824
2253.381777925817 1232.7935153066167
2253.9821420045737 1438.3529149054948
2254.5823611825035 1433.2679764582576
2255.1824354927303 1435.690522852382
2255.782364968365 1239.6888459645531
2256.38214964251 1500.6333716247714
2256.9817895482483 1233.23663918336
2257.5812847186553 1216.1800509275386
2258.180635186791 1185.6158853815978
2258.779840985704 1179.1001867967323
2259.37890214843 1250.8653510224253
2259.97781870799 1362.695478269458
2260.5765906973957 1474.736759333025
2261.175218149645 1575.6545359630504
2261.773701097718 1542.2999604671427
2262.3720395745895 1096.1579421323268
2262.970233613216 1054.6936296489343
2263.568283246548 1072.1719447284418
2264.1661885075137 1089.6330336783863
2264.763949429038 1181.383699265462
2265.3615660440246 1549.4005464213383
2265.959038385374 1555.7968192123817
2266.5563664859637 1562.241823999268
2267.153550378669 1317.0986869385092
2267.7505900963424 1220.79858628779
2268.3474856718312 1124.4163856745372
2268.9442371379664 1334.4181748632577
2269.5408445275643 1285.4222527917432
2270.1373078734377 1428.8938916466354
2270.7336272083758 1334.0488555043548
2271.32980256516 1367.617686986508
2271.925833976562 1401.2218126035498
2272.5217214753357 1480.8940719827401
2273.117465094223 1233.5435799120974
2273.7130648659586 1179.4067694444982
2274.308520823257 1131.3130018636825
2274.903832998827 1192.4931792652933
2275.4990014253563 1253.7822578486478
2276.094026135528 1381.5313811238063
2276.6889071620117 1268.4812425345056
2277.2836445374614 1518.5178465430367
2277.878238294519 1422.2716993192023
2278.472688465812 1222.824075246684
2279.066995083962 1023.0339315894201
2279.6611581815705 1197.481224884412
2280.255177791232 1126.984767185738
2280.8490539455233 1408.246057303515
2281.442786677013 1690.0562707751155
2282.0363760182554 1590.473517288089
2282.6298220017943 1303.8985414655624
2283.223124660155 1587.497924235285
2283.816284025859 1191.2152451504091
2284.4093001314086 1667.6725882529104
2285.002173009292 1140.796583771141
2285.5949026919952 1566.6474509833672
2286.1874892119777 1308.1262422683928
2286.7799326016993 1192.6175099706336
2287.3722328936 1076.7829844816229
2287.964390120109 907.9351577819165
2288.556404313642 1261.4809221225553
2289.1482755066027 1297.2225020580636
2289.7400037313873 1332.966973075845
2290.3315890203703 1125.6544749208688
2290.9230314059205 1360.3496076841736
2291.5143309203904 1171.74869515415
2292.1054875961236 1194.927550681266
2292.6965014654506 1669.6314210450914
2293.287372560684 1194.0655832400619
2293.878100914131 1119.1369551214852
2294.468686558086 1044.0843469547085
2295.059129524827 1409.4878504796945
2295.649429846617 1535.2358674959773
2296.239587555716 1157.4885709894731
2296.8296026843636 1398.01722757441
2297.419475264791 1805.0542946894093
2298.0092053292137 1702.7667186021747
2298.598792909839 1600.1925604450873
2299.1882380388597 1492.5444146245559
2299.777540748455 1434.309759822661
2300.3667010707904 1375.9048054342556
2300.9557190380256 1575.6467815766403
2301.544594682302 1353.383334136624
2302.1333280357503 1680.9317922637279
2302.721919130485 1526.7845546993776
2303.3103679986198 1715.8390745805555
2303.898674672242 1383.171199970269
2304.486839183437 1522.8016443233005
2305.0748615642697 1257.471229426045
2305.6627418468015 1274.9168539812124
2306.2504800630704 1323.1791492923908
2306.8380762451143 1387.7620177709746
2307.425530424949 1295.452586074932
2308.012842634582 1202.9211904467318
2308.6000129060103 1692.737981066552
2309.187041271214 1938.3597000005507
2309.773927762164 1104.5906980154218
2310.3606724108213 1495.0942587594488
2310.9472752491274 1477.3427491542222
2311.5337363090184 1459.578928389948
2312.120055622414 1332.274522902181
2312.706233221221 1273.3879039928677
2313.2922691373424 1518.2836868694915
2313.8781634026564 1183.0208812358999
2314.463916049037 1350.3509169383738
2315.049527108342 1603.5771742483853
2315.6349966124235 1668.035469295203
2316.2203245931123 1587.5577951901837
2316.8055110822315 1422.6931737629527
2317.3905561115935 1257.4284603464916
2317.9754597129977 1215.8274045422302
2318.560221918229 1230.4387848355113
2319.1448427590603 1245.1101580287661
2319.729322267256 1228.3309003111822
2320.313660474563 1479.1045131110673
2320.8978574127195 1205.6571274889704
2321.481913113452 1378.0554546261405
2322.0658276084705 1188.105686585565
2322.6496009294806 1323.4487571181423
2323.233233108165 1470.8953693236444
2323.8167241762058 1179.753994341039
2324.4000741652617 1384.3782288670923
2324.983283106987 1444.9748170344378
2325.5663510330232 1332.3422102747177
2326.1492779749933 1219.2948391830446
2326.7320639645204 1319.9115001318853
2327.3147090332004 1132.0869141139995
2327.897213212629 1345.6070269996633
2328.4795765343843 1559.3188362523638
2329.0617990300307 1200.2634232103396
2329.643880731124 1633.9844513090445
2330.22582166921 1237.3744365690093
2330.807621875816 1013.0423743047392
2331.3892813824623 788.4396002207902
2331.9708002206517 1001.2425804360528
2332.5521784218818 1144.0365229558502
2333.133416017634 1287.169882740031
2333.7145130393765 1307.2501098716054
2334.295469518571 1312.067326074114
2334.876285486658 1796.1750257310239
2335.456960975076 1696.5710615513865
2336.037496015242 1596.773841343313
2336.6178906385667 1347.0382548272817
2337.198144876451 1478.8254646115274
2337.778258760278 1329.6124955220776
2338.3582323214214 1381.834845238121
2338.938065591243 1434.1438785194882
2339.517758601087 1549.352843580395
2340.0973113822965 1459.7015875298234
2340.676723966193 1381.8821678826312
2341.255996384094 1445.4578670130575
2341.835128667295 1657.7994867362213
2342.4141208470883 1669.8653818938874
2342.992972954751 1451.6096383294039
2343.5716850215467 1475.616912103214
2344.1502570787306 777.6892998661232
2344.7286891575386 1200.5189919371774
2345.3069812892045 1312.8302113030081
2345.885133504944 1425.231405906627
2346.4631458359618 1252.1423875416926
2347.04101831345 1237.2909038935616
2347.6187509685915 1283.3918737197066
2348.196343832553 1069.594874922941
2348.7737969364935 1346.0426414202118
2349.351110311558 1135.5433274761356
2349.9282839888765 1078.6135129071035
2350.5053179995757 1114.354435321426
2351.0822123747585 1129.199380804792
2351.658967145526 1133.6184606083737
2352.2355823429643 1138.1112391252082
2352.812057998144 1421.7070595989655
2353.3883941421263 1115.6864707773568
2353.9645908059647 1399.9380789090726
2354.540648020693 1285.248410760255
2355.116565817336 1460.2299431249578
2355.6923442269126 1295.1267561384313
2356.2679832804224 1536.7409094883583
2356.8434830088518 1490.6532377144654
2357.41884344318 1116.987841156956
2357.994064614377 1346.627328592919
