#exp_cfg={"servo_angle": 0.0, "laser_lim": 100.0, "servo_angle_to": 18.0, "laser_wup": 0.0, "bt_dev": "EnSpectr-25AE3", "laser_wdn_max": 0.0, "frames": 10.0, "servo_used": 0, "servo_calib_use": 0, "laser_wdn_min": 0.0, "servo_pix_from": 90.0, "cooler_tout": 300.0, "servo_angle_from": 0.0, "servo_calib": "[-1.9174921013161362e-09, 3.9322238269163779e-05, -0.27385609119055809, 653.59552119713567]", "laser_autoctl": 0, "servo_pix_to": 3682.0, "laser_pw": 100.0, "cooler_on": 0, "laser_volt": 4.0, "cooler_autoctl": 0, "cooler_curr": 70.0, "cooler_startup": 10.0, "laser_fixed_pw": 0, "gain": 1.3, "offset": 2.53059635486, "servo_calib_degree": 3.0, "laser_curr": 55.0, "shutter": 8200.0, "servo_calib_step": 1.0, "laser_fixed_curr": 0, "exp": 2000.0, "ccd_volt": 4.7, "bt_addr": "00:06:66:62:5A:E3", "servo_delay": 500.0, "laser_autooff": 1}
#proc_cfg={"flat_auto_wnd": 200.0, "flat_auto_fr": 200.0, "flat_auto_shift": 5.0, "yconv": 1, "flatten": 1, "flatten_strength": 100.0, "xfrom": 300.0, "auto_max_frame": 2000.0, "auto_signal": 48000.0, "flat_auto_tol": 0.1, "autoclip": 1, "xrel_range": 0.0, "flat_auto_to": 4000.0, "intensity_adj": 1.0, "xrel": 7852.0, "rmhot": 1, "flat_auto_slit": 4.999999999999997, "auto_ini_exp": 300.0, "auto_off": 0, "xto": 2860.0, "flat_auto_ref": "", "flat_auto_rank": 1, "autobackg": 0, "xrel_adj": 0.0, "auto_black_lvl": 1, "base_wnd": 100.0, "sub_baseline": 0, "xconv": 2, "auto_max_exp": 1000.0, "auto_total_exp": 10000.0, "auto_exp": 0, "rmripple": 0, "black_lvl": 8272.325, "shutter_clip_adj": 0.0, "auto_bckg": 0, "flat_auto_thr": 0.9, "subbackg": 1}
316.8218498245369 20468.472076875114
317.89969571804795 20301.573517328387
318.977263876126 20128.094890438988
320.05455438786703 20121.021579097174
321.1315673423287 20077.60811962467
322.2083028285215 20160.398144381063
323.2847609354267 20019.17970616081
324.3609417519747 20022.157661090343
325.43684536705587 19825.43786465303
326.5124718695279 19933.494614318275
327.58782134820103 19708.020681769525
328.66289389184385 19792.973672372405
329.7376895891921 19589.032697925686
330.8122085289342 19532.482139857246
331.88645079971866 19569.782133734832
332.9604164901575 19459.091857325344
334.03410568881554 19337.718407556513
335.1075184842266 19411.617961066968
336.18065496487543 19235.282992691995
337.2535152192122 19270.157780627058
338.32609933564163 19266.729930965917
339.39840740253203 19179.558457525676
340.4704395082099 19008.640227379856
341.5421957409617 19027.5005966651
342.6136761890357 19089.630075449284
343.6848809406365 18927.650561660084
344.75581008392874 18894.817232711357
345.82646370703696 18891.090079496953
346.8968418980512 18768.256509981144
347.96694474501055 18816.759211112003
349.0367723359268 18711.19880074914
350.106324758759 18686.251252034806
351.1756021014353 18546.323812809034
352.2446044518383 18615.353554580382
353.31333189781435 18525.91052223136
354.38178452716966 18457.495469194597
355.449962427665 18394.90641549394
356.51786568702846 18396.594373926117
357.58549439294256 18404.466442610843
358.6528486330535 18416.07978063643
359.71992849496564 18327.00863904294
360.7867340662433 18359.83087322276
361.8532654344144 18321.603732746757
362.9195226869597 18357.000538703498
363.9855059113288 18284.312092249005
365.05121519492604 18180.56405527996
366.11665062511565 18306.346824073928
367.1818122892273 18254.009718398465
368.2467002745434 18234.29681349212
369.31131466831175 18216.179826538744
370.375655557742 18097.524001167774
371.4397230299983 18237.522406946766
372.5035171722102 18104.605437727452
373.5670380714637 18081.658844454556
374.6302858148101 18113.894895785354
375.6932604892554 18117.402048078635
376.7559621817709 18121.028273822736
377.81839097928605 17925.185116872097
378.8805469686886 18002.548210005574
379.94243023683157 18124.58836788382
381.0040408705263 17958.706193877948
382.0653789565458 17832.38330553109
383.1264445816196 17926.012202056816
384.1872378324406 17851.06966136046
385.2477587956637 17860.4694472257
386.3080075579037 17824.917643121233
387.3679842057336 17700.255438960845
388.4276888256918 17705.333101168326
389.48712150426945 17681.964944724717
390.54628232792857 17628.986148684035
391.6051713830857 17625.495375723338
392.66378875611736 17693.88593203554
393.7221345333637 17579.397378123096
394.7802088011249 17495.59561935061
395.838011645661 17597.515970834873
396.89554315319765 17446.148617897037
397.9528034099112 17426.55937696541
399.00979250194723 17345.88870739718
400.06651051541485 17245.68454863794
401.1229575363741 17346.659680021112
402.17913365085224 17264.0453746703
403.23503894483656 17353.68971937792
404.2906735042761 17248.211362801205
405.3460374150818 17238.922320762817
406.401130763119 17192.129843211605
407.455953634224 17235.38625906549
408.5105061141876 17114.107168202325
409.56478828876243 16947.184719474004
410.6188002436629 16933.54869532302
411.6725420645689 17002.704266867942
412.72601383711117 17001.693358148834
413.77921564689314 17019.21473721654
414.8321475794728 16937.170517016206
415.88480972036814 16824.03817745535
416.93720215506437 16870.628428902324
417.9893249690049 16730.007539726048
419.04117824759123 16737.432908242725
420.09276207619223 16680.027318834425
421.144076540133 16719.8024970631
422.1951217247042 16545.07060352306
423.24589771515275 16667.352532552002
424.2964045966928 16568.651761542504
425.34664245449494 16574.861469281972
426.3966113736933 16553.483885087324
427.4463114393875 16374.094249922211
428.49574273662984 16386.216424282746
429.5449053504417 16296.818838782181
430.5937993658026 16419.864883009268
431.6424248676558 16207.809891918427
432.6907819409007 16264.04855294077
433.73887067040596 16274.853837368137
434.7866911409965 16134.282550841719
435.8342434374608 16135.627261392447
436.88152764455117 16062.70134551522
437.9285438469724 16064.802721103993
438.9752921294057 15971.075569561832
440.02177257648145 16037.723013754783
441.06798527279716 15833.831211147544
442.1139303029122 15961.189841629686
443.1596077513459 15946.787199139551
444.2050177025794 15894.896970014679
445.25016024105753 15946.121745252487
446.2950354511886 15817.54331896136
447.33964341733736 15835.556983389168
448.383984223834 15766.892125178032
449.4280579549686 15760.403862416157
450.471864694995 15756.984440622775
451.5154045281306 15737.40251346908
452.5586775385509 15675.548074955217
453.60168381039693 15684.924259849757
454.64442342776783 15797.440533338702
455.6868964747264 15688.102726635854
456.7291030353008 15512.846209830726
457.77104319347563 15680.516416829438
458.8127170332027 15559.745579350598
459.854124638392 15624.548671936358
460.895266092919 15715.128850398198
461.93614148061897 15667.397081120525
462.97675088529104 15678.689453718729
464.01709439069236 15619.365953611665
465.0571720805492 15538.40678675657
466.0969840385442 15688.199031758108
467.1365303483253 15793.060254099066
468.17581109350067 15594.001710548726
469.2148263576437 15568.362428978426
470.2535762242878 15685.815615400003
471.29206077693016 15715.597477616626
472.33028009902773 15770.444695956528
473.3682342740012 15713.91131841657
474.40592338523857 15766.916101217412
475.4433475160804 15811.72322448799
476.4805067498364 15806.041352671124
477.51740116978 15744.114072606972
478.5540308591426 15893.684207852866
479.59039590112116 16096.05156058678
480.6264963788726 16027.2515630007
481.6623323755193 16157.009811384696
482.6979039741436 16290.688099724488
483.7332112577915 16453.656300711482
484.76825430947247 16670.95213704215
485.80303321215797 16606.597661073247
486.837548048783 16734.12114226628
487.8717989022425 16985.907974252135
488.90578585539697 17035.74802737787
489.9395089910686 17130.968705505067
490.97296839203955 17191.45853177696
492.00616414106116 16969.171843928845
493.0390963208429 17107.650980596598
494.0717650140559 17075.824773213586
495.10417030333883 17063.908150264797
496.1363122712901 16899.945417142073
497.16819100046814 16808.81203764843
498.1998065734024 16737.117705229004
499.2311590725767 16613.914225612643
500.26224858044407 16423.77063651408
501.2930751794156 16401.764415179317
502.3236389518679 16316.70530647103
503.35393998014115 16183.445150721182
504.38397834653733 16083.690769369763
505.4137541333221 16020.516234960009
506.4432674227228 15870.566098611182
507.4725182969323 15733.752968852623
508.5015068381035 15756.538181168016
509.53023312835467 15738.744655965687
510.55869724976765 15653.08369758505
511.58689928438434 15460.021521545723
512.6148393142121 15341.737872257709
513.6425174212218 15476.1661783369
514.6699336873462 15422.358362798328
515.6970881944835 15300.468773756094
516.7239810244901 15131.697990253268
517.7506122591931 15205.153511642138
518.7769819803761 15091.567119576222
519.8030902697901 15089.232987906144
520.8289372091476 15053.683499903165
521.8545228801249 15131.626610074973
522.8798473643619 14982.705079523594
523.9049107434621 14931.097744608234
524.9297130989908 15005.846399224125
525.9542545124805 14898.550368112943
526.9785350654201 14842.340498860238
528.0025548392696 14915.764126766162
529.0263139154504 14764.004922692131
530.0498123753423 14907.926487126388
531.073050300296 14772.345485516624
532.0960277716204 14688.932348021077
533.1187448705896 14690.50643099329
534.1412016784416 14744.868420212486
535.1633982763833 14661.459204896044
536.1853347455726 14559.25317577548
537.2070111671401 14611.654430512635
538.2284276221817 14486.554841787223
539.2495841917516 14421.31902755761
540.2704809568677 14424.322589783184
541.2911179985167 14467.230996929085
542.3114953976419 14504.387810410937
543.3316132351592 14327.620166900833
544.3514715919409 14373.923364677923
545.3710705488247 14306.707958701645
546.3904101866156 14343.990302057384
547.4094905860784 14320.207941447501
548.4283118279418 14470.546403608514
549.4468739929034 14469.750619896247
550.4651771616191 14379.000169704852
551.4832214147063 14287.22383175868
552.501006832761 14467.856694036358
553.5185334963226 14288.52940286698
554.5358014859103 14401.165693927574
555.5528108820035 14320.413769612856
556.5695617650363 14313.831072758292
557.5860542154242 14406.908428375242
558.6022883135283 14397.353239012784
559.6182641396881 14181.618830705105
560.6339817741991 14345.022489272382
561.6494412973225 14320.828293172948
562.6646427892883 14444.43941894941
563.6795863302796 14181.140697698542
564.694272000459 14090.077965966682
565.7086998799423 14328.428089800422
566.7228700488104 14112.318758009535
567.7367825871115 14146.690864778739
568.7504375748576 14142.737596656647
569.7638350920224 14070.804561581177
570.7769752185486 14056.751454675355
571.7898580343353 14031.755218008237
572.802483619258 13993.498320365607
573.8148520531431 14071.925417402366
574.8269634157932 14119.69133093926
575.8388177869692 13987.863927796254
576.8504152463938 14067.023971012793
577.8617558737587 14199.416866026793
578.8728397487175 14043.252994063694
579.883666950891 14125.543285547255
580.8942375598654 14229.555573276488
581.9045516551851 14337.359502500933
582.9146093163617 14479.403038771892
583.924410622878 14444.406419183448
584.9339556541727 14370.548187719798
585.9432444896538 14499.996746546443
586.9522772086875 14478.402138951651
587.9610538906127 14450.055504111902
588.9695746147318 14453.3660754038
589.9778394603054 14486.736185566682
590.985848506567 14404.824032474024
591.9936018327098 14346.188247254302
593.0010995178891 14241.129106070537
594.0083416412344 14296.745363658902
595.0153282818283 14165.457498521055
596.0220595187293 14200.384142002547
597.0285354309508 14060.556205908782
598.0347560974806 14025.26247176152
599.0407215972609 14082.556031328268
600.0464320092051 13991.514224478819
601.0518874121954 14004.197831926038
602.0570878850685 13930.851647307461
603.062033506636 13937.892532320486
604.0667243556636 13929.500466967433
605.0711605108936 13818.17195521008
606.0753420510264 13975.059995597694
607.0792690547278 13870.158430795422
608.082941600629 13711.090600469684
609.0863597673306 13767.933038089206
610.0895236333909 13907.510192875769
611.0924332773357 13987.432259351443
612.0950887776617 13937.99051902648
613.0974902128219 13961.27734421867
614.0996376612384 14085.805800436801
615.1015312013005 14115.837018708931
616.1031709113595 14214.94057483847
617.1045568697336 14107.175438130696
618.1056891547069 14272.580909642222
619.1065678445229 14370.994033952029
620.1071930173985 14593.935511537265
621.1075647515099 14568.481893405638
622.1076831250048 14589.825375317447
623.1075482159849 14743.213147138285
624.1071601025305 14768.313457303424
625.1065188626781 14857.066619280766
626.105624574433 15178.270482913931
627.1044773157682 15159.352164489388
628.1030771646128 15253.049710141839
629.1014241988742 15469.483712890444
630.0995184964158 15508.720484254573
631.0973601350688 15745.92037393633
632.0949491926294 15858.245698313762
633.0922857468631 15641.650952679582
634.089369875499 15779.99065217991
635.0862016562278 15810.188238320272
636.0827811667077 15674.197166267459
637.0791084845641 15679.393929528174
638.0751836873878 15581.440468327148
639.0710068527369 15567.97397428221
640.0665780581294 15380.687461442716
641.0618973810506 15366.180327405944
642.0569648989604 15220.523305776082
643.0517806892676 15080.291411143164
644.0463448293649 15038.666432924965
645.040657396592 14876.789081352783
646.0347184682723 14667.984217986294
647.0285281216875 14620.543868728675
648.0220864340772 14498.186225900947
649.0153934826558 14385.756876569483
650.0084493446047 14291.778903153501
651.0012540970674 14300.18061910003
651.9938078171526 14152.35283093772
652.9861105819346 14045.932289799714
653.9781624684565 14088.232807068227
654.9699635537254 13870.400883193342
655.9615139147136 13934.411027493295
656.9528136283589 13742.005251966719
657.9438627715699 13817.666392306175
658.9346614212154 13731.841758685501
659.925209654135 13461.196519465637
660.9155075471263 13427.281039036214
661.9055551769616 13419.830192129793
662.895352620375 13535.681795309632
663.8848999540678 13327.813089036168
664.8741972547068 13191.128331516662
665.863244598926 13147.660730997706
666.8520420633213 13173.174315516453
667.8405897244611 13018.455639895394
668.8288876588758 12943.710991951746
669.8169359430613 12980.773034570355
670.8047346534822 13025.794967972346
671.7922838665672 12873.007240240187
672.7795836587156 12960.157257650968
673.766634106285 13114.498970195127
674.7534352856092 12907.023534416425
675.7399872729766 12878.21576350282
676.7262901446538 12947.546250904134
677.712343976862 12933.438688091886
678.6981488457986 12959.399073346052
679.6837048276229 12784.659190229446
680.6690119984596 12949.252126161871
681.6540704344043 12865.163307389712
682.6388802115107 12742.914502780946
683.6234414058108 12714.808978620247
684.6077540932874 12747.049262025876
685.591818349907 12650.966816354932
686.575634251587 12694.854375523513
687.5592018742263 12460.404695471501
688.5425212936734 12433.109844992643
689.5255925857564 12543.312582738046
690.5084158262707 12476.864717077464
691.4909910909646 12346.08610873253
692.4733184555644 12273.773810696648
693.4553979957618 12310.77760391876
694.4372297872123 12360.571168454873
695.4188139055404 12238.685994335916
696.4001504263324 12244.749599424398
697.3812394251509 12306.400352503415
698.3620809775111 12331.465516215
699.3426751589104 12219.02037851856
700.3230220448004 12192.86850776961
701.3031217106054 12290.415452367595
702.2829742317172 12458.65640672217
703.2625796834873 12233.999613947351
704.2419381412474 12169.080466169089
705.22104968028 12217.736901869293
706.1999143758458 12241.07512314887
707.178532303169 12212.266334952888
708.1569035374378 12287.929013805062
709.1350281538107 12337.219947436632
710.1129062274158 12203.870776841368
711.0905378333373 12422.967858262138
712.0679230466376 12450.456819717827
713.0450619423427 12547.797567166817
714.0219545954424 12704.835897205647
714.9986010808989 12635.387327405788
715.9750014736292 12790.78534999766
716.9511558485392 12832.414802327095
717.9270642804786 13070.819994122314
718.9027268442787 13010.92612562259
719.8781436147328 13008.73718618113
720.8533146666014 13069.893009309533
721.828240074612 13078.690570029492
722.8029199134635 13007.049049732766
723.7773542578125 13026.692372684245
724.751543182294 12909.688851105548
725.7254867615029 13050.550136707014
726.6991850700015 12790.438256869003
727.6726381823228 12891.683701099082
728.6458461729599 12926.90463457857
729.6188091163858 12925.657289259005
730.5915270870246 13048.169875420335
731.5640001592856 13043.618524259426
732.536228407529 13307.581746332648
733.5082119060917 13477.802598540224
734.4799507292755 13383.93256624787
735.4514449513481 13613.07422818893
736.4226946465496 13779.28124547682
737.3936998890786 13929.668274981857
738.3644607531078 13713.083600698714
739.3349773127793 13732.440472787353
740.3052496421951 13674.697510252892
741.27527781543 13397.39929362156
742.2450619065221 13219.51779607128
743.2146019894826 13079.957068525298
744.183898138288 12814.985504525017
745.1529504268801 12623.514655233956
746.1217589291682 12333.89618468448
747.0903237190341 12254.317068383407
748.058644870318 12109.86795803056
749.0267224568397 11955.277811178305
749.994556552374 11739.753844351355
750.9621472306771 11772.483878957746
751.9294945654583 11666.985230888677
752.8965986304011 11665.885746245805
753.8634594991636 11474.480200207385
754.8300772453586 11589.174227558222
755.7964519425768 11517.920654995783
756.762583664371 11533.835974050478
757.7284724842611 11464.896350993637
758.6941184757416 11435.986094580197
759.6595217122667 11389.528868130637
760.6246822672638 11446.979197032626
761.5896002141235 11192.639066529639
762.5542756262093 11376.45687608841
763.5187085768503 11343.516204732641
764.4828991393406 11287.538891308372
765.4468473869474 11182.13336320132
766.4105533929032 11268.525286536973
767.3740172304078 11165.431574277962
768.3372389726283 11220.58796895144
769.3002186926988 11021.708709007069
770.2629564637282 11083.06588646815
771.2254523587872 11048.771748847492
772.1877064509154 10926.43255896537
773.1497188131179 10813.538271198322
774.1114895183728 10835.966314631427
775.0730186396268 10819.724450928075
776.0343062497905 10826.39108632806
776.9953524217381 10646.761313274066
777.9561572283274 10785.323427532874
778.9167207423689 10721.28329514427
779.8770430366476 10635.062856215067
780.8371241839159 10703.728555533187
781.7969642568951 10699.379608925277
782.7565633282757 10877.23462360256
783.7159214707099 10698.219248160387
784.6750387568281 10695.090086380416
785.6339152592227 10640.41818469004
786.5925510504512 10556.024720840025
787.5509462030477 10632.267315055216
788.5091007895098 10635.727881433952
789.4670148823006 10633.593594885053
790.4246885538596 10644.635403939537
791.3821218765861 10593.962086220872
792.3393149228505 10533.927162085729
793.2962677649975 10664.55301696822
794.2529804753303 10656.138408366263
795.20945312613 10720.300013557982
796.1656857896378 10556.93921636272
797.1216785380675 10627.705651432636
798.0774314435985 10703.350646270477
799.0329445783846 10881.091483471204
799.9882180145414 10724.372855280435
800.9432518241574 10774.609840040595
801.89804607929 10883.279722836083
802.852600851962 10873.842489398598
803.8069162141637 10834.882236549744
804.760992237856 10909.807885629565
805.714828994971 10997.182341427328
806.6684265574077 10967.768923037755
807.6217849970271 10891.428537452199
808.574904385674 10762.785337783913
809.527784795142 10907.289099402176
810.4804262972102 11016.823912469079
811.4328289636178 10729.177923449455
812.3849928660748 10624.44526285796
813.3369180762638 10607.268696649831
814.2886046658241 10695.250957854681
815.2400527063783 10469.59809666838
816.1912622695108 10488.437487465306
817.1422334267718 10515.821992198289
818.0929662496856 10346.253401458682
819.0434608097457 10156.90658073584
819.9937171784059 10234.301548078669
820.9437354271013 10098.192405533015
821.8935156272255 10209.849538501145
822.8430578501484 10049.228286999905
823.7923621672016 9929.065197276263
824.7414286496896 10078.46620147119
825.6902573688876 10067.330600059664
826.6388483960363 9951.601628657305
827.5872018023492 9838.942330463798
828.5353176590033 10044.50081193115
829.4831960371503 9860.481963179862
830.4308370079016 9840.197746197045
831.3782406423525 9869.444315827426
832.3254070115545 9873.266847891819
833.2723361865319 9724.67158736974
834.2190282382799 9681.73365712522
835.1654832377644 9709.945291194656
836.1117012559116 9726.983069665544
837.0576823636256 9843.412659387915
838.003426631778 9617.384639822107
838.9489341312074 9676.279500727043
839.8942049327197 9759.718659577678
840.8392391070975 9790.738698639523
841.7840367250865 9686.255752770674
842.7285978573982 9593.74209847827
843.672922574724 9758.583110617426
844.6170109477152 9713.994903422503
845.560863046996 9713.248562537006
846.5044789431595 9671.110286217177
847.4478587067697 9703.962807986665
848.3910024083561 9809.834438258129
849.333910118421 9708.848727946244
850.2765819074339 9640.54190042915
851.2190178458332 9632.030981224369
852.161218004032 9776.660674795206
853.1031824524016 9647.12432035421
854.0449112612987 9675.238710171927
854.9864045010327 9746.278716779829
855.9276622418947 9597.709881220133
856.8686845541379 9678.831893006649
857.8094715079915 9648.145694407025
858.7500231736467 9732.508906605573
859.690339621271 9589.520074764947
860.6304209209939 9629.767154100591
861.5702671429244 9541.706437247482
862.5098783571284 9628.720371111845
863.4492546336569 9595.242224162326
864.3883960425155 9571.31845500111
865.3273026536863 9525.310025517283
866.2659745371238 9594.687816766267
867.2044117627465 9719.640641733871
868.1426144004472 9600.432424495017
869.0805825200823 9644.991639577775
870.0183161914847 9635.587161632719
870.9558154844526 9710.225354319495
871.8930804687552 9666.218322074206
872.8301112141307 9545.51525415343
873.7669077902865 9716.882952943375
874.7034702669062 9815.832173409146
875.6397987136315 9702.864910766015
876.5758932000863 9746.01121101111
877.5117537958522 9794.687653320816
878.4473805704911 9709.949134776494
879.3827735935283 9615.557139833718
880.3179329344603 9808.662782216688
881.2528586627541 9835.847939003406
882.1875508478479 9963.686524995486
883.1220095591489 9699.516700769147
884.0562348660296 9675.962653049413
884.9902268378391 9880.326885924514
885.9239855438955 9741.558752053557
886.8575110534839 9660.741991478604
887.7908034358588 9784.15322384264
888.7238627602474 9745.452580922845
889.6566890958475 9775.56340821796
890.5892825118208 9541.635522561472
891.5216430773125 9666.873094613684
892.4537708614189 9570.585708573224
893.3856659332196 9496.823110281905
894.3173283617652 9378.58880645005
895.2487582160684 9509.996278252042
896.179955565116 9402.456794404487
897.110920477864 9341.627115265048
898.0416530232451 9372.133539785764
898.9721532701478 9258.347628398047
899.9024212874428 9409.970339258614
900.8324571439662 9321.412688523778
901.7622609085302 9183.670588980105
902.6918326499072 9234.508543794745
903.6211724368477 9325.722036086621
904.5502803380696 9314.97775579682
905.4791564222614 9395.714403673512
906.4078007580792 9213.517648768262
907.3362134141571 9147.90361686206
908.2643944590909 9317.179196435047
909.1923439614493 9171.945916351875
910.1200619897754 9156.407846112656
911.0475486125779 9373.734498744847
911.9748038983344 9216.770517020934
912.9018279155007 9111.351686341903
913.8286207324982 9019.982148666095
914.7551824177117 9208.326633259614
915.6815130395116 9087.820210216445
916.6076126662283 9026.287577110772
917.533481366163 9119.50369112754
918.4591192075914 9087.595023435562
919.3845262587565 9206.848362342775
920.3097025878706 9010.87441981507
921.2346482631237 9021.870071639705
922.1593633526682 9062.611885319257
923.0838479246304 9122.906768242481
924.0081020471061 9137.034693821997
924.9321257881656 8936.663929142833
925.8559192158464 8966.892141130493
926.7794823981512 8931.421161197566
927.7028154030686 8892.860673756386
928.6259182985414 8852.208280517698
929.5487911524906 8985.50257522167
930.4714340328119 9008.34765860271
931.3938470073608 8731.498656645836
932.3160301439748 8844.010930958792
933.2379835104548 8726.540305399993
934.1597071745709 8902.9179984053
935.0812012040769 8880.44848144337
936.002465666681 8916.756680769855
936.9235006300696 8907.551506899526
937.8443061619055 8895.288533519004
938.7648823298077 8671.065229728989
939.6852292013809 8760.510648289332
940.6053468441951 8921.32363499208
941.5252353257874 8711.207857967533
942.4448947136698 8770.646630705629
943.364325075323 8812.260899320801
944.2835264782043 8809.896711080786
945.2024989897309 8817.447552736538
946.1212426773054 8774.019687745098
947.0397576082851 8846.257713392444
947.9580438500125 8883.517100596862
948.8761014697939 8891.763182391867
949.7939305349064 8922.828616604736
950.7115311125999 8722.22907071383
951.6289032700952 8734.459043328552
952.5460470745875 8936.574619838228
953.4629625932339 8829.643870439644
954.3796498931715 8839.045475598932
955.2961090415029 8877.638507867705
956.2123401053068 8812.77171737161
957.1283431516276 8809.19681765501
958.0441182474842 8653.833933166765
958.9596654598663 8906.82774881852
959.8749848557309 8763.755080271067
960.7900765020167 8754.734900217196
961.7049404656209 8676.38748161404
962.6195768134185 8738.898020094612
963.5339856122537 8779.71090722585
964.4481669289453 8769.310471866183
965.3621208302793 8664.46622707665
966.2758473830145 8562.84163466885
967.1893466538822 8763.211942195328
968.1026187095813 8601.299531456749
969.0156636167867 8606.309961587973
969.9284814421426 8686.660148921848
970.8410722522622 8639.445210552323
971.753436113735 8554.63509043008
972.6655730931161 8479.854245375302
973.5774832569368 8659.439302852496
974.4891666716958 8490.76596630507
975.4006234038698 8479.588814945851
976.3118535198955 8423.358463555945
977.2228570861935 8534.790304803315
978.1336341691494 8605.092669756003
979.0441848351202 8352.349751101474
979.9545091504333 8546.166768066092
980.864607181391 8472.478835225267
981.7744789942699 8501.650368557082
982.6841246553086 8442.67603931269
983.5935442307236 8473.722590329577
984.5027377867027 8519.639491988428
985.4117053894024 8466.989409220707
986.3204471049557 8344.478647346163
987.2289629994648 8432.200191437969
988.1372531390007 8566.828985639064
989.0453175896091 8481.95796963539
989.9531564173067 8494.827845368742
990.860769688079 8428.639700489162
991.7681574678918 8413.268987098812
992.6753198226706 8480.030333549523
993.582256818323 8377.67735234178
994.4889685207218 8385.77316718205
995.3954549957143 8641.931923632204
996.301716309119 8553.06711529572
997.2077525267232 8511.031165680255
998.1135637142943 8416.375330039304
999.0191499375615 8597.217317291543
999.924511262232 8555.660753023682
1000.8296477539861 8500.12630763475
1001.7345594784656 8443.903694793418
1002.6392465012996 8449.088868597559
1003.5437088880753 8575.842257464803
1004.4479467043584 8474.275070082542
1005.3519600156869 8260.881945397921
1006.2557488875718 8474.404458086527
1007.1593133854858 8479.604211907952
1008.0626535748888 8417.25116321149
1008.9657695212009 8355.765000673175
1009.8686612898182 8538.273862792845
1010.7713289461135 8524.013908506218
1011.6737725554212 8413.047489342856
1012.5759921830577 8436.703422046729
1013.4779878943027 8369.223815347044
1014.379759754418 8443.342000034307
1015.2813078286254 8348.458063601487
1016.18263218213 8219.738243203168
1017.0837328801026 8307.295529959027
1017.9846099876886 8436.19323648165
1018.8852635700023 8294.428089021483
1019.7856936921362 8184.251522995919
1020.6859004191447 8396.794543576101
1021.5858838160675 8213.484745363721
1022.4856439479063 8086.364537804797
1023.3851808796389 8061.796917718702
1024.2844946762143 8236.370367769963
1025.183585402554 8226.68871021822
1026.082453123554 8019.769100389001
1026.9810979040776 8137.488535728364
1027.8795198089647 8046.733399589849
1028.777718903024 8125.446998381662
1029.6756952510368 8000.360475800835
1030.5734489177648 8007.03894093467
1031.4709799679313 8113.089629120359
1032.3682884662358 8181.546975122785
1033.2653744773506 7946.637194786876
1034.1622380659192 7970.061588778883
1035.058879296559 8118.379445961182
1035.9552982338591 8263.52208451383
1036.8514949423825 8181.053593192502
1037.7474694866614 8262.207501473767
1038.6432219312028 8265.82436781485
1039.5387523404825 8423.179906755337
1040.4340607789582 8474.515552213463
1041.3291473110476 8434.739390400802
1042.2240120011465 8738.0038626241
1043.1186549136273 8927.954265202181
1044.0130761128294 8867.824771494696
1044.9072756630649 8989.823882852228
1045.8012536286205 9240.593166280498
1046.6950100737577 9345.707983186066
1047.588545062701 9445.344029376842
1048.481858659663 9513.52590056582
1049.3749509288118 9711.51462048132
1050.2678219343034 9649.970954337443
1051.1604717402515 9646.03637349967
1052.0529004107575 9594.003218788323
1052.9451080098825 9641.069231046331
1053.8370946016694 9678.416027980247
1054.7288602501267 9617.615670454916
1055.6204050192446 9496.438286881861
1056.511728972977 9549.913604332189
1057.402832175254 9494.398150510306
1058.2937146899785 9203.18087206102
1059.1843765810263 9114.40121592162
1060.0748179122456 9056.00233294933
1060.9650387474576 8926.961800998115
1061.855039150456 8837.424517299869
1062.7448191850071 8762.359392419998
1063.6343789148505 8658.86938787837
1064.5237184037014 8691.27607841093
1065.412837715241 8469.023265134188
1066.3017369131267 8382.415298991367
1067.190416060992 8263.066836973678
1068.0788752224398 8221.043448957236
1068.9671144610438 8133.289605259966
1069.8551338403558 8365.97083817571
1070.7429334239023 8282.430230156915
1071.6305132751695 8076.961401667473
1072.517873457633 8148.0424962087345
1073.4050140347335 8123.750712330424
1074.2919350698776 8103.76204536337
1075.1786366264623 8051.865125557846
1076.0651187678395 8067.036075618477
1076.95138155735 7909.404140661276
1077.8374250582929 7907.405275604327
1078.7232493339507 8037.166842831207
1079.608854447577 7879.507164871247
1080.4942404623907 7863.396848823628
1081.3794074415982 7995.011341466193
1082.2643554483657 7995.573911331259
1083.149084545841 7910.473480311431
1084.033594797138 7852.378598135675
1084.9178862653516 7880.717688040451
1085.8019590135427 8009.283615036739
1086.6858131047484 7722.34021097846
1087.5694486019802 7924.104283008576
1088.4528655682225 7879.2491080900045
1089.3360640664287 8019.85766896547
1090.2190441595321 7939.736880822411
1091.1018059104317 7938.3969503530225
1091.98434938201 8052.250783863415
1092.866674637111 8085.179545239909
1093.748781738559 8002.426421245471
1094.6306707491512 7835.443874349339
1095.5123417316554 7984.53584878775
1096.3937947488157 7994.554704852938
1097.2750298633455 7945.483407400847
1098.156047137938 7970.084617384031
1099.0368466352556 8065.383880531498
1099.9174284179317 8109.842087624619
1100.7977925485757 7864.67776267952
1101.6779390897755 7834.844296028782
1102.5578681040806 7926.69288873147
1103.4375796540226 7946.2086568011555
1104.3170738021054 7813.358035980973
1105.1963506108077 7840.923709464567
1106.0754101425773 7740.189340528748
1106.9542524598382 7789.5544992243695
1107.8328776249855 7642.3560573766545
1108.7112857003904 7609.461499033391
1109.5894767483987 7666.806409378942
1110.4674508313292 7793.0239266569715
1111.3452080114657 7552.014543948981
1112.2227483510815 7679.09367056798
1113.1000719124077 7682.132506574746
1113.9771787576592 7737.480861796257
1114.854068949022 7627.492977400488
1115.7307425486542 7686.531187415133
1116.6071996186893 7748.659823529134
1117.483440221229 7867.7813047289255
1118.3594644183577 7700.419561985225
1119.235272272128 7769.761467553602
1120.1108638445658 7834.001141564219
1120.9862391976712 7990.6069364291125
1121.8613983934229 7963.872715666335
1122.7363414937627 7976.276846200562
1123.6110685606182 8013.975621373856
1124.485579655884 8164.253956935779
1125.359874841426 8111.019113438592
1126.2339541790916 8148.873759160881
1127.1078177306936 8325.42992033624
1127.9814655580267 8151.468020757091
1128.854897722851 8246.718358896946
1129.7281142869106 8167.260750935081
1130.6011153119125 8285.565009772788
1131.473900859548 8324.427277476945
1132.3464709914697 8248.525391301902
1133.2188257693178 8208.77297275351
1134.0909652546961 8174.316595411989
1134.96288950919 8076.451750291708
1135.8345985943506 8178.002028628411
1136.7060925717087 7997.195184677106
1137.57737150277 8055.395268483825
1138.4484354490069 8070.573313334322
1139.3192844718778 7947.917015796685
1140.1899186327992 7842.909604563213
1141.060337993178 7913.878236787112
1141.930542614382 7863.732915616767
1142.8005325577597 7699.4125191971525
1143.670307884635 7697.2871383104675
1144.5398686563003 7729.3330483990385
1145.409214934025 7667.763185386936
1146.2783467790541 7475.603500044611
1147.1472642526023 7533.039394101943
1148.0159674158622 7608.786979586928
1148.8844563300026 7443.524706538102
1149.7527310561618 7426.310783347153
1150.6207916554504 7361.196046884451
1151.4886381889592 7342.907469225756
1152.3562707177498 7419.021796300463
1153.2236893028585 7300.565214314804
1154.090894005296 7352.135434926288
1154.9578848860474 7360.1728629736635
1155.8246620060709 7325.9622263856045
1156.6912254262988 7187.928635603729
1157.5575752076438 7225.797623138697
1158.42371141098 7290.635062153703
1159.2896340971656 7315.300142781152
1160.1553433270346 7220.619081646405
1161.0208391613887 7233.169584489973
1161.8861216610057 7252.58878777053
1162.75119088664 7168.7473923304115
1163.6160468990201 7230.497715274226
1164.4806897588442 7069.90859049297
1165.3451195267917 7150.752505890705
1166.2093362635114 7152.640706527212
1167.0733400296285 7139.966424944917
1167.9371308857444 7030.958832099901
1168.8007088924278 7132.511247349417
1169.6640741102328 7082.483875109295
1170.5272265996773 6979.051872469665
1171.390166421259 6962.61464853018
1172.252893635452 7003.77870802316
1173.1154083026995 7148.210601881059
1173.977710483421 7148.0222288593595
1174.8398002380145 6956.7679916934885
1175.7016776268483 7092.279437983556
1176.563342710264 7024.902576896138
1177.4247955485826 6940.713815656738
1178.2860362020947 7044.730775078062
1179.147064731069 6964.158463165263
1180.0078811957483 7168.832368407956
1180.8684856563486 6997.918586330027
1181.7288781730604 7050.782107738074
1182.589058806052 7082.639740025593
1183.4490276154593 7262.4536273001895
1184.3087846614017 7021.122704506035
1185.1683300039676 7111.686575851493
1186.027663703222 7270.693953529617
1186.8867858192025 7174.554346851866
1187.7456964119228 7215.220729755032
1188.6043955413716 7231.465970675388
1189.4628832675116 7333.292164545717
1190.3211596502842 7445.326647515967
1191.179224749596 7361.476440083153
1192.0370786253388 7269.320061822245
1192.8947213373758 7477.510545026789
1193.7521529455407 7630.997488470486
1194.6093735096438 7312.226496597524
1195.466383089477 7433.326666540981
1196.3231817447977 7439.35370225754
1197.1797695353398 7554.267476855179
1198.0361465208189 7351.854966013855
1198.8923127609214 7283.536195817673
1199.7482683153048 7505.661834215911
1200.6040132436028 7604.751032411945
1201.459547605431 7463.92743025916
1202.3148714603722 7412.527989978237
1203.1699848679855 7377.581978904968
1204.0248878878065 7450.168758273476
1204.8795805793507 7234.564723141921
1205.7340630020935 7364.9001017226665
1206.5883352155033 7384.9792130968035
1207.4423972790064 7427.354843840503
1208.2962492520237 7197.112763614391
1209.1498911939307 7184.925333710499
1210.0033231640937 7315.022854525958
1210.8565452218427 7255.221194426859
1211.7095574264913 7027.61406561058
1212.5623598373222 7150.581680362209
1213.4149525135963 7058.010479594971
1214.2673355145507 7128.603008322696
1215.1195088993936 6934.640981053014
1215.9714727273113 7043.019721431721
1216.8232270574663 7152.783649434033
1217.6747719489904 6887.305512744421
1218.5261074609934 6758.018903779006
1219.3772336525653 6952.978346814152
1220.2281505827668 7014.325706566406
1221.0788583106296 7042.701807778748
1221.9293568951707 6766.84086884743
1222.7796463953746 6757.2342994094815
1223.629726870202 6919.105244085027
1224.4795983785934 6982.854192747201
1225.3292609794553 6739.286775135765
1226.1787147316809 6673.161151741377
1227.0279596941327 6800.299030886624
1227.8769959256424 6658.869084128409
1228.7258234850306 6838.1296711118075
1229.5744424310833 6607.883742965676
1230.422852822563 6780.006400942577
1231.2710547182105 6955.348862622513
1232.119048176739 6760.599474997538
1232.9668332568417 6581.052718879373
1233.8144100171812 6803.456790089857
1234.6617785163999 6764.669341170945
1235.508938813111 6544.878359082814
1236.3558909659114 6576.468258551651
1237.2026350333617 6793.13000314276
1238.049171074008 6883.887318057734
1238.8954991463652 6594.056794918624
1239.741619308932 6741.622458891882
1240.587531620169 5601.159752307443
1241.4332361385277 6838.816619645659
1242.2787329224248 6608.809884172576
1243.1240220302534 6594.9772132774915
1243.9691035203869 6589.4414508230675
1244.813977451171 6822.649490966125
1245.6586438809263 6705.979755778193
1246.5031028679496 6493.535221082277
1247.3473544705157 6738.874852028834
1248.1913987468706 6751.60943204909
1249.0352357552383 6582.8477966540495
1249.8788655538228 6661.505756655021
1250.7222882007918 6852.425622747013
1251.565503754302 6808.47406162715
1252.4085122724755 6553.349243761739
1253.2513138134182 6766.997253573385
1254.0939084352049 6714.493587376072
1254.9362961958905 6818.600345012208
1255.7784771535007 6788.57948274031
1256.6204513660432 6783.701412443064
1257.4622188915 6990.264976560336
1258.3037797878242 6855.880273969723
1259.1451341129468 6709.323935353534
1259.9862819247755 6903.598504765573
1260.8272232811978 6867.623449841196
1261.6679582400666 7062.709578249765
1262.5084868592203 6727.357168658503
1263.34880919647 6709.14518551333
1264.1889253095997 6769.749748633799
1265.0288352563712 6911.714944046995
1265.8685390945266 6677.951062880212
1266.7080368817751 6774.178856108808
1267.5473286758115 6903.314872619221
1268.386414534294 6838.450818636733
1269.2252945148703 6576.147260750998
1270.0639686751547 6674.831122665576
1270.9024370727402 6674.851204157615
1271.7406997651997 6568.690993672336
1272.5787568100714 6549.314874053955
1273.4166082648808 6679.401227083846
1274.2542541871244 6663.907488348496
1275.091694634275 6821.078839984613
1275.9289296637817 6511.281703856242
1276.7659593330663 6738.777909111418
1277.6027836995308 6632.763373153194
1278.4394028205552 6826.68944897059
1279.2758167534867 6548.935393462598
1280.112025555658 6612.791726801818
1280.9480292843746 6681.038410789886
1281.7838279969128 6488.020444739501
1282.6194217505326 6538.700617083468
1283.4548106024686 6526.211784579757
1284.289994609926 6586.798576894731
1285.1249738300921 6864.528989906181
1285.959748320127 6603.160840236455
1286.7943181371702 6654.516689113484
1287.6286833383328 6648.371077812558
1288.4628439807038 6628.0615709380245
1289.2968001213521 6646.896972223401
1290.1305518173194 6760.352959445804
1290.9640991256183 6797.841136086288
1291.7974421032523 6744.885991035895
1292.630580807183 6649.923115490166
1293.463515294361 6847.605665174106
1294.29624562171 6823.871761141236
1295.12877184613 6824.741915217477
1295.961094024493 6819.17925132911
1296.79321221365 6865.964505323094
1297.6251264704333 6984.051743471644
1298.4568368516466 7125.112649945353
1299.2883434140658 7007.833432432601
1300.1196462144526 6956.315341934556
1300.9507453095375 7078.4919451169535
1301.7816407560313 7209.3976127796395
1302.6123326106172 7013.8454325454995
1303.4428209299622 7018.058111877593
1304.2731057707024 7266.9258119863225
1305.1031871894502 7102.255068279007
1305.933065242798 7210.770413001877
1306.7627399873181 7191.952200121219
1307.5922114795467 7442.546596331726
1308.4214797760123 7574.798360189474
1309.2505449332057 7147.446799063864
1310.0794070076026 7259.733374936984
1310.9080660556538 7524.05885964537
1311.736522133786 7519.893441507372
1312.5647752983987 7202.399125409608
1313.3928256058734 7076.424014169717
1314.2206731125661 7449.498096094142
1315.048317874809 7294.171270734985
1315.8757599489109 7327.169065485059
1316.7029993911547 7315.841907434982
1317.5300362578055 7536.262923013343
1318.356870605101 7310.517572389853
1319.183502489257 7249.363607979864
1320.0099319664623 7493.859356951904
1320.836159092889 7409.310087390203
1321.66218392468 7570.635499644831
1322.4880065179532 7218.13459487034
1323.3136269288134 7279.998051876476
1324.1390452133292 7398.550099346477
1324.9642614275563 7513.350482416108
1325.7892756275214 7264.331412599483
1326.6140878692295 7101.382424974554
1327.4386982086617 7513.801164517536
1328.2631067017755 7303.3323529013505
1329.0873134045069 7235.734119441311
1329.911318372764 7183.486597587345
1330.735121662441 7154.329464877102
1331.558723329399 7099.714832492078
1332.3821234294774 7029.3846415652415
1333.2053220185007 7052.62092385988
1334.0283191522612 7005.531129419056
1334.851114886529 7009.220183591911
1335.6737092770582 6907.207426241764
1336.4961023795695 6824.22433469184
1337.3182942497697 6776.817147919511
1338.1402849433325 6902.955713613756
1338.962074515921 6634.487060300872
1339.7836630231632 6552.852621615779
1340.6050505206676 6942.101177102237
1341.426237064028 6891.213100136013
1342.2472227088037 6599.038000616709
1343.0680075105338 6429.964963217783
1343.888591524741 6691.059486468728
1344.7089748069138 6782.713785697301
1345.5291574125276 6538.207863735161
1346.3491393970307 6475.323496485156
1347.168920815846 6589.803305200854
1347.9885017243778 6641.561338180868
1348.8078821780036 6498.415801923745
1349.6270622320844 6435.580554755311
1350.4460419419447 6422.542405452523
1351.2648213629054 6445.363368998132
1352.0834005502438 6258.658572744343
1352.90177955923 6272.572589747554
1353.7199584451064 6483.404511807842
1354.5379372630887 6424.093989636289
1355.355716068374 6221.107625825319
1356.1732949161305 6216.319572939641
1356.9906738615155 6267.244369454211
1357.8078529596478 6358.313462942771
1358.6248322656375 6307.051964612082
1359.441611834567 6162.912854756467
1360.2581917214866 6437.071917481202
1361.0745719814367 6175.08963260718
1361.890752669433 6164.355669291821
1362.7067338404577 6042.77892050714
1363.5225155494845 6318.743778408494
1364.3380978514506 6364.719406098364
1365.1534808012839 5950.0774754457125
1365.9686644538815 5962.10581158115
1366.783648864117 6309.244940737278
1367.5984340868417 6378.507031159972
1368.413020176893 6227.011188402924
1369.2274071890715 6086.731042888394
1370.0415951781652 6161.678892088572
1370.8555841989346 6210.940753405126
1371.6693743061223 5959.483034780997
1372.48296555444 5911.355714463474
1373.2963579985844 6115.459800652747
1374.1095516932255 6187.597747254134
1374.9225466930166 5854.639740301338
1375.7353430525782 6094.24435247
1376.5479408265164 6013.419412995462
1377.36034006941 6147.7724460464515
1378.1725408358216 6117.753889506109
1378.9845431802805 6035.8583318673755
1379.796347157304 6273.255414124752
1380.6079528213813 6298.41263851312
1381.4193602269788 6061.665766930551
1382.230569428546 5988.6180143033735
1383.0415804805016 6306.95089024141
1383.852393437246 6172.762026681779
1384.6630083531563 6127.010536396184
1385.4734252825892 6075.783319192551
1386.2836442798798 6117.424223692082
1387.0936653993322 6165.457957127511
1387.9034886952395 6046.6182722296135
1388.713114221864 6240.309160133811
1389.5225420334482 6145.912240461325
1390.331772184214 6125.1351847463475
1391.1408047283585 5885.353437361741
1391.9496397200564 5975.89596556208
1392.758277213461 6177.056907423571
1393.5667172627054 6221.187594347985
1394.3749599218918 6059.472088184077
1395.1830052451114 5934.796541030223
1395.9908532864265 5973.164387340602
1396.7985040998774 6161.2579643354475
1397.6059577394808 5994.688754719852
1398.4132142592352 5985.483943238202
1399.2202737131156 6009.421360935931
1400.027136155073 6241.028364918771
1400.8338016390353 5876.806735494479
1401.6402702189134 5913.299921206145
1402.446541948586 6060.578171495063
1403.2526168819204 5941.102177235636
1404.058495072757 5769.299548487295
1404.8641765749107 6017.986867820682
1405.6696614421799 5999.526564023885
1406.4749497283356 6335.806234917893
1407.280041487129 5888.201926466272
1408.084936772295 5637.746190407031
1408.8896356375335 5956.699102170057
1409.6941381365323 5919.473426167677
1410.498444322955 5647.839761210942
1411.3025542504402 5811.488417413108
1412.106467972606 5848.862196674678
1412.9101855430508 5795.852760834586
1413.7137070153458 5562.552874629591
1414.5170324430437 5702.389819336446
1415.320161879672 5850.133587200375
1416.1230953787435 5984.2122837134175
1416.925832993742 5665.294429129295
1417.7283747781275 5501.84923223791
1418.5307207853439 5769.659674003118
1419.3328710688093 5768.995057621839
1420.134825681922 5520.364666715621
1420.9365846780584 5571.33433223018
1421.7381481105713 5756.3868226526265
1422.539516032788 5791.679170249168
1423.3406884980232 5563.286280608923
1424.1416655595604 5619.512329328739
1424.942447270665 5647.519766767973
1425.7430336845828 5869.088545901101
1426.5434248545298 5591.3091076944165
1427.3436208337116 5810.267542453221
1428.143621675301 5761.567806590343
1428.9434274324558 6047.661231936919
1429.7430381583108 5757.3776404399005
1430.5424539059713 5908.832174197276
1431.3416747285337 6266.339823622672
1432.1407006790632 6072.843003576948
1432.9395318106053 5818.111982535816
1433.7381681761835 5854.781096535605
1434.5366098288014 6126.691135683246
1435.3348568214424 6104.091878445491
1436.1329092070573 5877.693517250305
1436.9307670385879 6067.2906234202555
1437.7284303689503 6094.615821092657
1438.5258992510335 6245.112598969122
1439.3231737377118 6021.468043448509
1440.1202538818306 6028.289573939857
1440.9171397362225 6034.2428776495935
1441.7138313536925 6080.84007058165
1442.5103287870243 5876.815834890059
1443.3066320889775 5846.9916686412835
1444.1027413122956 6026.140603153827
1444.8986565096966 5969.2488467776775
1445.694377733882 5859.290219112663
1446.4899050375207 5663.974077741595
1447.2852384732687 5725.012606527661
1448.0803780937622 5885.215074494136
1448.8753239516063 5671.247863746814
1449.6700760993954 5547.579559776865
1450.464634589689 5629.635440223828
1451.2589994750397 5825.759794525387
1452.0531708079689 5447.831302434735
1452.8471486409799 5425.263408964799
1453.6409330265524 5665.306994906428
1454.4345240171442 5411.618878023988
1455.2279216651987 5393.45610986947
1456.0211260231263 5473.659894449776
1456.8141371433194 5532.6191730854
1457.6069550781594 5690.817380183064
1458.3995798799897 5334.388111087339
1459.1920116011424 5409.808810587849
1459.98425029393 5322.724036615471
1460.7762960106338 5361.564551899881
1461.5681488035225 5410.841914614064
1462.3598087248392 5420.481263951573
1463.1512758268036 5674.071306255382
1463.942550161617 5370.7420172497195
1464.7336317814625 5241.938654137857
1465.524520738496 5406.517861184506
1466.3152170848552 5278.159312767947
1467.1057208726506 5362.906405012617
1467.8960321539817 5266.3980805494775
1468.6861509809169 5125.110773494247
1469.4760774055085 5241.0129403675
1470.265811479785 5286.4645018717765
1471.055353255755 5120.15587918765
1471.844702785409 5122.995750724203
1472.6338601207044 5031.400026762588
1473.4228253135934 5313.091485848339
1474.2115984159936 4994.14080917561
1475.0001794798063 4968.916382188801
1475.7885685569145 5248.514838127677
1476.576765699172 5127.541477771554
1477.3647709584238 4997.662059853464
1478.1525843864802 5243.987410132006
1478.9402060351367 5136.720597930498
1479.7276359561693 5237.25876236162
1480.514874201328 4984.065352076801
1481.3019208223468 4902.791127174756
1482.0887758709323 4858.529811544018
1482.8754393987747 5188.942127368855
1483.6619114575406 4896.969607067777
1484.4481920988783 4964.581094462088
1485.2342813744108 5027.678579609285
1486.0201793357446 5191.7062939969155
1486.8058860344572 4794.160516399733
1487.591401522117 4913.457691698532
1488.3767258502594 4897.096039731806
1489.1618590704056 4993.610569844628
1489.9468012340494 4686.157787407348
1490.7315523926754 4941.443018081927
1491.5161125977356 5016.685612616634
1492.3004819006637 5007.364279625937
1493.084660352877 4788.780581851902
1493.8686480057622 4984.8075167468505
1494.6524449106964 5189.951443468763
1495.4360511190262 5158.924095009917
1496.219466682087 4887.774994393314
1497.0026916511779 4884.015871177845
1497.7857260775945 4911.939303929315
1498.5685700125996 4985.3503366294835
1499.3512235074395 4807.447764535436
1500.133686613337 4756.952349828007
1500.9159593814966 4796.386302684498
1501.698041863101 5289.3846620044915
1502.4799341093094 4818.899026033371
1503.2616361712662 4680.69772186616
1504.043148100087 4949.4860304394715
1504.8244699468742 5076.44496727297
1505.6056017626997 4711.43476799995
1506.3865435986281 4737.140101430664
1507.1672955056893 4991.757465951401
1507.9478575348967 4794.066184497382
1508.7282297372512 4983.486518943575
1509.5084121637192 4851.783182409803
1510.2884048652577 4881.278177686276
1511.0682078927948 4727.864809435801
1511.8478212972423 4818.213240207931
1512.6272451294917 4816.450193024554
1513.4064794404076 4795.340455074418
1514.1855242808433 5007.179005616924
1514.9643797016215 4813.40216636261
1515.743045753552 4969.742047990783
1516.5215224874191 5005.8310881902
1517.2998099539836 4730.509298722108
1518.077908203999 4870.6366139252195
1518.8558172881785 4841.264339809901
1519.633537257234 5058.570165134954
1520.4110681618404 5032.968442828122
1521.1884100526604 5033.189535369031
1521.9655629803365 4910.649325377601
1522.7425269954856 5180.028360935249
1523.5193021487103 5329.165183846148
1524.2958884905856 4920.911559520593
1525.0722860716687 4960.7411067454395
1525.848494942502 4985.207563412973
1526.624515153595 5022.5119171439555
1527.4003467554485 5015.579397080853
1528.175989798534 5105.751131521703
1528.9514443333064 5072.331393830308
1529.726710410203 5256.141374907223
1530.5017880796331 4992.865157500339
1531.276677391992 5047.256985636518
1532.0513783976457 5292.856198469266
1532.825891146953 5088.641735132031
1533.6002156902414 5063.188494889953
1534.3743520778207 5054.95859274945
1535.1483003599806 5104.864307213166
1535.9220605869923 5114.127294100878
1536.6956328091019 5149.008356375642
1537.4690170765407 5070.247021780355
1538.242213439511 5211.1555213719275
1539.015221948208 5093.149385503075
1539.78804265279 5024.758994884994
1540.560675603405 4965.571586104621
1541.3331208501804 5204.073773628768
1542.1053784432224 5212.950588724205
1542.8774484326168 5003.5269079658165
1543.649330868422 5019.899592214427
1544.4210258006842 5038.099979774666
1545.1925332794308 5109.505753185737
1545.9638533546604 5068.243837075325
1546.7349860763552 4876.632462031448
1547.5059314944829 5315.12812363763
1548.27668965898 5032.013261184318
1549.0472606197673 4919.640705643398
1549.817644426752 4756.252841796553
1550.5878411298072 5088.673548399656
1551.3578507787988 5058.234367610538
1552.1276734235635 4811.852163991063
1552.8973091139233 5016.585033700767
1553.6667578996767 5133.449731818827
1554.436019830604 4907.882086507913
1555.20509495646 4873.1586524042705
1555.9739833269869 4836.891735848722
1556.7426849919011 4787.609702745439
1557.511200000903 5081.644748122293
1558.2795284036674 5000.099244420803
1559.0476702498509 4940.433266922054
1559.8156255890954 5148.9714665440515
1560.5833944710157 5308.443686571948
1561.3509769452048 4769.842049409401
1562.1183730612447 4992.336998918603
1562.8855828686865 5007.61426099243
1563.6526064170703 5167.232153520285
1564.4194437559127 5080.143215608969
1565.1860949347047 4894.115350398175
1565.9525600029283 5168.311022421974
1566.7188390100328 5332.323970931665
1567.4849320054564 4964.447531818995
1568.250839038612 4853.77596822085
1569.0165601588997 4850.976297131461
1569.7820954156887 5114.868877193728
1570.5474448583373 4937.609498602753
1571.31260853618 4833.8326782172835
1572.0775864985299 4681.613453095328
1572.8423787946813 5015.897386566785
1573.6069854739108 4796.894551273005
1574.371406585471 4911.252011778514
1575.1356421785986 4962.403119389348
1575.899692302506 4895.323989543218
1576.6635570063845 4923.710242647823
1577.4272363394157 4832.138978049779
1578.190730350747 4888.480561446042
1578.9540390895163 5000.887935444316
1579.7171626048384 4658.260197053299
1580.480100945806 4729.739938849977
1581.2428541614918 4791.72169497909
1582.0054223009538 4868.839351593242
1582.767805413223 4816.835694288971
1583.5300035473156 4930.836226129084
1584.292016752228 5009.922799105248
1585.0538450769309 4991.357519167024
1585.8154885703807 4678.083621818118
1586.5769472815136 4585.187554494984
1587.3382212592405 4862.577879870812
1588.099310552463 5051.877997565042
1588.8602152100484 4988.193131552331
1589.6209352808564 4900.162682714082
1590.3814708137234 4697.721741563908
1591.14182185746 4786.2962343903055
1591.9019884608679 4756.51853629467
1592.6619706727215 4613.413923444094
1593.4217685417734 4956.952154735
1594.1813821167616 5054.311559646581
1594.9408114464022 4554.770732566542
1595.7000565793933 4787.244454970411
1596.459117564409 4897.831494452732
1597.2179944501113 4756.820023781658
1597.9766872851324 4610.488723728177
1598.735196118092 4795.691544907709
1599.4935209975883 4815.8628940986255
1600.2516619721973 4917.199033469658
1601.0096190904787 4712.457490550944
1601.7673924009723 4709.965183220278
1602.524981952196 4769.243931437163
1603.2823877926476 4702.768851330527
1604.0396099708087 4627.284032139205
1604.7966485351371 4605.378492252188
1605.5535035340745 4626.537113339191
1606.3101750160404 4834.958513741112
1607.0666630294363 4559.655398676679
1607.822967622642 4504.269710900359
1608.5790888440224 4659.154094872283
1609.3350267419137 4772.551341053649
1610.0907813646445 4546.689581252659
1610.8463527605145 4558.551083338709
1611.601740977805 4720.133818207932
1612.356946064785 4644.655008969861
1613.1119680696902 4429.799074255104
1613.8668070407512 4575.964934811847
1614.6214630261748 4485.719974353597
1615.375936074137 4758.811093972036
1616.1302262328118 4563.229612176855
1616.8843335503425 4676.663312512659
1617.638258074854 4517.548719857343
1618.391999854457 4584.444048010316
1619.1455589372363 4708.490762409506
1619.8989353712623 4659.570100134442
1620.65212920458 4404.132263750193
1621.4051404852235 4472.375886618742
1622.1579692611976 4544.042668176401
1622.9106155804966 4260.966600290752
1623.663079491087 4508.859900619908
1624.4153610409248 4596.961393103315
1625.1674602779385 4401.9317388419195
1625.9193772500403 4294.16764668586
1626.6711120051277 4640.436019565857
1627.4226645910676 4415.932594970233
1628.174035055721 4311.835217050233
1628.9252234469168 4523.775051999162
1629.676229812474 4391.1396851328645
1630.4270542001905 4884.713418841085
1631.1776966578382 4441.980303754646
1631.9281572331747 4460.325200525962
1632.678435973945 4659.836844939241
1633.4285329278573 4558.44278524548
1634.1784481426203 4215.988219122823
1634.9281816659113 4353.3938341939765
1635.677733545388 4541.429271495643
1636.4271038286934 4426.070928933932
1637.176292563452 4542.825147252414
1637.9252997972635 4455.618343778565
1638.674125577716 4541.6099199150585
1639.4227699523672 4868.417152715227
1640.171232968767 4289.315105510055
1640.9195146744423 4501.588808936983
1641.6676151168977 4635.241285990155
1642.4155343436178 4723.528597822796
1643.1632724020765 4512.254346744195
1643.9108293397167 4455.072036025195
1644.658205203974 4388.347922262477
1645.4054000422566 5011.842237764306
1646.1524139019566 4364.419725108239
1646.8992468304423 4337.172023027464
1647.6458988750728 4445.807290743024
1648.3923700831765 4420.660896020704
1649.1386605020743 4409.561570027376
1649.8847701790564 4612.381893141106
1650.6306991614038 4431.3194163394455
1651.3764474963682 4636.630618748184
1652.1220152311944 4265.615648751152
1652.867402413096 4489.097299991156
1653.6126090892776 4542.46276198972
1654.3576353069184 4618.971549696949
1655.1024811131829 4423.898913237279
1655.8471465552066 4454.7842142591435
1656.5916316801213 4644.797835350788
1657.3359365350298 4531.421780712904
1658.0800611670165 4402.753059347693
1658.824005623148 4443.977526146181
1659.5677699504722 4199.194630041261
1660.3113541960192 4553.984472757837
1661.054758406799 4266.022421618667
1661.7979826297997 4200.719569347303
1662.5410269119966 4268.118913573949
1663.283891300338 4593.401568421709
1664.0265758417645 4166.393397658278
1664.7690805831826 4247.43356274335
1665.5114055714948 4371.531523873369
1666.2535508535748 4598.21917077268
1666.9955164762814 4092.3983394369366
1667.7373024864555 4188.798534514586
1668.478908930916 4378.691163943911
1669.220335856462 4248.25990123009
1669.9615833098778 4057.745926175364
1670.7026513379296 3985.6426309329245
1671.44353998736 4183.151922609789
1672.1842493048916 4215.900163977544
1672.9247793372379 4014.5501819755204
1673.6651301310812 4215.465569408604
1674.4053017330934 4028.7982174522344
1675.1452941899242 4129.2930011944245
1675.885107548207 3698.6848759125205
1676.6247418545518 3802.75607739154
1677.3641971555535 3942.033141172363
1678.1034734977893 4041.1489908411836
1678.8425709278108 3881.650630372784
1679.5814894921605 4120.42080920399
1680.320229237359 3929.255020332462
1681.0587902098978 4077.2700330555417
1681.7971724562685 3937.3218337394746
1682.5353760229264 3732.980379004455
1683.2734009563173 4082.7831179824016
1684.0112473028657 3826.3225428393475
1684.7489151089794 3971.69430589276
1685.4864044210462 4023.4573984597264
1686.2237152854377 3698.1466794616995
1686.960847748498 3988.897310058118
1687.6978018565642 3668.539310209264
1688.434577655944 3710.1354056404207
1689.1711751929379 3645.3205241605633
1689.9075945138156 3939.073660489046
1690.6438356648396 3640.4201584278953
1691.3798986922448 3437.1310634102206
1692.1157836422499 3729.0320909687666
1692.851490561059 3627.0549041845816
1693.587019494853 3697.407062824585
1694.3223704897991 3510.8132826029205
1695.0575435920364 3431.051503320405
1695.792538847696 3938.863002010643
1696.527356302886 3569.637135715248
1697.2619960036936 3390.0560523786903
1697.9964579961907 3448.0160316937604
1698.730742326432 3209.056868831939
1699.4648490404488 3337.405908296235
1700.1987781842563 3427.143674773947
1700.9325298038548 3648.2421122477817
1701.6661039452174 3699.542850336802
1702.3995006543082 3555.8443039059775
1703.1327199770658 3590.5276762210974
1703.865761959416 3375.6068296946155
1704.598626647261 3700.2864383566293
1705.3313140864866 3311.8061067801523
1706.0638243229587 3416.306940005545
1706.7961574025303 3624.264305442265
1707.528313371029 3464.346157406929
1708.260292274268 3199.153264100197
1708.9920941580403 3328.7294807622357
1709.7237190681226 3499.668055744894
1710.4551670502697 3363.4752083992
1711.18643815022 3164.0123101095605
1711.9175324136959 3677.733491558439
1712.6484498863938 3312.185376969052
1713.379190614005 3157.777597522965
1714.109754642188 3209.7474625816335
1714.8401420165883 3138.72970067848
1715.570352782839 3825.4649558045508
1716.3003869865497 3250.6571360387366
1717.0302446733076 3144.1389612192934
1717.7599258886876 3326.661464787675
1718.4894306782444 3653.4594546113826
1719.2187590875183 3056.144212623733
1719.9479111620203 3421.28023278635
1720.6768869472544 3154.1094932985575
1721.4056864887025 3507.2371579921833
1722.1343098318284 3605.448168524553
1722.8627570220742 3229.8008708379275
1723.591028104871 3212.310697980149
1724.3191231256242 3015.871744534848
1725.0470421297232 3241.523318055294
1725.7747851625427 3403.3164935950126
1726.5023522694337 3384.347181338823
1727.2297434957363 3291.287205959098
1727.9569588867635 3020.8487741392337
1728.6839984878152 3357.164387716748
1729.4108623441734 2916.856874392609
1730.1375505011038 3300.7405225813322
1730.8640630038426 3198.2668572982266
1731.5903998976264 3066.5848936068314
1732.316561227657 3289.3343920702573
1733.0425470391274 3030.1048308886307
1733.7683573772065 3193.845181329598
1734.4939922870508 3145.2792848846293
1735.2194518137949 3215.1618911695055
1735.9447360025606 3218.7805694331937
1736.669844898439 3169.570888332631
1737.3947785465189 2963.595112863554
1738.1195369918605 3050.2355883878545
1738.8441202795093 3197.153527557525
1739.5685284544943 3254.556165692877
1740.292761561821 3164.1156190119264
1741.0168196464838 3134.675645270995
1741.7407027534518 3268.361109217447
1742.464410927687 3121.582176554831
1743.187944214118 3064.4805891314577
1743.9113026576688 3028.9649290589578
1744.634486303241 3107.314814690564
1745.3574951957125 3108.3358805610023
1746.0803293799509 3281.9751397136934
1746.8029889008048 3162.5790377596586
1747.5254738031017 3289.8494173081867
1748.2477841316504 2890.184814909778
1748.969919931249 3106.364536884171
1749.6918812466665 3103.29041176573
1750.4136681226646 3245.7882845560002
1751.1352806039777 3124.3177089708406
1751.856718735331 2775.3535697665857
1752.5779825614281 2868.4823902592934
1753.2990721269507 3155.542900949463
1754.0199874765676 3111.6489676892543
1754.7407286549314 2935.8879059100286
1755.4612957066693 3083.3672484911845
1756.1816886763954 3004.391704796478
1756.9019076087097 3151.605383505023
1757.6219525481865 3129.7233440045975
1758.3418235393856 3035.4310428857802
1759.061520626854 3116.17950721109
1759.7810438551096 3253.2152970563025
1760.5003932686614 2863.521820142061
1761.2195689119999 3220.86334249987
1761.938570829594 3121.223176215859
1762.657399065898 3037.3653400615044
1763.376053665348 2896.273484770094
1764.0945346723602 2811.825118286613
1764.812842131334 3289.165068487209
1765.5309760866512 2888.0245382574917
1766.2489365826787 2894.5725570251943
1766.9667236637597 3028.272261840757
1767.684337374223 2653.0710620765994
1768.401777758383 2797.310248182707
1769.1190448605284 2936.422581688087
1769.836138724937 2849.375294456769
1770.5530593958665 2982.665170712131
1771.2698069175603 3198.830325128083
1771.9863813342326 3126.897513583323
1772.702782690094 2834.249267053686
1773.4190110293293 3108.70460650468
1774.1350663961111 3074.8940009729367
1774.8509488345844 2874.790650320088
1775.5666583888924 2974.3824837577135
1776.2821951031437 3154.6713043710183
1776.9975590214362 2964.925067292951
1777.7127501878585 3109.4193923717326
1778.4277686464684 3063.654711658201
1779.1426144413108 3094.131715816513
1779.8572876164162 3109.6153534388222
1780.571788215797 2851.564796357204
1781.2861162834415 2988.5242968277344
1782.0002718633277 2866.015543535358
1782.7142549994132 3037.946399236439
1783.4280657356376 2951.392384217049
1784.141704115922 2863.689612985073
1784.855170184177 2849.90771766755
1785.5684639842839 2995.8904898710075
1786.2815855601148 2601.0557692045877
1786.9945349555237 3085.14025107823
1787.707312214343 2804.861414474087
1788.4199173803918 2748.402259802954
1789.132350497468 2692.0847934786893
1789.8446116093583 2866.081502361368
1790.556700759822 2763.483830898194
1791.2686179926077 2894.3044950516205
1791.9803633514493 2847.8840366942186
1792.6919368800554 2683.0743502386003
1793.4033386221236 2939.933127551778
1794.1145686213295 3034.635701924311
1794.8256269213307 3082.0324746932283
1795.536513565774 2933.7467887637563
1796.247228598284 2664.617370191968
1796.9577720624693 2726.477904971327
1797.6681440019165 2827.0420517630846
1798.3783444602013 2954.0401704055234
1799.0883734808776 3000.490705950345
1799.7982311074884 2857.358031312352
1800.5079173835475 2966.13362619004
1801.2174323525633 2974.218201817989
1801.9267760580187 2802.9357549495553
1802.635948543386 2934.571623487673
1803.3449498521113 2807.449866256662
1804.0537800276325 2963.9233627684303
1804.7624391133668 2851.4929479556695
1805.47092715271 2574.08560417617
1806.1792441890484 2671.929548735764
1806.8873902657433 2863.717694103235
1807.5953654261448 2829.2074931497114
1808.3031697135812 2839.550183591849
1809.0108031713662 2861.5381418691118
1809.71826584279 2772.8458633989953
1810.425557771141 2782.163680316764
1811.1326789996747 3294.468256884697
1811.839629571632 2792.8798189411696
1812.5464095302468 2892.6638833469447
1813.2530189187182 2887.302475368482
1813.959457780249 2740.8076870035575
1814.6657261580076 3005.7811018870743
1815.371824095153 2746.4309151108505
1816.0777516348262 2906.4164781331365
1816.78350882015 2457.986999706985
1817.4890956942272 2592.231713917444
1818.1945123001533 2754.317917573345
1818.8997586809928 2815.3094933528528
1819.6048348798067 2753.2123506172575
1820.3097409396287 2750.515481180538
1821.0144769034796 3146.957673501235
1821.7190428143622 2875.674789701456
1822.423438715261 2865.065032173456
1823.1276646491478 2680.456980729837
1823.8317206589727 2847.5552598257964
1824.5356067876692 2865.0808343094723
1825.2393230781581 2795.143597738605
1825.942869573335 2470.442484110926
1826.646246316086 2646.6911693858915
1827.3494533492758 2775.9451070359764
1828.052490715756 2873.3438747321484
1828.7553584583547 2796.6985463916308
1829.458056619891 2915.3453506147503
1830.1605852431585 2706.6788090337122
1830.8629443709433 2621.786093871812
1831.5651340460063 2798.148282668693
1832.2671543110919 2572.730590825037
1832.9690052089318 2800.15620045873
1833.6706867822395 2549.542419814449
1834.3721990737104 2811.475124849
1835.0735421260233 2906.8222274730374
1835.774715981841 2672.866395778625
1836.4757206838058 2935.410336679006
1837.1765562745459 2815.967395135916
1837.8772227966747 2576.2643342098327
1838.5777202927839 2655.7723846449476
1839.2780488054523 2585.1579185120286
1839.9782083772352 2661.790960293818
1840.6781990506806 2986.8575937383966
1841.378020868313 2674.1230504040605
1842.0776738726418 2773.0458232812357
1842.777158106157 2575.170110733586
1843.4764736113375 2623.73013606953
1844.1756204306403 2760.3291355021183
1844.8745986065078 2781.5397578946704
1845.5734081813607 2509.737130946417
1846.2720491976124 2644.8867888138366
1846.970521697649 2529.9999875708827
1847.6688257238511 2764.1032175610517
1848.3669613185684 2640.793135259493
1849.0649285241452 2442.5709362637795
1849.7627273829057 2771.7415159771535
1850.460357937156 2695.704613998492
1851.1578202291857 2358.3549668141472
1851.8551143012664 2734.715517287725
1852.5522401956569 2673.2553415740726
1853.2491979545957 2944.7160179721964
1853.9459876203055 2585.530784748946
1854.6426092349902 2451.408222697204
1855.3390628408451 2591.643388946451
1856.0353484800362 2859.9918810055783
1856.7314661947203 2761.107121604342
1857.4274160270397 2482.434400048978
1858.123198019115 2565.6869965199085
1858.8188122130487 2428.3869932345733
1859.5142586509319 2553.283138532343
1860.209537374838 2689.6240735652054
1860.9046484268183 2512.99647893705
1861.599591848917 2927.2463882947964
1862.294367683151 2712.2395447726467
1862.988975971528 2483.825752488149
1863.6834167560355 2597.8341545840894
1864.3776900786452 2848.6713565179352
1865.0717959813119 2528.329778563014
1865.7657345059724 2411.5786808696503
1866.4595056945564 2555.5976354705167
1867.1531095889586 2651.8983627642638
1867.846546231076 2426.847907118899
1868.5398156627743 2875.8529551386036
1869.2329179259123 2518.5387649334752
1869.9258530623283 2837.877327458581
1870.618621113843 2563.165332108368
1871.3112221222636 2434.48145464722
1872.0036561293764 2419.6941254549483
1872.695923176956 2603.4725264834515
1873.3880233067594 2901.852019247538
1874.0799565605212 2359.145630599309
1874.7717229799673 2530.9849752876066
1875.4633226068036 2757.8023844244644
1876.1547554827175 2749.4443912174493
1876.8460216493859 2464.6823903048544
1877.5371211484617 2473.761697697605
1878.2280540215852 2803.9154612006146
1878.9188203103804 2342.2849934065957
1879.6094200564548 2523.0734671678156
1880.299853301396 2409.7588984873832
1880.9901200867826 2717.691037703825
1881.6802204541673 2592.747636040508
1882.3701544450942 2663.0646157333586
1883.059922101087 2325.2931894782178
1883.7495234636517 2373.1927713485707
1884.4389585742792 2421.118997993314
1885.1282274744517 2451.257034887793
1885.8173302056166 2505.0495424428805
1886.506266809225 2558.9178012621073
1887.195037326701 2394.589897156323
1887.8836417994517 2555.297389096374
1888.5720802688702 2833.420367418169
1889.260352776333 2714.7394196440864
1889.9484593632042 2691.7573404169084
1890.63640007082 2471.6405830273543
1891.3241749405151 2426.110562158153
1892.0117840135954 2728.8250732396077
1892.6992273313572 2457.092792086657
1893.3865049350788 2505.8816581748297
1894.0736168660223 2879.548150870163
1894.7605631654333 2591.7948826294105
1895.4473438745408 2301.6849308065152
1896.133959034556 2922.78333885863
1896.820408686679 2605.1714257860795
1897.506692872088 2890.231501415546
1898.192811631945 2464.5672032524703
1898.8787650073991 2538.327165426958
1899.5645530395832 2760.600686644929
1900.2501757696118 2709.96033619466
1900.9356332385796 2265.414324191866
1901.620925487574 2853.8145772651465
1902.3060525576602 2532.458583387146
1902.9910144898859 2667.5268885054566
1903.6758113252872 2465.7157612326355
1904.3604431048789 2584.8698372226127
1905.0449098696663 2673.3667856074844
1905.7292116606295 2437.341824419798
1906.4133485187394 2595.2800202915937
1907.0973204849488 2230.6062767190347
1907.7811276001976 2403.2115691559634
1908.4647699053967 2461.584211975127
1909.1482474414588 2402.1373920720653
1909.8315602492694 2342.458112258164
1910.5147083696957 2663.3416305613914
1911.1976918436012 2475.2418611775856
1911.880510711815 2371.370304054932
1912.5631650151681 2782.018607875603
1913.2456547944657 2343.518178761505
1913.927980090495 2359.007575905302
1914.6101409440362 2385.595499673844
1915.2921373958416 2603.413788096607
1915.9739694866603 2474.0915299854287
1916.655637257214 2787.6427351756083
1917.3371407482136 2427.849108379319
1918.0184800003572 2824.275601805638
1918.6996550543154 2615.905526441396
1919.3806659507554 2471.1335783760833
1920.0615127303208 2545.094102096842
1920.7421954336423 2721.1764422912584
1921.4227141013343 2739.383079145361
1922.103068773993 2550.234713411093
1922.783259492202 2643.705678231449
1923.4632862965227 2506.5451085808145
1924.1431492275078 2449.437315993453
1924.8228483256917 2247.926210134644
1925.5023836315922 2370.8055470135364
1926.1817551857057 2137.416992653917
1926.8609630285227 2655.7170929167955
1927.5400072005123 2681.3515957999616
1928.218887742125 2328.1873705621188
1928.8976046938005 2307.026229556247
1929.5761580959588 2526.952869240411
1930.2545479890086 2465.9160733554663
1930.9327744133352 2147.3675679816206
1931.6108374093164 2458.5161852812444
1932.2887370173066 2801.4892137160305
1932.9664732776473 2659.039410825709
1933.6440462306673 2516.1659108114795
1934.3214559166754 2317.583705993184
1934.9987023759659 2677.693820276601
1935.675785648813 2618.9161335323106
1936.3527057754836 1971.2086335736935
1937.029462796223 2820.8742428734035
1937.70605675126 2180.645884424022
1938.3824876808085 2334.2971233678823
1939.058755625072 2348.3550438479483
1939.7348606242267 2323.393747246157
1940.4108027184448 2487.3796702309696
1941.0865819478713 2626.8952166902054
1941.7621983526478 2427.0956258369397
1942.4376519728921 2265.124543308899
1943.1129428487038 2492.0387784667805
1943.7880710201734 2470.7869894857445
1944.4630365273733 2604.1281929974284
1945.1378394103576 2188.399700277469
1945.8124797091714 2154.49929470448
1946.4869574638324 2120.456235712114
1947.161272714353 2329.885826788067
1947.8354255007234 2473.9849206170484
1948.5094158629272 2217.1974386996017
1949.1832438409183 2499.73122233181
1949.8569094746435 2564.907708492719
1950.530412804037 2723.2292880148957
1951.2037538690092 2675.218659179352
1951.8769327094578 2385.348201843914
1952.5499493652678 2331.999704339641
1953.222803876306 2621.741993242974
1953.895496282421 2567.3078981401964
1954.5680266234522 2528.240023689741
1955.2403949392155 2432.4844399826493
1955.9126012695142 2212.68082987658
1956.5846456541403 2340.9378971159763
1957.2565281328643 2383.463266950264
1957.9282487454457 2510.149774792532
1958.5998075316202 2596.050891178435
1959.27120453112 2242.821324644355
1959.9424397836501 2432.6351858407907
1960.613513328908 2552.217889296461
1961.2844252065697 2341.4097373170666
1961.9551754563017 2130.2020354977512
1962.6257641177453 2301.713165787437
1963.29619123054 2046.711216187107
1963.966456834296 2292.941481378388
1964.6365609686181 2126.9819436531616
1965.306503673086 2572.3228109534816
1965.976284987275 2206.166939741898
1966.645904950734 2357.1311297717616
1967.315363603002 2281.3122707237685
1967.9846609836077 2352.3401069001347
1968.6537971320486 2407.5164274768827
1969.3227720878222 2349.073708512936
1969.9915858904042 2422.9059231348906
1970.660238579252 2416.800336986325
1971.3287301938108 2230.940636419895
1971.997060773514 2190.503837976013
1972.665230357772 2141.382489092998
1973.3332389859843 2297.42670725992
1974.0010866975335 2072.351730272364
1974.6687735317864 2320.155256246366
1975.3362995280932 2409.539750711423
1976.003664725793 2387.6839808028917
1976.6708691642052 1991.7411446131744
1977.3379128826364 2319.4686137672834
1978.004795920373 2450.325295358155
1978.6715183166925 2220.1035591968075
1979.3380801108524 1989.6121133631864
1980.0044813420973 2261.0964538416815
1980.6707220496555 1875.335865348572
1981.3368022727373 2251.2528614390476
1982.0027220505417 2430.0192130147857
1982.66848142225 1836.901331364222
1983.3340804270283 2042.9597389349074
1983.999519104027 2314.6609957601595
1984.6647974923835 2274.8605882368333
1985.329915631215 2461.966557279243
1985.99487355963 2317.5673954683166
1986.6596713167146 2522.0082778949536
1987.3243089415428 2146.5184298769377
1987.9887864731754 2508.27883013786
1988.6531039506553 2057.363730670911
1989.3172614130071 2154.0497328753763
1989.9812588992481 2250.936571538089
1990.645096448372 1918.082878137199
1991.3087740993633 2265.106700058271
1991.9722918911848 2189.1536195905605
1992.635649862792 2253.0782536347338
1993.2988480531185 2357.7854366104925
1993.9618865010852 2705.6986805379747
1994.6247652455968 2236.392860446427
1995.287484325545 2187.895586980102
1995.9500437798033 2220.975967092084
1996.6124436472292 2200.1122105955274
1997.2746839666706 2468.51967038965
1997.936764776954 2229.9914060286387
1998.598686116895 2124.062199194373
1999.2604480252903 2407.649101185324
1999.9220505409212 2372.400165096177
2000.5834937025593 1995.6008428328983
2001.2447775489582 2252.87497108785
2001.9059021188514 2238.515427479092
2002.5668674509616 2167.2273156726137
2003.2276735839987 2225.650217093188
2003.8883205566508 2525.640074811427
2004.5488084075987 2129.547095866778
2005.2091371755014 2276.797297309165
2005.8693068990033 2024.951660456069
2006.5293176167397 2360.033004671193
2007.1891693673224 2032.5477081911606
2007.848862189354 1914.2050314883513
2008.5083961214223 2235.1228999990326
2009.1677712020955 2155.5459931095875
2009.8269874699254 2017.6230175086307
2010.4860449634598 2032.1923070608223
2011.1449437212177 2046.9195848034822
2011.8036837817108 2480.4282377492227
2012.4622651834325 2365.7363508400636
2013.1206879648653 2399.6690983935446
2013.7789521644736 2412.7655627126937
2014.4370578207036 2316.0310658812605
2015.0950049719922 2218.9716478078067
2015.7527936567585 2320.3772338853546
2016.4104239134067 2321.6604908302415
2017.067895780323 2711.067513171137
2017.725209295886 2645.4890161808617
2018.3823644984514 2579.6634991826763
2019.0393614263648 2326.136174530631
2019.6962001179545 2109.1156540927955
2020.3528806115355 2482.5968630844104
2021.0094029454067 2238.5446140939557
2021.6657671578487 2049.3964374481466
2022.321973287133 2149.61349788722
2022.9780213715148 2118.4797114913044
2023.6339114492293 2164.6031056642223
2024.2896435585026 2229.2624934553355
2024.9452177375442 2274.8747394751585
2025.600634024544 2487.8136191936237
2026.2558924576842 2205.9253148252596
2026.9109930751292 2390.353419706017
2027.565935915025 2211.366192649767
2028.2207210155066 2493.000441885606
2028.8753484146964 2500.4787056057803
2029.529818150695 2446.3551818052006
2030.1841302615903 2391.8985527663476
2030.8382847854573 2024.1126184745262
2031.4922817603601 2336.524398727487
2032.1461212243357 2144.5729871017143
2032.7998032154192 1983.6783539970688
2033.4533277716218 2125.147817541486
2034.1066949309443 2039.2230540133405
2034.7599047313688 2067.327637359306
2035.4129572108704 2093.1513379478265
2036.0658524074006 2235.7001925432073
2036.7185903589016 2159.156628476467
2037.3711711032956 2293.2770310072206
2038.023594678496 2116.459900887358
2038.675861122394 2063.2975706667557
2039.3279704728757 2379.755385280273
2039.9799227678031 1963.8824184813286
2040.6317180450278 2141.5735703751498
2041.2833563423865 2057.709502496128
2041.9348376977014 2451.7257073572373
2042.5861621487784 2332.3007236958338
2043.2373297334088 2345.057896586931
2043.8883404893695 2210.356404676338
2044.5391944544208 2267.265118215053
2045.1898916663158 2394.4766660636633
2045.8404321627804 2414.2720289990857
2046.4908159815368 2054.3554928444
2047.1410431602853 2023.1450515507283
2047.7911137367173 2009.6952642729332
2048.441027748504 2417.780368744536
2049.090785233302 2067.7380268760594
2049.7403862287592 2157.3352845761256
2050.389830772503 2458.148112166529
2051.0391189021466 1980.7285494171676
2051.688250655294 2276.3007316734484
2052.337226069527 2007.7207303156902
2052.986045182417 1874.5851149273378
2053.634708031521 2305.736032738763
2054.283214654375 2173.499261735992
2054.931565088511 1854.9521826171767
2055.579759371436 1988.699384376558
2056.2277975406523 2208.4742471726026
2056.8756796336384 2411.4275600248297
2057.5234056878617 1822.1184000442522
2058.1709757407752 2061.8793974441214
2058.8183898298194 2320.797987425205
2059.465647992416 2338.290707404004
2060.1127502659747 2424.72661751467
2060.759696687888 1917.3190589098242
2061.4064872955405 2362.921328516478
2062.053122126292 2255.6027823235336
2062.699601217497 2101.8979927033192
2063.345924606485 1948.253395932433
2063.992092330587 2145.160567293429
2064.638104427102 2043.8400535991327
2065.283960933324 2422.722139556168
2065.92966188653 2140.930877579659
2066.5752073239855 2413.4132447563766
2067.2205972829397 1933.6166031400048
2067.86583180062 2250.628150653708
2068.5109109142522 2186.797024755725
2069.15583466104 2125.206475614673
2069.8006030781708 1889.3197137925206
2070.445216202821 2044.0046046311843
2071.089674072153 2136.120490080303
2071.7339767233116 2376.572057006514
2072.3781241934303 2151.768931194893
2073.0221165196253 2185.911492623705
2073.6659537390024 2010.025325193048
2074.3096358886505 2128.8425292370625
2074.953163005637 1999.7681708734212
2075.596535127028 1852.2828083869692
2076.2397522898664 2027.4823376561344
2076.882814531182 2142.1994033967976
2077.5257218879924 2155.038755357399
2078.1684743973 1897.1799560632794
2078.8110720960885 1985.5848019346474
2079.453515021336 2089.556971457311
2080.095803209997 2193.5924323515396
2080.7379366990135 2235.0116717586734
2081.37991552532 2215.451016523194
2082.0217397258275 2210.803642242058
2082.6634093374414 1792.809121993068
2083.3049243970418 2049.5660504520793
2083.9462849415067 2268.720960498441
2084.587491007689 2234.550887190135
2085.2285426324324 2074.6606352253843
2085.869439852564 2130.7053371825887
2086.510182704902 1962.5535140668312
2087.1507712262483 2054.552056768708
2087.791205453381 1743.5178209851006
2088.4314854230743 2175.12545768628
2089.0716111720867 2195.473828094031
2089.7115827371617 1754.8159123809437
2090.351400155023 1876.0536894994038
2090.991063462385 1997.6023673197808
2091.6305726959527 1774.7858800329122
2092.2699278924047 2286.0337538595136
2092.9091290884153 2073.737482021457
2093.548176320641 1884.3973804921575
2094.187069625721 2211.595063879934
2094.8258090402887 1806.5764245117941
2095.464394600951 2166.0562204446333
2096.102826344313 2054.625555908462
2096.741104306955 2278.926888236984
2097.379228525453 1982.7584296881182
2098.017199036358 2181.576998980725
2098.6550158762147 1977.7246290646926
2099.2926790815527 2214.6893825371903
2099.9301886888825 2231.25131901242
2100.5675447347076 2118.931985447869
2101.2047472555114 2266.7724599266508
2101.841796287761 2068.925526693072
2102.47869186792 2190.944392962044
2103.1154340324265 1968.8749156517479
2103.752022817709 1938.9226218563017
2104.388458260184 2190.9717597080653
2105.024740396251 1971.7993957051713
2105.660869262292 1983.5584642632753
2106.296844894685 2284.355850039124
2106.93266732978 1994.1230559731098
2107.5683366039284 2047.9741747850396
2108.2038527534532 2206.2657582364363
2108.8392158146726 2193.406182106437
2109.4744258238843 2086.846543256003
2110.1094828173755 2011.3216023529408
2110.744386831422 2433.095529847934
2111.3791379022787 2201.106213620587
2112.01373606619 2330.830808943566
2112.648181359389 2254.1012843543385
2113.28247381809 2087.5213175728313
2113.916613478492 2177.4620138875903
2114.550600376786 2188.614153615405
2115.1844345491445 1949.319784815831
2115.818116031729 2087.7381305395497
2116.451644860679 1962.0446792982348
2117.085021072133 1795.7582659516916
2117.718244702204 1849.9262767094974
2118.3513157869984 1994.48121682368
2118.984234362604 1865.3782212152084
2119.617000465092 1965.9841838857174
2120.249614130529 2400.9529760487576
2120.8820753949585 2067.112358973465
2121.5143842944162 1875.055562243734
2122.14654086492 1918.4594117789075
2122.7785451424734 1868.755807450704
2123.4103971630702 1819.1632325765338
2124.042096962681 2061.5193265375274
2124.6736445772767 2361.397722969287
2125.305040042802 1895.3941950162694
2125.936283395191 2130.428743657967
2126.567374670365 2070.078748396444
2127.198313904233 2072.606427025633
2127.8291011326855 1979.341068900308
2128.4597363916037 1885.6453670281007
2129.0902197168507 1965.6214200797779
2129.720551144279 1832.780185035022
2130.3507307097225 2343.335494824346
2130.980758449008 2408.3821263335813
2131.6106343979427 1908.6411557548054
2132.2403585923203 2285.1135419672487
2132.8699310679276 2376.1114990529977
2133.499351860526 2228.6820903478115
2134.1286210058715 2004.914607471495
2134.7577385397053 2135.924807820578
2135.3867044977487 2267.174663802116
2136.0155189157176 2336.1537796663733
2136.644181829308 2225.0669363435895
2137.2726932742025 1966.0917476801365
2137.901053286074 1890.5443823284525
2138.5292619005777 1814.953110356227
2139.1573191533535 1943.4280721909236
2139.7852250800315 1991.70290690926
2140.4129797162295 2143.3052724834733
2141.0405830975433 1859.3586421512039
2141.6680352595613 1828.3435351241449
2142.2953362378576 1797.2898068435345
2142.9224860679915 1917.797144330388
2143.549484785508 1875.4122444149348
2144.1763324259373 1967.1113360856157
2144.803029024799 1970.237578431023
2145.429574617594 1894.6449753821507
2146.0559692398165 2059.9444126981666
2146.682212926942 1940.8174771785502
2147.308305714432 2039.9830247829873
2147.9342476377333 2305.75930999508
2148.5600387322847 2284.2007624721846
2149.185679033506 2033.4682423585934
2149.8111685768017 1871.732254451593
2150.4365073975678 1805.5681969997815
2151.061695531187 2059.824069849437
2151.686733013021 2442.4877241015406
2152.311619878423 2150.885986460771
2152.9363561627342 1916.3124166636942
2153.560941901278 1636.335416186328
2154.1853771293663 2044.4145768860992
2154.809661882293 1901.0036936056833
2155.433796195348 1861.810969327699
2156.0577801037944 1822.3364643592508
2156.681613642895 2096.9955047997546
2157.3052968478896 1882.9966971643612
2157.928829754006 2188.6291555887206
2158.552212396462 2204.950871963415
2159.1754448104566 2212.4292378401624
2159.7985270311783 1682.8164362856612
2160.4214590938027 1678.7911524277563
2161.0442410334927 1623.3100660357604
2161.6668728853874 1695.082473254648
2162.289354684628 1767.0571997351853
2162.911686466332 2039.0834857356695
2163.533868265602 2053.8621368281615
2164.1559001175337 2263.007238308092
2164.7777820572046 2078.0671760142905
2165.399514119681 1978.4401162876736
2166.021096340013 1879.934762478172
2166.6425287532384 2409.323227352882
2167.263811394385 1720.3697215580646
2167.8849442984574 2233.886794137439
2168.505927500455 1756.3718874845763
2169.126761035366 2118.689109556858
2169.7474449381552 1818.1050240433094
2170.367979243778 1639.903373421747
2170.9883639871823 2224.04576149924
2171.608599203293 1807.1542669762262
2172.2286849270276 2465.3961081802786
2172.8486211932886 2485.7851959388145
2173.4684080369625 2164.865608271344
2174.0880454929265 1643.8365998478002
2174.7075335960417 1612.8596436608248
2175.3268723811543 1689.5972200693977
2175.9460618831 1766.5522634270255
2176.565102136701 2036.6703249954285
2177.1839931767627 1967.6477592622618
2177.802735038078 1898.4710397333663
2178.421327755432 1640.071996750727
2179.0397713635866 1658.2172198432067
2179.658065897298 1885.8921252198884
2180.276211391305 2072.618580236478
2180.8942078803357 1761.9944708990147
2181.5120553991 1944.816418500272
2182.129753982299 1698.9163185674
2182.7473036646206 2032.3907301951172
2183.3647044807367 2087.1335824127364
2183.9819564653044 1778.7905766398133
2184.599059652968 1896.8207286404547
2185.216014078367 2183.7686844607356
2185.832819776113 2119.571371164394
2186.4494767808137 2055.100395434497
2187.065985127063 1859.6960380234225
2187.682344849436 1766.676969211839
2188.298555982501 2160.1397617700777
2188.9146185608097 1878.284826646465
2189.530532618901 2037.3504584445018
2190.1462981912937 2000.9357650470108
2190.761915312507 2176.75887815227
2191.377384017036 2045.2389139026516
2191.9927043393654 1955.8263000469656
2192.6078763139667 2185.5616434830577
2193.2228999753006 1734.3574170020358
2193.837775357808 2006.7963939277365
2194.452502495922 1591.4765374812364
2195.0670814240602 1938.2903164011204
2195.6815121766285 1687.9471523111017
2196.2957947880186 1584.643847920202
2196.9099292926057 1481.1375196560498
2197.523915724758 1811.3772027762636
2198.137754118825 1788.5172489414235
2198.7514445091456 2188.834649061325
2199.3649869300443 2235.4998588371927
2199.9783814158327 2282.3679462560713
2200.5916280008096 2178.6465658320094
2201.2047267192593 2069.177975840552
2201.8176776054515 1937.2738234762019
2202.430480693649 1768.9566866304426
2203.0431360180955 2163.3030098038253
2203.6556436130195 2097.9359417234127
2204.268003512645 1559.8953118795885
2204.8802157511727 1804.9732619346419
2205.492280362796 1851.6162560166383
2206.1041973816937 1898.4405098022526
2206.715966842032 2007.787408463805
2207.3275887779655 2132.793405097801
2207.93906322363 1921.9129813604154
2208.550390213153 2018.4928875653313
2209.1615697806465 2186.8000586209546
2209.7726019602105 1743.0467179872871
2210.3834867859277 1536.8075330567995
2210.9942242918787 1811.5910097394874
2211.6048145121167 1933.9125711952765
2212.2152574806914 1860.5213563434568
2212.825553231638 1787.0911545042804
2213.435701798975 2471.1928849216874
2214.045703216707 1807.4496344311715
2214.655557518832 1559.4936393214257
2215.2652647393297 1548.1270941277312
2215.874824912169 1430.5249694051367
2216.4842380713 1866.9506925081077
2217.09350425067 1860.7229164153825
2217.7026234842033 1994.1291880281879
2218.311595805819 2012.3254323980193
2218.9204212494133 1911.9468719154647
2219.52909984888 2288.6602182210436
2220.137631638092 1539.8019933860865
2220.7460166509154 2385.0770919698507
2221.354254921198 1591.5733887824504
2221.9623464827764 1944.6786122910216
2222.5702913694713 1917.750728866718
2223.178089615096 2257.4307032544666
2223.7857412534486 1921.3232620254626
2224.39324631831 1705.5826307976592
2225.000604843457 1717.2137310225498
2225.607816862641 2062.138752746513
2226.214882409611 2091.232497789837
2226.8218015180973 2231.5163085595946
2227.4285742218217 1974.1078635152007
2228.0352005544864 1999.8848525263506
2228.6416805497847 1598.4704417800222
2229.248014241399 1912.2188438510152
2229.8542016629945 1568.2672024690798
2230.460242848223 1983.8829172535068
2231.0661378307304 1921.9078247755206
2231.671886644139 1859.9136443500279
2232.277489322065 1522.568360905179
2232.8829458981127 1440.6782393518681
2233.48825640587 1908.567327879179
2234.0934208789095 2490.6182325985146
2234.6984393507955 2237.377757326448
2235.3033118550793 1954.6958847838523
2235.9080384252975 1864.2262802367095
2236.5126190949723 1664.2030523326798
2237.1170538976166 1848.1569139356573
2237.721342866729 1723.918296905868
2238.32548603579 1826.303578810334
2238.9294834382763 1879.0389066479595
2239.533335107646 1861.47725382481
2240.1370410773434 1971.4866846530633
2240.740601380803 1948.0711570239619
2241.3440160514474 1924.6381688129652
2241.9472851226783 2137.9334668551837
2242.550408627896 1963.1134484106472
2243.1533866004793 2234.3051218370947
2243.756219073799 1833.8012684296548
2244.3589060812064 1693.7705555217835
2244.961447656049 1751.4017499469405
2245.5638438316564 1751.5320473259867
2246.166094641343 1917.411754549144
2246.7682001184166 1646.7862319286728
2247.3701602961664 1641.0023201040228
2247.971975207871 2015.0746646704713
2248.5736448867974 2036.3405097432824
2249.175169366197 1791.4468853116348
2249.7765486793123 1867.4115545358134
2250.3777828593684 1909.125647529157
2250.9788719395783 1734.685874955822
2251.579815953146 1856.668049547719
2252.1806149332606 1632.5249817328754
2252.781268913097 1842.5692039974233
2253.381777925817 1698.7562210618064
2253.9821420045737 1918.053049056775
2254.5823611825035 2127.1828441212183
2255.1824354927303 1805.2316127303245
2255.782364968365 1640.9353641494254
2256.38214964251 1476.462850343763
2256.9817895482483 1728.0688561219165
2257.5812847186553 1814.9812455749347
2258.180635186791 1597.0976539339629
2258.779840985704 1784.9091939776456
2259.37890214843 1917.4040694270655
2259.97781870799 2099.8728718614057
2260.5765906973957 1940.4331851875818
2261.175218149645 1833.5163521562135
2261.773701097718 1667.4737729031465
2262.3720395745895 1501.0995849507333
2262.970233613216 1487.199337199071
2263.568283246548 1729.102010068675
2264.1661885075137 1494.0075386155243
2264.763949429038 1587.5613452667271
2265.3615660440246 2116.6985063119273
2265.959038385374 1576.10550039522
2266.5563664859637 1567.3701558227308
2267.153550378669 1558.6966709331468
2267.7505900963424 2082.035176614239
2268.3474856718312 1646.7320750742415
2268.9442371379664 1585.8247700131844
2269.5408445275643 1799.6293139871934
2270.1373078734377 1821.405179888025
2270.7336272083758 1616.843503245639
2271.32980256516 1831.40182352511
2271.925833976562 1925.26689088479
2272.5217214753357 1977.8499767240016
2273.117465094223 1626.5496045159985
2273.7130648659586 1562.0365360998667
2274.308520823257 1711.300878180466
2274.903832998827 2025.6787091669444
2275.4990014253563 1615.9431898236837
2276.094026135528 1941.5908140804343
2276.6889071620117 1768.806238638464
2277.2836445374614 1897.1326437147065
2277.878238294519 1788.8166293083073
2278.472688465812 1612.1068384762361
2279.066995083962 1435.0758123867495
2279.6611581815705 1760.2605669338614
2280.255177791232 1808.142198342413
2280.8490539455233 1940.8282901979783
2281.442786677013 2073.85081312085
2282.0363760182554 2228.257871352861
2282.6298220017943 1551.3608449152757
2283.223124660155 2056.633283797511
2283.816284025859 2118.2363147179103
2284.4093001314086 2180.0663095821105
2285.002173009292 1647.5347885630194
2285.5949026919952 1843.713585609222
2286.1874892119777 1924.2570349327957
2286.7799326016993 1959.3702846053652
2287.3722328936 1532.367684538708
2287.964390120109 1469.3722111644963
2288.556404313642 1949.4003826964877
2289.1482755066027 2239.457160728332
2289.7400037313873 1943.162621895508
2290.3315890203703 1635.306623688722
2290.9230314059205 1633.4463572018415
2291.5143309203904 1631.6338720176525
2292.1054875961236 1683.698611388667
2292.6965014654506 2318.8335353112902
2293.287372560684 1671.0972610589547
2293.878100914131 2441.031926221371
2294.468686558086 1663.5439395268477
2295.059129524827 1833.9844735258434
2295.649429846617 1985.6752254816377
2296.239587555716 1656.2308490384748
2296.8296026843636 1716.9542438237295
2297.419475264791 1673.0842815504093
2298.0092053292137 1629.0287865326754
2298.598792909839 1969.5908430525208
2299.1882380388597 1778.9640280519045
2299.777540748455 1825.084559629114
2300.3667010707904 1871.1503661375398
2300.9557190380256 1973.3186115201909
2301.544594682302 1745.6538186788184
2302.1333280357503 2090.273715639548
2302.721919130485 1889.749913249802
2303.3103679986198 2101.5360622952194
2303.898674672242 2131.9782928144323
2304.486839183437 1679.6109610355081
2305.0748615642697 1814.9817072055462
2305.6627418468015 1792.6690394217712
2306.2504800630704 1526.5121881047573
2306.8380762451143 1882.423876108276
2307.425530424949 1863.5412298981366
2308.012842634582 1844.6007272742204
2308.6000129060103 2221.5537889323996
2309.187041271214 2204.59223710906
2309.773927762164 1688.2976543935329
2310.3606724108213 2149.5160479918013
2310.9472752491274 2081.200738634697
2311.5337363090184 2012.7619949166012
2312.120055622414 1672.0341505032127
2312.706233221221 1769.0375250972404
2313.2922691373424 1522.1751464743102
2313.8781634026564 1605.2500361093125
2314.463916049037 1688.5032599819347
2315.049527108342 1950.357675845235
2315.6349966124235 2298.410872435389
2316.2203245931123 2053.8320704030825
2316.8055110822315 1607.3111802176204
2317.3905561115935 1541.3772422444101
2317.9754597129977 1680.368159176883
2318.560221918229 1596.9832907974444
2319.1448427590603 1513.4439331406404
2319.729322267256 1626.4337541698476
2320.313660474563 1591.8911653536327
2320.8978574127195 1786.1278956141584
2321.481913113452 1980.967732265959
2322.0658276084705 1519.9077135045811
2322.6496009294806 1575.5242896795432
2323.233233108165 1668.116232862987
2323.8167241762058 1809.5285835445727
2324.4000741652617 1739.8578680020298
2324.983283106987 2017.6308737199356
2325.5663510330232 2159.668484131592
2326.1492779749933 1653.5094522047298
2326.7320639645204 2152.309000055441
2327.3147090332004 1526.598856059854
2327.897213212629 1650.9376476784328
2328.4795765343843 1775.3219736235442
2329.0617990300307 1565.1384332234106
2329.643880731124 2110.7129980423733
2330.22582166921 1694.117710385472
2330.807621875816 1469.2819389080228
2331.3892813824623 1244.213204110852
2331.9708002206517 1552.4456023706643
2332.5521784218818 1612.5628926280642
2333.133416017634 1672.8745776670833
2333.7145130393765 1795.4745203118553
2334.295469518571 2117.707756935723
2334.876285486658 2097.8471517143353
2335.456960975076 2001.9922703927546
2336.037496015242 1905.9578033965413
2336.6178906385667 1661.7108406381333
2337.198144876451 1898.3792785396931
2337.778258760278 1861.1573070684783
2338.3582323214214 1814.3961646656207
2338.938065591243 1767.4807817989317
2339.517758601087 2070.680706376576
2340.0973113822965 1855.8047628975885
2340.676723966193 1685.253709497682
2341.255996384094 1916.6292159289158
2341.835128667295 2010.18720508195
2342.4141208470883 1932.6404678932493
2342.992972954751 1872.2625133889164
2343.5716850215467 1808.275446407581
2344.1502570787306 1192.2399977863913
2344.7286891575386 1643.2497252632588
2345.3069812892045 2157.553110050698
2345.885133504944 1905.2383817704947
2346.4631458359618 1687.225410781019
2347.04101831345 1545.4702084190658
2347.6187509685915 1640.5797292175157
2348.196343832553 1645.0609044686375
2348.7737969364935 1763.0125697317737
2349.351110311558 1521.3354942998872
2349.9282839888765 1590.5015948883356
2350.5053179995757 1535.6534341176566
2351.0822123747585 1409.0377857746291
2351.658967145526 1496.8931421129691
2352.2355823429643 1584.9837245048152
2352.812057998144 1809.325694734187
2353.3883941421263 1779.477102771049
2353.9645908059647 1596.6635586741254
2354.540648020693 1728.6272068023566
2355.116565817336 1855.6308705513115
2355.6923442269126 1519.8388563436179
2356.2679832804224 1656.6159725327739
2356.8434830088518 1651.3211256045197
2357.41884344318 1614.0905702279958
2357.994064614377 1571.3973891950918
