#exp_cfg={"servo_angle": 0.0, "laser_lim": 100.0, "servo_angle_to": 18.0, "laser_wup": 0.0, "bt_dev": "EnSpectr-25AE3", "laser_wdn_max": 0.0, "frames": 10.0, "servo_used": 0, "servo_calib_use": 0, "laser_wdn_min": 0.0, "servo_pix_from": 90.0, "cooler_tout": 300.0, "servo_angle_from": 0.0, "servo_calib": "[-1.9174921013161362e-09, 3.9322238269163779e-05, -0.27385609119055809, 653.59552119713567]", "laser_autoctl": 0, "servo_pix_to": 3682.0, "laser_pw": 100.0, "cooler_on": 0, "laser_volt": 4.0, "cooler_autoctl": 0, "cooler_curr": 70.0, "cooler_startup": 10.0, "laser_fixed_pw": 0, "gain": 1.3, "offset": 2.53059635486, "servo_calib_degree": 3.0, "laser_curr": 55.0, "shutter": 8200.0, "servo_calib_step": 1.0, "laser_fixed_curr": 0, "exp": 2000.0, "ccd_volt": 4.7, "bt_addr": "00:06:66:62:5A:E3", "servo_delay": 500.0, "laser_autooff": 1}
#proc_cfg={"flat_auto_wnd": 200.0, "flat_auto_fr": 200.0, "flat_auto_shift": 5.0, "yconv": 1, "flatten": 1, "flatten_strength": 100.0, "xfrom": 300.0, "auto_max_frame": 2000.0, "auto_signal": 48000.0, "flat_auto_tol": 0.1, "autoclip": 1, "xrel_range": 0.0, "flat_auto_to": 4000.0, "intensity_adj": 1.0, "xrel": 7852.0, "rmhot": 1, "flat_auto_slit": 4.999999999999997, "auto_ini_exp": 300.0, "auto_off": 0, "xto": 2860.0, "flat_auto_ref": "", "flat_auto_rank": 1, "autobackg": 0, "xrel_adj": 0.0, "auto_black_lvl": 1, "base_wnd": 100.0, "sub_baseline": 0, "xconv": 2, "auto_max_exp": 1000.0, "auto_total_exp": 10000.0, "auto_exp": 0, "rmripple": 0, "black_lvl": 8270.6, "shutter_clip_adj": 0.0, "auto_bckg": 0, "flat_auto_thr": 0.9, "subbackg": 1}
316.8218498245369 25223.653569672217
317.89969571804795 25093.813863247902
318.977263876126 25126.645653270574
320.05455438786703 24870.017421853212
321.1315673423287 24839.267550884342
322.2083028285215 24828.282911591126
323.2847609354267 24725.761107264763
324.3609417519747 24605.132073854325
325.43684536705587 24433.668218360668
326.5124718695279 24508.424109213294
327.58782134820103 24308.271479397234
328.66289389184385 24286.57055821785
329.7376895891921 24112.477811001878
330.8122085289342 24155.28328709528
331.88645079971866 24057.65326885223
332.9604164901575 23902.822322370117
334.03410568881554 23812.777438544803
335.1075184842266 23939.649391128492
336.18065496487543 23675.25114771937
337.2535152192122 23616.149463201808
338.32609933564163 23495.01023026566
339.39840740253203 23407.973354094636
340.4704395082099 23310.321100843757
341.5421957409617 23126.818185975957
342.6136761890357 23235.946429853
343.6848809406365 23021.524453136546
344.75581008392874 22943.888236841805
345.82646370703696 22916.388857432583
346.8968418980512 22911.405786976484
347.96694474501055 22978.82803527629
349.0367723359268 22802.405093359546
350.106324758759 22813.538340542415
351.1756021014353 22631.29101847113
352.2446044518383 22603.654809413467
353.31333189781435 22721.95889337855
354.38178452716966 22632.87153111054
355.449962427665 22624.981715747494
356.51786568702846 22490.839207629997
357.58549439294256 22668.34795090851
358.6528486330535 22595.741308120443
359.71992849496564 22591.230636073793
360.7867340662433 22532.787284218903
361.8532654344144 22513.36777866979
362.9195226869597 22559.139385052873
363.9855059113288 22441.51684301783
365.05121519492604 22403.37135129361
366.11665062511565 22508.902068730335
367.1818122892273 22414.256957253558
368.2467002745434 22407.502082661507
369.31131466831175 22379.995546804905
370.375655557742 22363.027769366694
371.4397230299983 22258.147177878156
372.5035171722102 22253.7879726934
373.5670380714637 22289.38479042984
374.6302858148101 22322.56788690864
375.6932604892554 22281.40590432012
376.7559621817709 22260.770217241767
377.81839097928605 22100.701971536695
378.8805469686886 22201.73476774024
379.94243023683157 22243.958126620197
381.0040408705263 22172.047366245235
382.0653789565458 22013.58601086446
383.1264445816196 22091.651007071163
384.1872378324406 22000.68290413316
385.2477587956637 21979.067352964576
386.3080075579037 21844.682051680662
387.3679842057336 21667.24433295255
388.4276888256918 21761.872576539867
389.48712150426945 21773.62461303657
390.54628232792857 21781.41556219036
391.6051713830857 21772.919605347914
392.66378875611736 21753.395232910487
393.7221345333637 21709.14841609119
394.7802088011249 21623.13530150911
395.838011645661 21602.39816676338
396.89554315319765 21495.475664573147
397.9528034099112 21488.44396780355
399.00979250194723 21375.594042626006
400.06651051541485 21351.154844125536
401.1229575363741 21378.08306097992
402.17913365085224 21214.593629053994
403.23503894483656 21358.8169732521
404.2906735042761 21251.093167052983
405.3460374150818 21110.41729615244
406.401130763119 21076.717878576055
407.455953634224 21171.003099029178
408.5105061141876 20905.192686663177
409.56478828876243 20837.290302847156
410.6188002436629 20730.729987790673
411.6725420645689 20793.83873532978
412.72601383711117 20751.95121217295
413.77921564689314 20891.276739280333
414.8321475794728 20569.704123156473
415.88480972036814 20608.55646763193
416.93720215506437 20655.43379636952
417.9893249690049 20477.849299856993
419.04117824759123 20427.077369978673
420.09276207619223 20393.437230938347
421.144076540133 20407.06751269429
422.1951217247042 20350.63690293717
423.24589771515275 20285.974253047665
424.2964045966928 20210.01150156253
425.34664245449494 20227.294183978283
426.3966113736933 20212.36458972825
427.4463114393875 20086.624664828963
428.49574273662984 20070.325522758954
429.5449053504417 20104.710326641263
430.5937993658026 20143.768996937746
431.6424248676558 19965.887962729113
432.6907819409007 19960.67954025215
433.73887067040596 19931.972514040845
434.7866911409965 19958.073111162947
435.8342434374608 19920.47581980908
436.88152764455117 19809.28701857267
437.9285438469724 19800.800255320573
438.9752921294057 19654.740536517067
440.02177257648145 19731.823433310296
441.06798527279716 19513.20083249188
442.1139303029122 19776.346434670875
443.1596077513459 19607.628786997677
444.2050177025794 19457.173856882182
445.25016024105753 19557.038146578874
446.2950354511886 19529.88612902091
447.33964341733736 19588.615070788328
448.383984223834 19352.290521234165
449.4280579549686 19381.714515524884
450.471864694995 19441.582675793517
451.5154045281306 19447.95663644929
452.5586775385509 19425.80769402188
453.60168381039693 19449.170262836593
454.64442342776783 19524.465763943455
455.6868964747264 19428.657478123157
456.7291030353008 19387.353572664673
457.77104319347563 19447.027683108125
458.8127170332027 19326.104903969805
459.854124638392 19327.10527996321
460.895266092919 19567.387870942344
461.93614148061897 19448.601736587072
462.97675088529104 19491.36662554525
464.01709439069236 19454.88403974336
465.0571720805492 19349.051840702803
466.0969840385442 19329.082417421934
467.1365303483253 19406.84512288197
468.17581109350067 19205.60494080353
469.2148263576437 19186.77528756141
470.2535762242878 19242.25038975154
471.29206077693016 19307.6297232289
472.33028009902773 19340.83021993025
473.3682342740012 19417.918138747893
474.40592338523857 19306.811158503668
475.4433475160804 19408.62104942122
476.4805067498364 19335.569789333946
477.51740116978 19272.46424202459
478.5540308591426 19555.82097173524
479.59039590112116 19639.57325587862
480.6264963788726 19546.723437238983
481.6623323755193 19773.268070722002
482.6979039741436 19868.91066692002
483.7332112577915 20100.963767630186
484.76825430947247 20286.636220951805
485.80303321215797 20389.48191676295
486.837548048783 20471.569255876864
487.8717989022425 20647.31568698388
488.90578585539697 20725.191300594655
489.9395089910686 20812.225343999613
490.97296839203955 20746.04212322944
492.00616414106116 20642.878048653754
493.0390963208429 20693.452379627703
494.0717650140559 20737.317851688695
495.10417030333883 20651.0551227382
496.1363122712901 20526.032071209866
497.16819100046814 20258.92214382642
498.1998065734024 20000.803427224942
499.2311590725767 19887.971703790663
500.26224858044407 19742.42503831225
501.2930751794156 19558.082942622765
502.3236389518679 19575.143541234214
503.35393998014115 19326.465707836996
504.38397834653733 19292.754535093038
505.4137541333221 19117.043471777277
506.4432674227228 19021.47202034595
507.4725182969323 18858.221375762467
508.5015068381035 18856.047339720844
509.53023312835467 18787.555259950685
510.55869724976765 18810.048101139422
511.58689928438434 18569.612632665376
512.6148393142121 18536.490669876188
513.6425174212218 18611.216825181695
514.6699336873462 18434.028952532608
515.6970881944835 18469.197274708764
516.7239810244901 18312.364999879435
517.7506122591931 18273.46885527132
518.7769819803761 18272.530983420234
519.8030902697901 18341.87952485485
520.8289372091476 18257.05552554981
521.8545228801249 18437.686180878583
522.8798473643619 18259.87472840178
523.9049107434621 18151.37316829689
524.9297130989908 18219.082192263373
525.9542545124805 18090.727286981702
526.9785350654201 18006.903295111828
528.0025548392696 18113.190937107258
529.0263139154504 18010.871541940058
530.0498123753423 17928.466699033484
531.073050300296 17890.588114491187
532.0960277716204 17751.023217268088
533.1187448705896 17823.15686580363
534.1412016784416 17783.9236086111
535.1633982763833 17722.25266213768
536.1853347455726 17646.930658065296
537.2070111671401 17617.827085900044
538.2284276221817 17589.339988904765
539.2495841917516 17529.08057889174
540.2704809568677 17393.39897313737
541.2911179985167 17437.40245918328
542.3114953976419 17396.854240963658
543.3316132351592 17275.96967151257
544.3514715919409 17267.531123448374
545.3710705488247 17206.9199640514
546.3904101866156 17344.165270853642
547.4094905860784 17289.06460653118
548.4283118279418 17227.56518862223
549.4468739929034 17284.840730731445
550.4651771616191 17183.317327535544
551.4832214147063 17105.16900986244
552.501006832761 17143.285436122365
553.5185334963226 17111.11072248213
554.5358014859103 17141.850992037675
555.5528108820035 17104.55647357247
556.5695617650363 17083.62792772299
557.5860542154242 17115.839691662477
558.6022883135283 17029.64562195041
559.6182641396881 17020.124670273508
560.6339817741991 16985.39309295864
561.6494412973225 17004.427962566326
562.6646427892883 17091.764008560433
563.6795863302796 16850.170938171603
564.694272000459 16883.809737443084
565.7086998799423 16973.531226461135
566.7228700488104 16935.223013154326
567.7367825871115 16886.251614693785
568.7504375748576 16782.62754513252
569.7638350920224 16758.76355173911
570.7769752185486 16767.097905634157
571.7898580343353 16712.27003849768
572.802483619258 16642.432927036352
573.8148520531431 16845.636561935782
574.8269634157932 16807.504278544504
575.8388177869692 16696.339181318228
576.8504152463938 16796.40388255402
577.8617558737587 16931.566111202163
578.8728397487175 16875.045526336755
579.883666950891 16872.832267006164
580.8942375598654 17058.574944423108
581.9045516551851 17044.702418305686
582.9146093163617 17325.705206332674
583.924410622878 17205.21335312672
584.9339556541727 17246.604290417014
585.9432444896538 17376.542848758578
586.9522772086875 17245.719042531382
587.9610538906127 17352.078059579067
588.9695746147318 17280.247542878773
589.9778394603054 17409.181473185126
590.985848506567 17249.52692047836
591.9936018327098 17208.495606201974
593.0010995178891 16964.79148409438
594.0083416412344 17096.45102619158
595.0153282818283 16865.083153925327
596.0220595187293 16817.59220444809
597.0285354309508 16739.222955979527
598.0347560974806 16694.09424302866
599.0407215972609 16662.31159219674
600.0464320092051 16587.405549804957
601.0518874121954 16635.80414219042
602.0570878850685 16473.754597299052
603.062033506636 16500.61652813742
604.0667243556636 16438.924306811645
605.0711605108936 16329.341887247632
606.0753420510264 16547.245044948315
607.0792690547278 16397.104216660482
608.082941600629 16324.764793243085
609.0863597673306 16297.35299397029
610.0895236333909 16452.27131652631
611.0924332773357 16538.848969553488
612.0950887776617 16416.961783456296
613.0974902128219 16592.591547550717
614.0996376612384 16681.441404772566
615.1015312013005 16788.296509994954
616.1031709113595 16877.01311190291
617.1045568697336 16810.590556069204
618.1056891547069 17013.493924054714
619.1065678445229 17152.12687776155
620.1071930173985 17465.05475567846
621.1075647515099 17372.10531237962
622.1076831250048 17506.347741858444
623.1075482159849 17666.579874318264
624.1071601025305 17789.175133429373
625.1065188626781 17888.450867968837
626.105624574433 18312.51442455608
627.1044773157682 18232.653967058897
628.1030771646128 18347.231029313607
629.1014241988742 18509.695579400995
630.0995184964158 18654.894801660852
631.0973601350688 18888.83901131628
632.0949491926294 19125.06774056424
633.0922857468631 18773.50836398805
634.089369875499 18902.605534317798
635.0862016562278 18907.284549161028
636.0827811667077 18721.73084319003
637.0791084845641 18737.2565394218
638.0751836873878 18554.319428132214
639.0710068527369 18583.738166086718
640.0665780581294 18275.272553994884
641.0618973810506 18169.275887517302
642.0569648989604 18063.816439574308
643.0517806892676 17845.037089550002
644.0463448293649 17754.665862160346
645.040657396592 17493.412139345346
646.0347184682723 17389.75217147817
647.0285281216875 17203.668834327982
648.0220864340772 17001.181868307547
649.0153934826558 16952.580623429516
650.0084493446047 16848.03954034145
651.0012540970674 16698.53492413539
651.9938078171526 16605.03101202361
652.9861105819346 16472.12706505307
653.9781624684565 16564.16127538528
654.9699635537254 16327.401247623082
655.9615139147136 16313.027754191182
656.9528136283589 16054.167119480062
657.9438627715699 16196.70464623457
658.9346614212154 15977.006949884657
659.925209654135 15746.015645587802
660.9155075471263 15759.316973233344
661.9055551769616 15772.24927909001
662.895352620375 15753.271738211508
663.8848999540678 15556.75819562322
664.8741972547068 15444.26514549648
665.863244598926 15363.634425901992
666.8520420633213 15494.895256184405
667.8405897244611 15352.721095319965
668.8288876588758 15182.596361503805
669.8169359430613 15291.067554281977
670.8047346534822 15246.133509479394
671.7922838665672 15058.580042664378
672.7795836587156 15054.418623618429
673.766634106285 15277.21696757337
674.7534352856092 14998.246141248983
675.7399872729766 15032.474610941801
676.7262901446538 15007.30689002637
677.712343976862 14938.060712860033
678.6981488457986 15046.465007212319
679.6837048276229 14810.029290316137
680.6690119984596 14939.821023500608
681.6540704344043 14853.351875748089
682.6388802115107 14823.795614550987
683.6234414058108 14731.086134444457
684.6077540932874 14754.488222629021
685.591818349907 14740.064466041766
686.575634251587 14702.505141000132
687.5592018742263 14584.492194860164
688.5425212936734 14369.335085679419
689.5255925857564 14602.390631790617
690.5084158262707 14463.122590571473
691.4909910909646 14349.127795108321
692.4733184555644 14369.550781125236
693.4553979957618 14391.387548962677
694.4372297872123 14329.825534203268
695.4188139055404 14306.620616785975
696.4001504263324 14185.148980878474
697.3812394251509 14310.124742946322
698.3620809775111 14293.319475614067
699.3426751589104 14183.83810717926
700.3230220448004 14076.6295399727
701.3031217106054 14199.280831381053
702.2829742317172 14372.128985707439
703.2625796834873 14087.125239259456
704.2419381412474 14128.81212892849
705.22104968028 14196.10301264757
706.1999143758458 14120.467225770553
707.178532303169 14160.148004777622
708.1569035374378 14259.276026282774
709.1350281538107 14339.308074734825
710.1129062274158 14303.650529599976
711.0905378333373 14434.445847429291
712.0679230466376 14479.60252309396
713.0450619423427 14665.30300464014
714.0219545954424 14808.234066512867
714.9986010808989 14681.893981820944
715.9750014736292 14831.297615772846
716.9511558485392 15103.602262533506
717.9270642804786 15191.65119099149
718.9027268442787 15283.817676176175
719.8781436147328 15190.651392297335
720.8533146666014 15152.019975051273
721.828240074612 15273.64223195595
722.8029199134635 15235.116840924165
723.7773542578125 15108.067784531851
724.751543182294 14965.8185939024
725.7254867615029 15072.91964900191
726.6991850700015 14853.445719661084
727.6726381823228 14833.074596497356
728.6458461729599 14779.544189636672
729.6188091163858 14798.230516085818
730.5915270870246 14769.856431642853
731.5640001592856 14707.87423744176
732.536228407529 14833.019485059654
733.5082119060917 14855.143482522928
734.4799507292755 14880.639739205139
735.4514449513481 14995.465885659392
736.4226946465496 15067.646738850319
737.3936998890786 15125.595201144368
738.3644607531078 14880.987141712108
739.3349773127793 14886.520713545664
740.3052496421951 14797.603784305702
741.27527781543 14565.99523420689
742.2450619065221 14472.069172843208
743.2146019894826 14339.346271591261
744.183898138288 14231.036837916112
745.1529504268801 14024.027710651975
746.1217589291682 13820.578824405364
747.0903237190341 13762.106591358572
748.058644870318 13640.5013884271
749.0267224568397 13472.111557828224
749.994556552374 13320.674266902983
750.9621472306771 13327.500172415783
751.9294945654583 13271.199286534535
752.8965986304011 13244.968241475228
753.8634594991636 13197.293226837322
754.8300772453586 13170.167800526708
755.7964519425768 13130.352611000253
756.762583664371 13189.55139603896
757.7284724842611 13146.105163903932
758.6941184757416 13075.592399193967
759.6595217122667 13002.196113332926
760.6246822672638 13018.262960624601
761.5896002141235 12849.540106058188
762.5542756262093 12992.593364346723
763.5187085768503 13001.278240686333
764.4828991393406 12899.68022305959
765.4468473869474 12878.364115617407
766.4105533929032 12871.408966370025
767.3740172304078 12823.935534043354
768.3372389726283 12904.361974944732
769.3002186926988 12654.397735207373
770.2629564637282 12632.011659851658
771.2254523587872 12667.509661767022
772.1877064509154 12548.08135601579
773.1497188131179 12450.648159161246
774.1114895183728 12331.851077794607
775.0730186396268 12333.356050251707
776.0343062497905 12225.06797527125
776.9953524217381 12215.65200362098
777.9561572283274 12245.27445303859
778.9167207423689 12209.920724224741
779.8770430366476 12099.893722314699
780.8371241839159 12194.056750670106
781.7969642568951 12042.59200633298
782.7565633282757 12265.23961348419
783.7159214707099 12104.529659731894
784.6750387568281 12228.486206278685
785.6339152592227 12093.582459923598
786.5925510504512 11962.149733531516
787.5509462030477 12142.853284334267
788.5091007895098 12049.796583566722
789.4670148823006 12107.869324633191
790.4246885538596 12026.990436737244
791.3821218765861 12061.239321404839
792.3393149228505 11929.071093588527
793.2962677649975 12174.49760323696
794.2529804753303 12152.137151762054
795.20945312613 12200.254616687518
796.1656857896378 12068.142181302257
797.1216785380675 12067.162638160673
798.0774314435985 12242.92599812411
799.0329445783846 12332.414520129261
799.9882180145414 12279.5494710885
800.9432518241574 12216.277464580176
801.89804607929 12306.909377094056
802.852600851962 12386.77679781546
803.8069162141637 12361.129422212513
804.760992237856 12439.725452954115
805.714828994971 12389.498984370115
806.6684265574077 12503.020359545226
807.6217849970271 12364.139972608593
808.574904385674 12399.84579172622
809.527784795142 12389.224259280843
810.4804262972102 12446.276876027896
811.4328289636178 12195.430499617849
812.3849928660748 12108.622202425366
813.3369180762638 11989.034917465156
814.2886046658241 12057.363861550735
815.2400527063783 11906.707759697916
816.1912622695108 11799.20943976961
817.1422334267718 11813.871598546719
818.0929662496856 11717.916356149397
819.0434608097457 11516.432276577962
819.9937171784059 11551.703322501493
820.9437354271013 11444.470584429651
821.8935156272255 11505.697885836144
822.8430578501484 11364.831832761936
823.7923621672016 11257.479132513774
824.7414286496896 11376.377566464003
825.6902573688876 11318.675466312297
826.6388483960363 11215.868888817327
827.5872018023492 11077.637196584366
828.5353176590033 11257.340015069378
829.4831960371503 11013.100884088706
830.4308370079016 11044.860933930917
831.3782406423525 11029.378216481962
832.3254070115545 11076.229174899114
833.2723361865319 10945.119092241946
834.2190282382799 10995.471062124223
835.1654832377644 10942.011339156687
836.1117012559116 10904.20612012994
837.0576823636256 10997.593223425185
838.003426631778 10898.14277146062
838.9489341312074 10756.428306525328
839.8942049327197 10923.361174166119
840.8392391070975 10987.61052203264
841.7840367250865 10815.732629215749
842.7285978573982 10739.810696002784
843.672922574724 10842.89797744213
844.6170109477152 10699.667643883175
845.560863046996 10705.199695042562
846.5044789431595 10705.883029481762
847.4478587067697 10689.327885182549
848.3910024083561 10918.453821576597
849.333910118421 10767.110600090165
850.2765819074339 10743.756237350963
851.2190178458332 10838.776883630033
852.161218004032 10792.486648637696
853.1031824524016 10700.485686886423
854.0449112612987 10686.619990675637
854.9864045010327 10812.458587063284
855.9276622418947 10633.115421098788
856.8686845541379 10680.598508796978
857.8094715079915 10700.859827008742
858.7500231736467 10881.503086985296
859.690339621271 10718.166717631702
860.6304209209939 10698.092056353196
861.5702671429244 10627.363704144758
862.5098783571284 10708.100776031348
863.4492546336569 10806.26826986182
864.3883960425155 10638.689544964984
865.3273026536863 10565.741715378896
866.2659745371238 10626.793833503383
867.2044117627465 10770.983092469543
868.1426144004472 10604.703849554884
869.0805825200823 10734.943870250667
870.0183161914847 10671.411986020226
870.9558154844526 10794.689679217034
871.8930804687552 10712.667777961738
872.8301112141307 10617.047150419387
873.7669077902865 10817.338963103448
874.7034702669062 10913.86702875883
875.6397987136315 10764.801222748614
876.5758932000863 10866.607791588533
877.5117537958522 10931.989214612335
878.4473805704911 10829.279791223786
879.3827735935283 10823.546852112864
880.3179329344603 10929.202006490867
881.2528586627541 11048.371266513444
882.1875508478479 11042.51818775852
883.1220095591489 10826.875989621216
884.0562348660296 10886.405580623024
884.9902268378391 11008.980801543292
885.9239855438955 10820.573590033757
886.8575110534839 10827.70858580108
887.7908034358588 10893.914140770003
888.7238627602474 10815.689569202941
889.6566890958475 10823.347009349256
890.5892825118208 10609.980139117535
891.5216430773125 10717.200146017714
892.4537708614189 10713.724143571804
893.3856659332196 10540.84856272076
894.3173283617652 10438.274770573056
895.2487582160684 10531.494867429752
896.179955565116 10476.679446738577
897.110920477864 10344.241544816497
898.0416530232451 10311.886161781664
898.9721532701478 10283.50499108534
899.9024212874428 10327.705209320178
900.8324571439662 10158.64424377248
901.7622609085302 10100.282334247786
902.6918326499072 10096.28054256507
903.6211724368477 10157.69130464076
904.5502803380696 10186.288214526552
905.4791564222614 10263.600573421554
906.4078007580792 10030.56582561472
907.3362134141571 10102.356418059366
908.2643944590909 10211.905945513432
909.1923439614493 10022.908403083016
910.1200619897754 10055.879141951442
911.0475486125779 10145.537132439506
911.9748038983344 10100.340649804659
912.9018279155007 10007.803156525082
913.8286207324982 9950.686494443504
914.7551824177117 10027.97552138772
915.6815130395116 9950.364238832834
916.6076126662283 9901.608889837025
917.533481366163 9965.576450937231
918.4591192075914 9935.35989552103
919.3845262587565 10132.4464939608
920.3097025878706 9833.74532834919
921.2346482631237 9879.139988609259
922.1593633526682 9905.77951545628
923.0838479246304 9981.70274466562
924.0081020471061 10088.271356989306
924.9321257881656 9747.986908865902
925.8559192158464 9890.37510533247
926.7794823981512 9845.508740977999
927.7028154030686 9744.412129761398
928.6259182985414 9750.203271782788
929.5487911524906 9924.738273575012
930.4714340328119 9876.292623887386
931.3938470073608 9569.386379999594
932.3160301439748 9678.512689426556
933.2379835104548 9680.728714488001
934.1597071745709 9829.105556055014
935.0812012040769 9737.691494700248
936.002465666681 9816.659238267848
936.9235006300696 9769.916105381119
937.8443061619055 9655.424566458456
938.7648823298077 9649.4065193066
939.6852292013809 9595.014633022553
940.6053468441951 9741.974821466974
941.5252353257874 9571.717278970482
942.4448947136698 9629.47155078792
943.364325075323 9676.852169344584
944.2835264782043 9667.378112976472
945.2024989897309 9672.564513194146
946.1212426773054 9673.362657570298
947.0397576082851 9720.127444640777
947.9580438500125 9781.964491285225
948.8761014697939 9798.454226093492
949.7939305349064 9762.9320682921
950.7115311125999 9593.429828201064
951.6289032700952 9652.919148180305
952.5460470745875 9772.417324013923
953.4629625932339 9677.078365188634
954.3796498931715 9775.747311844148
955.2961090415029 9734.819028181331
956.2123401053068 9795.137628310547
957.1283431516276 9705.254397802575
958.0441182474842 9646.224121943247
958.9596654598663 9827.140962009946
959.8749848557309 9670.577570772362
960.7900765020167 9600.993378591784
961.7049404656209 9622.891076305848
962.6195768134185 9680.176925045613
963.5339856122537 9660.666378900736
964.4481669289453 9628.699603852694
965.3621208302793 9556.73465254463
966.2758473830145 9506.776078524676
967.1893466538822 9671.645049004897
968.1026187095813 9506.497032628497
969.0156636167867 9444.225706226025
969.9284814421426 9623.251619821827
970.8410722522622 9474.51697880981
971.753436113735 9492.749194896427
972.6655730931161 9424.882220578846
973.5774832569368 9467.236820752565
974.4891666716958 9383.996536884139
975.4006234038698 9308.083265190135
976.3118535198955 9316.801276255961
977.2228570861935 9423.62677717611
978.1336341691494 9398.947146721173
979.0441848351202 9245.288221129285
979.9545091504333 9360.481017544642
980.864607181391 9363.578484410555
981.7744789942699 9383.228018065322
982.6841246553086 9266.204362318253
983.5935442307236 9300.339805917072
984.5027377867027 9387.382996662976
985.4117053894024 9345.619722259271
986.3204471049557 9218.500275244438
987.2289629994648 9331.260463094757
988.1372531390007 9470.495570363539
989.0453175896091 9366.92406015608
989.9531564173067 9370.2853289434
990.860769688079 9221.646643025259
991.7681574678918 9355.867208503185
992.6753198226706 9389.805573475061
993.582256818323 9277.311736541447
994.4889685207218 9321.467946129016
995.3954549957143 9447.95450312632
996.301716309119 9417.210927712167
997.2077525267232 9371.37203440882
998.1135637142943 9340.696631747624
999.0191499375615 9458.836544533704
999.924511262232 9461.354720321091
1000.8296477539861 9442.112108635289
1001.7345594784656 9350.983950811811
1002.6392465012996 9323.009676314572
1003.5437088880753 9398.973980022549
1004.4479467043584 9403.916698967976
1005.3519600156869 9159.526229348628
1006.2557488875718 9363.26174164369
1007.1593133854858 9366.253728634052
1008.0626535748888 9198.483716416094
1008.9657695212009 9174.829648946883
1009.8686612898182 9402.165700939428
1010.7713289461135 9391.927917654732
1011.6737725554212 9255.989459115319
1012.5759921830577 9276.78157128415
1013.4779878943027 9283.203628717794
1014.379759754418 9374.96662955766
1015.2813078286254 9202.9346936255
1016.18263218213 9115.581398642267
1017.0837328801026 9185.731947118951
1017.9846099876886 9251.756328877955
1018.8852635700023 9099.773585004676
1019.7856936921362 8984.49649093227
1020.6859004191447 9108.414971440237
1021.5858838160675 8979.170042522093
1022.4856439479063 8957.540450875113
1023.3851808796389 8921.62555706008
1024.2844946762143 9154.721224282785
1025.183585402554 9078.85041030035
1026.082453123554 8832.248309810637
1026.9810979040776 8882.306075520357
1027.8795198089647 8854.609701669458
1028.777718903024 8880.726120094918
1029.6756952510368 8812.145584779635
1030.5734489177648 8816.482860167054
1031.4709799679313 8851.03186944067
1032.3682884662358 8978.412323373912
1033.2653744773506 8803.31844485318
1034.1622380659192 8790.67048253269
1035.058879296559 8929.508365885624
1035.9552982338591 9070.809328210604
1036.8514949423825 8993.175318916235
1037.7474694866614 8976.613332569053
1038.6432219312028 9092.977987863711
1039.5387523404825 9275.258765280169
1040.4340607789582 9211.449496933212
1041.3291473110476 9269.612738433256
1042.2240120011465 9566.988012301746
1043.1186549136273 9713.353050388598
1044.0130761128294 9730.806271634607
1044.9072756630649 9858.931226594925
1045.8012536286205 10143.627323751092
1046.6950100737577 10183.962774519361
1047.588545062701 10441.21659453982
1048.481858659663 10461.024985461707
1049.3749509288118 10726.412634225024
1050.2678219343034 10611.451924126017
1051.1604717402515 10671.588504316338
1052.0529004107575 10692.541316128254
1052.9451080098825 10805.408211389784
1053.8370946016694 10807.255725263794
1054.7288602501267 10693.961661269828
1055.6204050192446 10590.18567160134
1056.511728972977 10561.73112761942
1057.402832175254 10449.159181810228
1058.2937146899785 10273.851054934392
1059.1843765810263 10153.33513859205
1060.0748179122456 10186.627608231163
1060.9650387474576 10042.759617170737
1061.855039150456 9926.767880776171
1062.7448191850071 9834.096729096003
1063.6343789148505 9756.675133153865
1064.5237184037014 9768.325826852253
1065.412837715241 9569.776588984383
1066.3017369131267 9385.219434727347
1067.190416060992 9328.565266813997
1068.0788752224398 9219.39258874473
1068.9671144610438 9118.289154438731
1069.8551338403558 9259.67691546403
1070.7429334239023 9167.794297333656
1071.6305132751695 8998.612510469391
1072.517873457633 9019.145327713766
1073.4050140347335 8970.710521541327
1074.2919350698776 8980.574383618912
1075.1786366264623 8997.048398187204
1076.0651187678395 8890.26101814346
1076.95138155735 8769.598499521599
1077.8374250582929 8771.560455239563
1078.7232493339507 8823.956159181473
1079.608854447577 8788.667961114563
1080.4942404623907 8701.028664239064
1081.3794074415982 8816.434312354053
1082.2643554483657 8783.623615735061
1083.149084545841 8645.990319925799
1084.033594797138 8565.784840229624
1084.9178862653516 8655.691107947421
1085.8019590135427 8719.480740241097
1086.6858131047484 8569.401174172866
1087.5694486019802 8725.928333933276
1088.4528655682225 8602.800075061936
1089.3360640664287 8793.778056230622
1090.2190441595321 8672.54689816576
1091.1018059104317 8738.531578343682
1091.98434938201 8731.36071504316
1092.866674637111 8743.48553960424
1093.748781738559 8656.451950043114
1094.6306707491512 8516.3444200661
1095.5123417316554 8722.755302371475
1096.3937947488157 8622.824487744256
1097.2750298633455 8648.201488761742
1098.156047137938 8540.573583622776
1099.0368466352556 8612.306588998688
1099.9174284179317 8834.540311565488
1100.7977925485757 8450.515700492519
1101.6779390897755 8552.066665237973
1102.5578681040806 8559.234350150045
1103.4375796540226 8555.190677670824
1104.3170738021054 8485.226496872558
1105.1963506108077 8341.133813130367
1106.0754101425773 8325.263468326757
1106.9542524598382 8512.87527412314
1107.8328776249855 8343.647841119619
1108.7112857003904 8286.66929739952
1109.5894767483987 8400.14242209556
1110.4674508313292 8501.460102492065
1111.3452080114657 8297.044951913322
1112.2227483510815 8445.920837087826
1113.1000719124077 8414.792460962288
1113.9771787576592 8559.025622426687
1114.854068949022 8402.371779352068
1115.7307425486542 8485.862650228555
1116.6071996186893 8604.931506404679
1117.483440221229 8676.066719088629
1118.3594644183577 8521.122974958598
1119.235272272128 8595.186766900522
1120.1108638445658 8813.225829356115
1120.9862391976712 8916.46050437653
1121.8613983934229 8844.79165931172
1122.7363414937627 9014.939742236234
1123.6110685606182 8979.874617961472
1124.485579655884 9185.067517317946
1125.359874841426 9026.371403902642
1126.2339541790916 9113.784111599338
1127.1078177306936 9295.124076128652
1127.9814655580267 9097.076402136972
1128.854897722851 9222.553581080101
1129.7281142869106 9273.605013956281
1130.6011153119125 9264.499229303596
1131.473900859548 9369.140213901042
1132.3464709914697 9157.204702305753
1133.2188257693178 9201.044223977853
1134.0909652546961 9071.697953301009
1134.96288950919 9006.549265330792
1135.8345985943506 9102.29830953819
1136.7060925717087 8877.914147461663
1137.57737150277 8930.786146190465
1138.4484354490069 9014.817688972349
1139.3192844718778 8792.789725799386
1140.1899186327992 8552.730078135839
1141.060337993178 8816.45765896914
1141.930542614382 8664.508820886393
1142.8005325577597 8387.22300253764
1143.670307884635 8423.300338174617
1144.5398686563003 8482.275069123463
1145.409214934025 8382.896397561432
1146.2783467790541 8153.230071953226
1147.1472642526023 8306.24449306639
1148.0159674158622 8281.101498465205
1148.8844563300026 8190.416710318966
1149.7527310561618 7953.209562703315
1150.6207916554504 8070.494486175306
1151.4886381889592 7950.290627787111
1152.3562707177498 8102.702644061015
1153.2236893028585 7879.959586374719
1154.090894005296 7905.577008739832
1154.9578848860474 7972.096556418791
1155.8246620060709 7914.007053273776
1156.6912254262988 7735.06146328352
1157.5575752076438 7801.714998579318
1158.42371141098 7951.1161791609675
1159.2896340971656 7950.1950123721035
1160.1553433270346 7760.4881565672895
1161.0208391613887 7809.637385275311
1161.8861216610057 7863.610114638572
1162.75119088664 7851.984606390846
1163.6160468990201 7772.886529837137
1164.4806897588442 7628.620627130498
1165.3451195267917 7841.858843354974
1166.2093362635114 7807.572717778447
1167.0733400296285 7724.338038659713
1167.9371308857444 7687.17271118898
1168.8007088924278 7622.586671050497
1169.6640741102328 7751.5076043535055
1170.5272265996773 7596.97306121213
1171.390166421259 7567.2386688869565
1172.252893635452 7620.511591931267
1173.1154083026995 7850.8680528726345
1173.977710483421 7689.301040393848
1174.8398002380145 7556.877843965638
1175.7016776268483 7641.036555155804
1176.563342710264 7534.798114199593
1177.4247955485826 7622.391065408739
1178.2860362020947 7789.180920323632
1179.147064731069 7532.114259227443
1180.0078811957483 7786.0488313067135
1180.8684856563486 7608.745645245201
1181.7288781730604 7757.564852928374
1182.589058806052 7811.83920873467
1183.4490276154593 7941.222025065368
1184.3087846614017 7739.358353818781
1185.1683300039676 7828.369227838679
1186.027663703222 8016.453136767156
1186.8867858192025 7934.540541457005
1187.7456964119228 7977.161582971259
1188.6043955413716 7926.894141535949
1189.4628832675116 8002.4468435381805
1190.3211596502842 8129.420119388038
1191.179224749596 8183.560354839722
1192.0370786253388 8011.386406235911
1192.8947213373758 8226.147169468375
1193.7521529455407 8313.134564189153
1194.6093735096438 8127.379170985136
1195.466383089477 8219.028898444629
1196.3231817447977 8215.453557588598
1197.1797695353398 8432.469833099422
1198.0361465208189 8073.8805936289955
1198.8923127609214 7986.650112074276
1199.7482683153048 8232.739640920696
1200.6040132436028 8291.158844762675
1201.459547605431 8159.641714275831
1202.3148714603722 8179.143462119211
1203.1699848679855 8158.370157660524
1204.0248878878065 8277.956041566124
1204.8795805793507 7992.170481037841
1205.7340630020935 8173.538723860131
1206.5883352155033 8260.737073813314
1207.4423972790064 8132.425411258223
1208.2962492520237 7966.765664859083
1209.1498911939307 7967.651705323924
1210.0033231640937 7959.779329161011
1210.8565452218427 7994.714969075603
1211.7095574264913 7737.884322599224
1212.5623598373222 7820.403869418646
1213.4149525135963 7770.9767081037935
1214.2673355145507 7788.035737443776
1215.1195088993936 7630.5314638186
1215.9714727273113 7793.362456852298
1216.8232270574663 7876.375418904693
1217.6747719489904 7584.086759659495
1218.5261074609934 7559.279789597551
1219.3772336525653 7654.044069813377
1220.2281505827668 7656.473956848403
1221.0788583106296 7774.165519464538
1221.9293568951707 7533.141491176859
1222.7796463953746 7535.371708938456
1223.629726870202 7620.058320161867
1224.4795983785934 7551.335794807446
1225.3292609794553 7550.169423374255
1226.1787147316809 7400.329062504321
1227.0279596941327 7439.56813273357
1227.8769959256424 7395.511008869592
1228.7258234850306 7494.510527301025
1229.5744424310833 7323.274521989275
1230.422852822563 7477.362103859918
1231.2710547182105 7557.911994371394
1232.119048176739 7396.19801757985
1232.9668332568417 7313.284293686806
1233.8144100171812 7466.594061194379
1234.6617785163999 7458.800493515939
1235.508938813111 7250.073301350558
1236.3558909659114 7328.667607876126
1237.2026350333617 7407.901362500372
1238.049171074008 7450.999550243758
1238.8954991463652 7356.298195084676
1239.741619308932 7339.788128229795
1240.587531620169 6190.802774594193
1241.4332361385277 7413.733925434196
1242.2787329224248 7226.891458385608
1243.1240220302534 7166.073854972137
1243.9691035203869 7183.640475555379
1244.813977451171 7482.271103519355
1245.6586438809263 7242.156851068934
1246.5031028679496 7086.287358597105
1247.3473544705157 7331.408004079417
1248.1913987468706 7301.965533152974
1249.0352357552383 7134.321501671975
1249.8788655538228 7296.613361183896
1250.7222882007918 7433.206353933779
1251.565503754302 7312.069947087673
1252.4085122724755 7236.048147802369
1253.2513138134182 7339.936587978433
1254.0939084352049 7333.762881124382
1254.9362961958905 7304.1512045155705
1255.7784771535007 7341.671580532946
1256.6204513660432 7346.81079014867
1257.4622188915 7443.184407804665
1258.3037797878242 7339.418503340539
1259.1451341129468 7243.787823253902
1259.9862819247755 7357.13613011492
1260.8272232811978 7354.237390694123
1261.6679582400666 7427.070235167281
1262.5084868592203 7198.098358333025
1263.34880919647 7251.972471684191
1264.1889253095997 7273.907160707912
1265.0288352563712 7414.136423662472
1265.8685390945266 7195.261733826245
1266.7080368817751 7425.855671122542
1267.5473286758115 7410.443828331848
1268.386414534294 7407.715474549843
1269.2252945148703 7118.856123720866
1270.0639686751547 7255.961984386651
1270.9024370727402 7294.993092006231
1271.7406997651997 7260.080114945854
1272.5787568100714 7186.877117633419
1273.4166082648808 7250.986733767264
1274.2542541871244 7353.6433275955715
1275.091694634275 7510.227270324055
1275.9289296637817 7085.474917896943
1276.7659593330663 7356.593790855011
1277.6027836995308 7281.687657797923
1278.4394028205552 7469.005337482447
1279.2758167534867 7288.748328975012
1280.112025555658 7156.938571503502
1280.9480292843746 7343.130676121533
1281.7838279969128 7132.262611102723
1282.6194217505326 7210.760071076494
1283.4548106024686 7050.465720391783
1284.289994609926 7207.005111165401
1285.1249738300921 7344.905852148151
1285.959748320127 7216.732391780303
1286.7943181371702 7181.735586861321
1287.6286833383328 7213.760103473595
1288.4628439807038 7376.0861869204655
1289.2968001213521 7177.155664583505
1290.1305518173194 7333.309424221469
1290.9640991256183 7420.93362070851
1291.7974421032523 7151.884852946721
1292.630580807183 7241.246662993513
1293.463515294361 7336.100611013292
1294.29624562171 7569.532129004045
1295.12877184613 7361.485081542461
1295.961094024493 7330.747276368417
1296.79321221365 7516.843957497707
1297.6251264704333 7478.26291808558
1298.4568368516466 7649.478419988096
1299.2883434140658 7551.5115449415225
1300.1196462144526 7404.2890071738275
1300.9507453095375 7578.013328393286
1301.7816407560313 7624.925479150265
1302.6123326106172 7555.095922321232
1303.4428209299622 7400.030286297374
1304.2731057707024 7829.142160740904
1305.1031871894502 7560.765732777409
1305.933065242798 7671.70882735765
1306.7627399873181 7571.3685278468165
1307.5922114795467 7964.346333969341
1308.4214797760123 8058.015882134385
1309.2505449332057 7706.733509065265
1310.0794070076026 7798.428105656833
1310.9080660556538 7884.033612580698
1311.736522133786 7937.403721116876
1312.5647752983987 7722.254774076757
1313.3928256058734 7579.561081244431
1314.2206731125661 7897.128621471353
1315.048317874809 7853.44269805616
1315.8757599489109 7639.346238838679
1316.7029993911547 7765.956861722239
1317.5300362578055 7969.545036357095
1318.356870605101 7839.097899766066
1319.183502489257 7735.374058736273
1320.0099319664623 7937.74947153538
1320.836159092889 7943.189819587552
1321.66218392468 7911.36604452065
1322.4880065179532 7784.381529159601
1323.3136269288134 7793.4475971612455
1324.1390452133292 7980.571660625256
1324.9642614275563 7991.1369576049565
1325.7892756275214 7753.259661804834
1326.6140878692295 7782.377480717201
1327.4386982086617 8126.041301662668
1328.2631067017755 7852.28835532895
1329.0873134045069 7854.625179006044
1329.911318372764 7771.660448166547
1330.735121662441 7787.439268625545
1331.558723329399 7721.47110449053
1332.3821234294774 7698.668389712814
1333.2053220185007 7705.393358265081
1334.0283191522612 7656.641053392896
1334.851114886529 7680.738225584119
1335.6737092770582 7450.22748363326
1336.4961023795695 7515.081332653314
1337.3182942497697 7439.33484725773
1338.1402849433325 7549.979159690466
1338.962074515921 7361.799720888559
1339.7836630231632 7229.686538928069
1340.6050505206676 7616.873669395519
1341.426237064028 7537.603056353832
1342.2472227088037 7244.381300980347
1343.0680075105338 7157.491098231325
1343.888591524741 7341.546823558399
1344.7089748069138 7435.7765095005325
1345.5291574125276 7256.546688358266
1346.3491393970307 7148.064596311689
1347.168920815846 7363.221657562026
1347.9885017243778 7423.878108842315
1348.8078821780036 7189.324012408809
1349.6270622320844 7271.593572650336
1350.4460419419447 7164.948801001352
1351.2648213629054 7206.010265296021
1352.0834005502438 7003.688882668192
1352.90177955923 7067.696149473921
1353.7199584451064 7249.361072414287
1354.5379372630887 7220.412341232407
1355.355716068374 7088.1166635386935
1356.1732949161305 7017.5929623367065
1356.9906738615155 7086.491357646058
1357.8078529596478 7115.918568211484
1358.6248322656375 7163.476534946152
1359.441611834567 7033.289719741432
1360.2581917214866 7037.048286841779
1361.0745719814367 6971.937985336405
1361.890752669433 6954.09295968019
1362.7067338404577 6911.319645617334
1363.5225155494845 7112.116074940585
1364.3380978514506 7134.52479654568
1365.1534808012839 6821.553135543954
1365.9686644538815 6747.023365201543
1366.783648864117 7120.7730938686045
1367.5984340868417 7183.274104182083
1368.413020176893 7018.615808395558
1369.2274071890715 6757.361028115932
1370.0415951781652 7041.55351662107
1370.8555841989346 6965.414037217803
1371.6693743061223 6797.402359863862
1372.48296555444 6727.41366070758
1373.2963579985844 6884.585108326925
1374.1095516932255 6917.722825875867
1374.9225466930166 6700.855624728315
1375.7353430525782 6910.533044867309
1376.5479408265164 6792.816904478549
1377.36034006941 6842.714517901544
1378.1725408358216 6865.4741698371
1378.9845431802805 6759.964841485334
1379.796347157304 7057.178284157984
1380.6079528213813 7051.2204256709465
1381.4193602269788 6805.280360466981
1382.230569428546 6674.791497517782
1383.0415804805016 6933.469856481965
1383.852393437246 6953.646739560371
1384.6630083531563 6881.5114559921585
1385.4734252825892 6839.856047944015
1386.2836442798798 6807.220109296761
1387.0936653993322 6891.670007697447
1387.9034886952395 6754.9246898200945
1388.713114221864 6763.23990736032
1389.5225420334482 6954.044489213922
1390.331772184214 6824.25663814783
1391.1408047283585 6569.7023458411495
1391.9496397200564 6823.984775504568
1392.758277213461 6830.708191181194
1393.5667172627054 6974.441743535654
1394.3749599218918 6690.43082116327
1395.1830052451114 6627.043149403349
1395.9908532864265 6687.280996963113
1396.7985040998774 6910.228451674729
1397.6059577394808 6729.861558572264
1398.4132142592352 6664.112464304186
1399.2202737131156 6608.205290447814
1400.027136155073 6905.044597502014
1400.8338016390353 6604.534238063978
1401.6402702189134 6509.189967922703
1402.446541948586 6700.815902904959
1403.2526168819204 6588.908417355565
1404.058495072757 6542.657635095538
1404.8641765749107 6609.349935711985
1405.6696614421799 6497.298082315091
1406.4749497283356 6888.574810666658
1407.280041487129 6450.244547122404
1408.084936772295 6312.262252473586
1408.8896356375335 6665.727472110785
1409.6941381365323 6531.230299460454
1410.498444322955 6308.887511255245
1411.3025542504402 6476.988514439698
1412.106467972606 6433.810130560597
1412.9101855430508 6498.884758736625
1413.7137070153458 6191.534968142396
1414.5170324430437 6289.086996510432
1415.320161879672 6478.167898644022
1416.1230953787435 6599.068733522641
1416.925832993742 6240.990591016016
1417.7283747781275 6212.81081523081
1418.5307207853439 6347.461683773323
1419.3328710688093 6255.449743717457
1420.134825681922 6138.464173437083
1420.9365846780584 6155.07611018872
1421.7381481105713 6527.628660791706
1422.539516032788 6400.451008248573
1423.3406884980232 6230.520699443196
1424.1416655595604 6207.347654875784
1424.942447270665 6291.166820190496
1425.7430336845828 6428.675156345784
1426.5434248545298 6183.892116218476
1427.3436208337116 6369.949458624716
1428.143621675301 6319.042995995367
1428.9434274324558 6526.1823568984
1429.7430381583108 6220.139203926027
1430.5424539059713 6346.262284746731
1431.3416747285337 6622.199879177553
1432.1407006790632 6488.150145118112
1432.9395318106053 6296.936348113631
1433.7381681761835 6264.780660975624
1434.5366098288014 6469.402392046848
1435.3348568214424 6578.767494455691
1436.1329092070573 6378.279908976198
1436.9307670385879 6408.18661069813
1437.7284303689503 6544.609270562044
1438.5258992510335 6614.450644879961
1439.3231737377118 6413.880951328081
1440.1202538818306 6464.863259798814
1440.9171397362225 6396.771008679199
1441.7138313536925 6384.547508317375
1442.5103287870243 6237.881117043125
1443.3066320889775 6189.062655991203
1444.1027413122956 6471.451308520347
1444.8986565096966 6304.643692439042
1445.694377733882 6149.799520254531
1446.4899050375207 6002.352247741274
1447.2852384732687 6268.545980432375
1448.0803780937622 6337.926687336852
1448.8753239516063 5990.424394540054
1449.6700760993954 5799.13761517244
1450.464634589689 6051.217647332827
1451.2589994750397 6332.928422800518
1452.0531708079689 5905.793044567785
1452.8471486409799 5904.907063932899
1453.6409330265524 6106.609986400968
1454.4345240171442 6027.150079817169
1455.2279216651987 5892.045799164262
1456.0211260231263 5912.427835116789
1456.8141371433194 6143.096363239623
1457.6069550781594 6116.317669103304
1458.3995798799897 5810.657231153369
1459.1920116011424 5797.0683087551315
1459.98425029393 5859.533677760493
1460.7762960106338 5830.774100117298
1461.5681488035225 5900.168899273716
1462.3598087248392 5898.5129420466255
1463.1512758268036 6054.5826704791525
1463.942550161617 5810.374989348112
1464.7336317814625 5710.442753503913
1465.524520738496 5866.5810748551685
1466.3152170848552 5674.8753559362
1467.1057208726506 5837.610110921063
1467.8960321539817 5768.894383080255
1468.6861509809169 5606.26645940919
1469.4760774055085 5680.288802947872
1470.265811479785 5838.431436045744
1471.055353255755 5662.418010006102
1471.844702785409 5558.791903042833
1472.6338601207044 5630.4477931222245
1473.4228253135934 5728.158419975145
1474.2115984159936 5494.560352841315
1475.0001794798063 5486.083466924622
1475.7885685569145 5699.007952698993
1476.576765699172 5597.769563757245
1477.3647709584238 5506.50194548276
1478.1525843864802 5757.906718940092
1478.9402060351367 5657.474587734181
1479.7276359561693 5672.209917038772
1480.514874201328 5380.89735551334
1481.3019208223468 5427.9794473729735
1482.0887758709323 5271.12522672386
1482.8754393987747 5718.779640530999
1483.6619114575406 5380.937172476431
1484.4481920988783 5483.70970607535
1485.2342813744108 5551.826800583183
1486.0201793357446 5728.004400373466
1486.8058860344572 5386.502817468565
1487.591401522117 5429.662863995293
1488.3767258502594 5513.94407364209
1489.1618590704056 5614.434017607558
1489.9468012340494 5302.64606259441
1490.7315523926754 5502.440125675429
1491.5161125977356 5628.633480235121
1492.3004819006637 5524.424214939613
1493.084660352877 5339.524609668622
1493.8686480057622 5482.818762869636
1494.6524449106964 5687.657347339916
1495.4360511190262 5695.118240688338
1496.219466682087 5472.655144588427
1497.0026916511779 5500.306904842852
1497.7857260775945 5520.811999295417
1498.5685700125996 5588.589393548085
1499.3512235074395 5386.492007560239
1500.133686613337 5339.9290791143285
1500.9159593814966 5470.213251945646
1501.698041863101 5820.909349446992
1502.4799341093094 5353.186204005393
1503.2616361712662 5307.861070553145
1504.043148100087 5547.098152921724
1504.8244699468742 5515.159835171331
1505.6056017626997 5244.481680849145
1506.3865435986281 5376.1793970792905
1507.1672955056893 5498.12010048625
1507.9478575348967 5281.02958716651
1508.7282297372512 5575.551379016719
1509.5084121637192 5372.433016402186
1510.2884048652577 5430.293246985641
1511.0682078927948 5313.12603011527
1511.8478212972423 5342.0293487505605
1512.6272451294917 5233.138705957891
1513.4064794404076 5495.331682353103
1514.1855242808433 5551.297218199325
1514.9643797016215 5445.28659721113
1515.743045753552 5459.546893544886
1516.5215224874191 5546.945487073894
1517.2998099539836 5424.661773911794
1518.077908203999 5331.274772493347
1518.8558172881785 5377.138490086725
1519.633537257234 5672.253394707271
1520.4110681618404 5520.771836602592
1521.1884100526604 5344.252069677081
1521.9655629803365 5557.525298014355
1522.7425269954856 5601.693252237466
1523.5193021487103 5792.788780433338
1524.2958884905856 5349.354657748588
1525.0722860716687 5513.352399388315
1525.848494942502 5463.979228253057
1526.624515153595 5594.950870903402
1527.4003467554485 5506.085305133298
1528.175989798534 5623.650697992065
1528.9514443333064 5713.6407601490555
1529.726710410203 5743.959872401212
1530.5017880796331 5551.85935397301
1531.276677391992 5575.170659450231
1532.0513783976457 5772.9839537106545
1532.825891146953 5641.276930848357
1533.6002156902414 5585.881799730348
1534.3743520778207 5597.725502161949
1535.1483003599806 5654.127240219622
1535.9220605869923 5726.828018264837
1536.6956328091019 5539.231312925842
1537.4690170765407 5647.844123013687
1538.242213439511 5695.574432530988
1539.015221948208 5683.448687988015
1539.78804265279 5608.100847978914
1540.560675603405 5566.184165062903
1541.3331208501804 5728.0346139885205
1542.1053784432224 5794.575248018137
1542.8774484326168 5507.064425868595
1543.649330868422 5578.622894492671
1544.4210258006842 5642.7171998619915
1545.1925332794308 5575.960373046184
1545.9638533546604 5556.899309936059
1546.7349860763552 5559.468841493404
1547.5059314944829 5920.979212657037
1548.27668965898 5650.955589273208
1549.0472606197673 5639.478233395582
1549.817644426752 5515.692454934665
1550.5878411298072 5703.756443285751
1551.3578507787988 5665.720708320414
1552.1276734235635 5540.087636403632
1552.8973091139233 5634.013912024656
1553.6667578996767 5820.79646038615
1554.436019830604 5581.3513458877
1555.20509495646 5463.869668743939
1555.9739833269869 5544.418314662389
1556.7426849919011 5595.0206579165915
1557.511200000903 5931.421160974405
1558.2795284036674 5678.126448594647
1559.0476702498509 5620.146937378348
1559.8156255890954 5811.343388773084
1560.5833944710157 6064.543079130442
1561.3509769452048 5616.036481560367
1562.1183730612447 5595.124824267087
1562.8855828686865 5693.648189693535
1563.6526064170703 5998.493272622078
1564.4194437559127 5824.928611591671
1565.1860949347047 5699.6836100473465
1565.9525600029283 5944.715594663902
1566.7188390100328 5989.951146916154
1567.4849320054564 5675.226145638824
1568.250839038612 5623.531973874093
1569.0165601588997 5732.997494731754
1569.7820954156887 5884.000676842643
1570.5474448583373 5556.376371260846
1571.31260853618 5672.883505050462
1572.0775864985299 5624.8270181464195
1572.8423787946813 5757.024871149904
1573.6069854739108 5650.048918105228
1574.371406585471 5643.273253687703
1575.1356421785986 5729.973422410383
1575.899692302506 5669.525906953737
1576.6635570063845 5716.28561136753
1577.4272363394157 5616.64914369097
1578.190730350747 5657.817997908029
1578.9540390895163 5839.442552005598
1579.7171626048384 5447.194497072454
1580.480100945806 5499.461983096579
1581.2428541614918 5596.194217372164
1582.0054223009538 5720.42140520795
1582.767805413223 5633.884184828481
1583.5300035473156 5591.011878754454
1584.292016752228 5741.803406397533
1585.0538450769309 5650.40284896463
1585.8154885703807 5503.13921440455
1586.5769472815136 5457.232912515499
1587.3382212592405 5615.862896660005
1588.099310552463 5758.414582694446
1588.8602152100484 5708.966038906372
1589.6209352808564 5587.9141742230595
1590.3814708137234 5614.603804443455
1591.14182185746 5611.725207014715
1591.9019884608679 5483.789167730305
1592.6619706727215 5393.166139400834
1593.4217685417734 5521.106871906918
1594.1813821167616 5763.848368116924
1594.9408114464022 5399.308010414348
1595.7000565793933 5508.210532279093
1596.459117564409 5572.3482862782785
1597.2179944501113 5417.218705362001
1597.9766872851324 5379.110163013649
1598.735196118092 5584.702580527659
1599.4935209975883 5608.117704122878
1600.2516619721973 5608.0277189492845
1601.0096190904787 5512.668129144727
1601.7673924009723 5380.7484788464735
1602.524981952196 5523.014728006526
1603.2823877926476 5410.620028403319
1604.0396099708087 5249.832449329971
1604.7966485351371 5310.9808937670705
1605.5535035340745 5369.950839635274
1606.3101750160404 5572.849952661407
1607.0666630294363 5195.2257780461605
1607.822967622642 5190.302709770534
1608.5790888440224 5528.652942295701
1609.3350267419137 5524.174695814593
1610.0907813646445 5311.368462080245
1610.8463527605145 5249.936349198452
1611.601740977805 5473.342211188946
1612.356946064785 5332.490117648303
1613.1119680696902 5202.24277622469
1613.8668070407512 5213.325497337205
1614.6214630261748 5316.990638583456
1615.375936074137 5312.8073030573805
1616.1302262328118 5235.4492007504905
1616.8843335503425 5371.898522532494
1617.638258074854 5161.301090076913
1618.391999854457 5256.546702596454
1619.1455589372363 5349.211080490488
1619.8989353712623 5315.934485185991
1620.65212920458 5073.52845383831
1621.4051404852235 5148.85383031377
1622.1579692611976 5272.77963678763
1622.9106155804966 5004.439294047044
1623.663079491087 5110.835824991829
1624.4153610409248 5235.283040691148
1625.1674602779385 5144.913870517713
1625.9193772500403 4991.260165357779
1626.6711120051277 5381.466428908434
1627.4226645910676 5276.03906147562
1628.174035055721 5011.941003932417
1628.9252234469168 5134.794833440043
1629.676229812474 5096.077337898489
1630.4270542001905 5330.779435668256
1631.1776966578382 5100.137905892092
1631.9281572331747 4993.874192763287
1632.678435973945 5342.63993675906
1633.4285329278573 5128.80092963445
1634.1784481426203 4949.505145530083
1634.9281816659113 4999.563468000374
1635.677733545388 5390.603241414475
1636.4271038286934 5124.383248925407
1637.176292563452 5236.208664588512
1637.9252997972635 5145.465143840692
1638.674125577716 5285.419113475481
1639.4227699523672 5449.96533035453
1640.171232968767 4955.750818761292
1640.9195146744423 5236.63047345067
1641.6676151168977 5314.018423856528
1642.4155343436178 5539.069424442597
1643.1632724020765 5249.374579261179
1643.9108293397167 5182.421074673397
1644.658205203974 5214.005351936862
1645.4054000422566 5801.405588925164
1646.1524139019566 5170.8942099084325
1646.8992468304423 5099.118138153063
1647.6458988750728 5225.989180716317
1648.3923700831765 5292.303430745499
1649.1386605020743 5204.230815448355
1649.8847701790564 5320.387352142769
1650.6306991614038 5222.768487606798
1651.3764474963682 5294.3777503915835
1652.1220152311944 5039.57240168153
1652.867402413096 5312.95064907158
1653.6126090892776 5217.873056372415
1654.3576353069184 5346.416157387474
1655.1024811131829 5114.503044819081
1655.8471465552066 4934.512138597764
1656.5916316801213 5256.008154973735
1657.3359365350298 5183.768315155423
1658.0800611670165 5115.9309711518235
1658.824005623148 5165.048887447885
1659.5677699504722 4920.515523216383
1660.3113541960192 5200.566493082723
1661.054758406799 4990.700432334024
1661.7979826297997 4869.427239246016
1662.5410269119966 4941.918977467544
1663.283891300338 5198.981099760215
1664.0265758417645 4920.868679628383
1664.7690805831826 4989.348175061473
1665.5114055714948 4957.263359099567
1666.2535508535748 5311.249289069932
1666.9955164762814 4657.3083725069355
1667.7373024864555 4730.791268543904
1668.478908930916 4830.975541970005
1669.220335856462 4756.256125001177
1669.9615833098778 4675.512871087504
1670.7026513379296 4612.33249198093
1671.44353998736 4668.6455178123215
1672.1842493048916 4898.2426442835285
1672.9247793372379 4578.406011026728
1673.6651301310812 4727.734493757414
1674.4053017330934 4550.109645195516
1675.1452941899242 4655.413446417122
1675.885107548207 4292.586304268954
1676.6247418545518 4271.969707963117
1677.3641971555535 4423.901896849535
1678.1034734977893 4496.20869601657
1678.8425709278108 4416.086643102963
1679.5814894921605 4619.349946471246
1680.320229237359 4511.24535774879
1681.0587902098978 4663.971272700017
1681.7971724562685 4376.067153750518
1682.5353760229264 4218.831630079043
1683.2734009563173 4615.075155912012
1684.0112473028657 4248.568850033099
1684.7489151089794 4536.417334187695
1685.4864044210462 4430.3629362999145
1686.2237152854377 3991.8533297155664
1686.960847748498 4411.5963596561105
1687.6978018565642 4062.624923646856
1688.434577655944 4087.897117291382
1689.1711751929379 3889.245486114751
1689.9075945138156 4178.142255184917
1690.6438356648396 3958.1848770970573
1691.3798986922448 3739.1800466460563
1692.1157836422499 4041.5286924823386
1692.851490561059 3966.7498308782087
1693.587019494853 4029.322609609348
1694.3223704897991 3840.0204132085155
1695.0575435920364 3773.5818923125466
1695.792538847696 4181.52770563609
1696.527356302886 3880.363966309577
1697.2619960036936 3740.400218313525
1697.9964579961907 3811.6939686527644
1698.730742326432 3530.483862833017
1699.4648490404488 3596.0475457112198
1700.1987781842563 3766.4979179495617
1700.9325298038548 3857.339958300553
1701.6661039452174 4033.427509215687
1702.3995006543082 3791.613437809979
1703.1327199770658 3925.5793449850316
1703.865761959416 3598.4766047341777
1704.598626647261 3954.212344705005
1705.3313140864866 3501.177019858123
1706.0638243229587 3733.27105818604
1706.7961574025303 3721.072931684818
1707.528313371029 3680.0376773509147
1708.260292274268 3493.3044031830477
1708.9920941580403 3622.3675428904207
1709.7237190681226 3617.491569508812
1710.4551670502697 3576.837572760386
1711.18643815022 3313.0774231867736
1711.9175324136959 3852.072061709999
1712.6484498863938 3615.61395286669
1713.379190614005 3416.1504914476113
1714.109754642188 3429.7031274766896
1714.8401420165883 3493.3225812122305
1715.570352782839 3725.320677624779
1716.3003869865497 3558.9876957170904
1717.0302446733076 3396.8860949029513
1717.7599258886876 3474.5141209364206
1718.4894306782444 3738.0147292132315
1719.2187590875183 3254.2950585210283
1719.9479111620203 3704.0665727614396
1720.6768869472544 3336.1384937938624
1721.4056864887025 3750.821292910913
1722.1343098318284 3715.8467516311357
1722.8627570220742 3321.5437921139064
1723.591028104871 3343.9204711139755
1724.3191231256242 3132.563966837556
1725.0470421297232 3410.940094348343
1725.7747851625427 3380.225785017255
1726.5023522694337 3541.1885210969185
1727.2297434957363 3396.235122846299
1727.9569588867635 3213.279026795776
1728.6839984878152 3429.0376425919176
1729.4108623441734 3062.7091492325007
1730.1375505011038 3501.044209657581
1730.8640630038426 3358.680755748529
1731.5903998976264 3212.020801708376
1732.316561227657 3421.2957502331456
1733.0425470391274 3166.764605105641
1733.7683573772065 3395.926648388956
1734.4939922870508 3389.389804262526
1735.2194518137949 3352.3120871717533
1735.9447360025606 3375.883636911591
1736.669844898439 3349.7077860115887
1737.3947785465189 3071.4203019435054
1738.1195369918605 3084.840946449653
1738.8441202795093 3320.448011997908
1739.5685284544943 3338.9317772153204
1740.292761561821 3287.5823342494355
1741.0168196464838 3326.380628768893
1741.7407027534518 3317.6451593549727
1742.464410927687 3304.316652715535
1743.187944214118 3195.156440492612
1743.9113026576688 3248.795225954064
1744.634486303241 3288.891800879131
1745.3574951957125 3306.9806138978192
1746.0803293799509 3413.833340023778
1746.8029889008048 3341.557513450168
1747.5254738031017 3331.7340742415086
1748.2477841316504 3124.3272245444796
1748.969919931249 3153.74239152788
1749.6918812466665 3323.206726619953
1750.4136681226646 3376.883830579113
1751.1352806039777 3281.124587287924
1751.856718735331 2940.8603095906938
1752.5779825614281 2929.31045069449
1753.2990721269507 3309.752758402529
1754.0199874765676 3232.5591453960938
1754.7407286549314 3146.5614391105346
1755.4612957066693 3080.490245270331
1756.1816886763954 3081.1708208551736
1756.9019076087097 3375.4010224843832
1757.6219525481865 3215.2314377415387
1758.3418235393856 3229.010217664968
1759.061520626854 3134.436841908717
1759.7810438551096 3312.224877272957
1760.5003932686614 3063.656754361886
1761.2195689119999 3316.7853896339134
1761.938570829594 3289.3773094367643
1762.657399065898 3254.284960254253
1763.376053665348 2981.3569189494165
1764.0945346723602 3010.164124481103
1764.812842131334 3397.97459815359
1765.5309760866512 2994.563747726676
1766.2489365826787 3006.7244375102605
1766.9667236637597 3002.4877738076966
1767.684337374223 2916.2561062368395
1768.401777758383 3045.750366120522
1769.1190448605284 2913.72287195697
1769.836138724937 2947.8498472207825
1770.5530593958665 3179.589670898905
1771.2698069175603 3371.3658959966356
1771.9863813342326 3253.525337714676
1772.702782690094 3067.6352126299585
1773.4190110293293 3253.914882849386
1774.1350663961111 3212.265707621277
1774.8509488345844 2980.3612131622963
1775.5666583888924 2979.422964141263
1776.2821951031437 3197.2709532854765
1776.9975590214362 3060.3276083100463
1777.7127501878585 3148.8772523270413
1778.4277686464684 3203.2347722765803
1779.1426144413108 3219.3975702139664
1779.8572876164162 3283.914627747353
1780.571788215797 2924.068159440259
1781.2861162834415 3104.491334360929
1782.0002718633277 2994.9681443838044
1782.7142549994132 3005.1856136231518
1783.4280657356376 3031.433388083121
1784.141704115922 2965.582512771038
1784.855170184177 3054.4168532855842
1785.5684639842839 3140.7665992197117
1786.2815855601148 2834.974932160137
1786.9945349555237 3137.9853134041014
1787.707312214343 2835.0739986333147
1788.4199173803918 3336.5858703567596
1789.132350497468 2865.105383267458
1789.8446116093583 3012.4810266940976
1790.556700759822 2860.4597616552646
1791.2686179926077 2935.243402813016
1791.9803633514493 2948.3358960405735
1792.6919368800554 2834.201163469175
1793.4033386221236 3052.037978309055
1794.1145686213295 3182.005147117747
1794.8256269213307 3102.742309313794
1795.536513565774 3062.5896256446604
1796.247228598284 2688.65016916543
1796.9577720624693 2867.900609366382
1797.6681440019165 3055.6968442743646
1798.3783444602013 2977.3242078010153
1799.0883734808776 3040.26058447743
1799.7982311074884 2944.9511327263926
1800.5079173835475 3049.6772494881716
1801.2174323525633 3080.108704875917
1801.9267760580187 2969.1897337852306
1802.635948543386 3029.040285473011
1803.3449498521113 2733.2839870578714
1804.0537800276325 3178.4913072150766
1804.7624391133668 2969.321952065989
1805.47092715271 2695.3025014922387
1806.1792441890484 2815.6089747100946
1806.8873902657433 3108.7036823824533
1807.5953654261448 2916.6344045705823
1808.3031697135812 2922.0553993928925
1809.0108031713662 2887.5700747765136
1809.71826584279 2893.7367018403897
1810.425557771141 2871.499688678222
1811.1326789996747 3363.8665847359503
1811.839629571632 2967.3306267902067
1812.5464095302468 2890.422881851847
1813.2530189187182 2881.7234995510807
1813.959457780249 2955.5592332770357
1814.6657261580076 3009.3817771653767
1815.371824095153 2775.927065259832
1816.0777516348262 3070.4664737810695
1816.78350882015 2586.9999653166055
1817.4890956942272 2691.196997767995
1818.1945123001533 2831.5764933150613
1818.8997586809928 2978.8624783083787
1819.6048348798067 2695.6617500898615
1820.3097409396287 2957.003242368676
1821.0144769034796 3154.768452641555
1821.7190428143622 2975.7926619939144
1822.423438715261 2975.296163740194
1823.1276646491478 2694.1552747455503
1823.8317206589727 2828.4980592484226
1824.5356067876692 2911.5543779011855
1825.2393230781581 2918.9438356345363
1825.942869573335 2722.8769034745064
1826.646246316086 2725.143955200161
1827.3494533492758 2906.5537027453147
1828.052490715756 3005.6661546776404
1828.7553584583547 2971.1241081842945
1829.458056619891 2965.2634860386356
1830.1605852431585 2845.8538761000846
1830.8629443709433 2624.5758999867976
1831.5651340460063 2755.4409231150134
1832.2671543110919 2702.810698720413
1832.9690052089318 2861.146048424294
1833.6706867822395 2608.881943612266
1834.3721990737104 2711.238731373327
1835.0735421260233 2894.40758616277
1835.774715981841 2811.89310032322
1836.4757206838058 3061.9019545420315
1837.1765562745459 2807.7481471273654
1837.8772227966747 2601.1791307444832
1838.5777202927839 2848.5352094685395
1839.2780488054523 2731.4161305051234
1839.9782083772352 2704.8524900976067
1840.6781990506806 3221.372249322604
1841.378020868313 2830.0741393639787
1842.0776738726418 2808.6570932763575
1842.777158106157 2733.473555040712
1843.4764736113375 2675.886933640952
1844.1756204306403 2886.1084793411433
1844.8745986065078 2801.7280037246574
1845.5734081813607 2627.787007641425
1846.2720491976124 2655.546418465971
1846.970521697649 2666.9803648049165
1847.6688257238511 2863.80157610813
1848.3669613185684 2660.067815282547
1849.0649285241452 2524.835085508529
1849.7627273829057 2829.7915628950786
1850.460357937156 2705.453705573255
1851.1578202291857 2492.9935207769436
1851.8551143012664 2806.452288866451
1852.5522401956569 2804.389062737841
1853.2491979545957 2949.290229622921
1853.9459876203055 2573.7421596269437
1854.6426092349902 2559.3843537716302
1855.3390628408451 2691.923003609403
1856.0353484800362 2847.3203483502934
1856.7314661947203 2862.3930438067214
1857.4274160270397 2554.4211093960303
1858.123198019115 2648.107637522876
1858.8188122130487 2576.6453848163615
1859.5142586509319 2714.6496801699977
1860.209537374838 2702.896670608862
1860.9046484268183 2680.6849952762004
1861.599591848917 2830.290032721642
1862.294367683151 2692.5297642883324
1862.988975971528 2699.7042901726827
1863.6834167560355 2748.616851140136
1864.3776900786452 2866.3558421320154
1865.0717959813119 2622.695636295821
1865.7657345059724 2595.8146606242667
1866.4595056945564 2712.9230703103176
1867.1531095889586 2770.052790558647
1867.846546231076 2455.96003204
1868.5398156627743 2814.900703675337
1869.2329179259123 2584.4676668222664
1869.9258530623283 2823.2564327682553
1870.618621113843 2530.9942311430154
1871.3112221222636 2542.701351682615
1872.0036561293764 2554.347249087911
1872.695923176956 2785.6914320022224
1873.3880233067594 2868.7015045535727
1874.0799565605212 2538.9974744992423
1874.7717229799673 2654.594035275439
1875.4633226068036 2777.474208498145
1876.1547554827175 2797.367754021685
1876.8460216493859 2532.955682064239
1877.5371211484617 2613.6785961494634
1878.2280540215852 2866.107986710289
1878.9188203103804 2495.7042178660745
1879.6094200564548 2699.6465291147556
1880.299853301396 2565.1896773288363
1880.9901200867826 2827.9891007546107
1881.6802204541673 2726.214204205692
1882.3701544450942 2761.9743187826807
1883.059922101087 2468.73443522495
1883.7495234636517 2909.1521530856858
1884.4389585742792 2554.9639591503096
1885.1282274744517 2589.6470233396326
1885.8173302056166 3062.15446048438
1886.506266809225 2635.9284681803206
1887.195037326701 2333.2631284908025
1887.8836417994517 2655.644185604376
1888.5720802688702 2855.1583076778265
1889.260352776333 2882.3414722288203
1889.9484593632042 2873.8158614659815
1890.63640007082 2614.4118812084803
1891.3241749405151 2458.6791905457194
1892.0117840135954 2710.255149324264
1892.6992273313572 2607.4044329553954
1893.3865049350788 2404.5606896224162
1894.0736168660223 2935.620602167381
1894.7605631654333 2583.070764170247
1895.4473438745408 2429.9380775235877
1896.133959034556 2919.457894994995
1896.820408686679 2725.4699764269203
1897.506692872088 2953.7177252341285
1898.192811631945 2600.364585121564
1898.8787650073991 2513.298699118995
1899.5645530395832 2827.817966633887
1900.2501757696118 2731.0611880108054
1900.9356332385796 2349.031301321799
1901.620925487574 3003.678370881457
1902.3060525576602 2659.7733791526452
1902.9910144898859 2663.269471995457
1903.6758113252872 2519.6419286692544
1904.3604431048789 2578.7831058717584
1905.0449098696663 2786.6363522522797
1905.7292116606295 2522.459511167991
1906.4133485187394 2591.9126398993258
1907.0973204849488 2264.71672618628
1907.7811276001976 2383.3640250180842
1908.4647699053967 2512.2564772244286
1909.1482474414588 2079.173939974192
1909.8315602492694 2601.590246198949
1910.5147083696957 2777.5488249212267
1911.1976918436012 2573.913626492452
1911.880510711815 2425.0298038047194
1912.5631650151681 2763.888521366979
1913.2456547944657 2495.862987619748
1913.927980090495 2417.394857824577
1914.6101409440362 2498.472926967406
1915.2921373958416 2693.2842046465003
1915.9739694866603 2625.0254384616132
1916.655637257214 2808.2795230085894
1917.3371407482136 2568.829576286306
1918.0184800003572 2646.7162940256712
1918.6996550543154 2681.0830095483807
1919.3806659507554 2653.233582356922
1920.0615127303208 2662.3359688988503
1920.7421954336423 2683.3887745452766
1921.4227141013343 2753.611981248283
1922.103068773993 2620.254601071965
1922.783259492202 2722.1354583144503
1923.4632862965227 2608.2891532082713
1924.1431492275078 2432.032806547587
1924.8228483256917 2252.877332850788
1925.5023836315922 2566.9542651906745
1926.1817551857057 2208.6447805368434
1926.8609630285227 2896.079106448682
1927.5400072005123 2714.3659710533393
1928.218887742125 2377.1396622914317
1928.8976046938005 2239.878465515925
1929.5761580959588 2634.1373960920046
1930.2545479890086 2496.2472165303043
1930.9327744133352 2247.2765459120565
1931.6108374093164 2503.9723901038237
1932.2887370173066 2396.2553061419
1932.9664732776473 2288.2286080791114
1933.6440462306673 2522.1258722793964
1934.3214559166754 2505.9700854388475
1934.9987023759659 2695.0207701295394
1935.675785648813 2519.7596117496114
1936.3527057754836 2190.5281126759132
1937.029462796223 2301.9857207836144
1937.70605675126 2413.7350755014804
1938.3824876808085 2333.643158709237
1939.058755625072 2509.5901871413407
1939.7348606242267 2483.8599803538173
1940.4108027184448 2397.002171180703
1941.0865819478713 2660.6392099020545
1941.7621983526478 2412.0877178234127
1942.4376519728921 2356.411935712336
1943.1129428487038 2488.5030366446963
1943.7880710201734 2555.5583088365447
1944.4630365273733 2543.889711042252
1945.1378394103576 2440.7269953891323
1945.8124797091714 2778.2810039115166
1946.4869574638324 2314.4900293265664
1947.161272714353 2368.777554486781
1947.8354255007234 2601.751950206878
1948.5094158629272 2394.3726808450333
1949.1832438409183 2560.0116022821003
1949.8569094746435 2679.4643877154617
1950.530412804037 2673.137859607682
1951.2037538690092 2670.6718544422592
1951.8769327094578 2387.593263999699
1952.5499493652678 2395.461675460342
1953.222803876306 2610.376411067148
1953.895496282421 2582.2100596982978
1954.5680266234522 2567.500299481341
1955.2403949392155 2550.709908181926
1955.9126012695142 2276.3721990706363
1956.5846456541403 2421.258218356643
1957.2565281328643 2292.960501052906
1957.9282487454457 2693.17135116109
1958.5998075316202 2658.935457257122
1959.27120453112 2429.050353154992
1959.9424397836501 2576.901518696737
1960.613513328908 2553.504289442276
1961.2844252065697 2635.0055487962095
1961.9551754563017 2309.1709104270985
1962.6257641177453 2417.9408392518953
1963.29619123054 2243.628526702227
1963.966456834296 2349.3182332666324
1964.6365609686181 2224.7310849206556
1965.306503673086 2523.390081371073
1965.976284987275 2267.565679104411
1966.645904950734 2407.71678058582
1967.315363603002 2182.990473496023
1967.9846609836077 2344.7546981032415
1968.6537971320486 2388.083061480183
1969.3227720878222 2487.6211674140372
1969.9915858904042 2442.9692238131124
1970.660238579252 2512.951147613055
1971.3287301938108 2342.944828207369
1971.997060773514 2400.468328314741
1972.665230357772 2145.6499160727644
1973.3332389859843 2286.8431952194715
1974.0010866975335 2158.8855468430984
1974.6687735317864 2538.6927529935992
1975.3362995280932 2450.555041585451
1976.003664725793 2591.6878789754237
1976.6708691642052 2202.86023685765
1977.3379128826364 2410.3293936019572
1978.004795920373 2538.254735685793
1978.6715183166925 2320.03810632803
1979.3380801108524 2647.3129863834506
1980.0044813420973 2430.9654391945314
1980.6707220496555 2177.0588423539953
1981.3368022727373 2361.430914357191
1982.0027220505417 2561.2787349847586
1982.66848142225 1980.284186511899
1983.3340804270283 2160.4424420593195
1983.999519104027 2316.9791653369007
1984.6647974923835 2438.7393574544903
1985.329915631215 2630.0276668731976
1985.99487355963 2367.1487586739704
1986.6596713167146 2611.8913043592365
1987.3243089415428 2239.503170636213
1987.9887864731754 2620.4985999448218
1988.6531039506553 2260.4893000827246
1989.3172614130071 2233.6400022482035
1989.9812588992481 2206.7795030742045
1990.645096448372 2095.4372581864754
1991.3087740993633 2313.0136561362806
1991.9722918911848 2352.6433618406545
1992.635649862792 2290.92966396285
1993.2988480531185 2445.4281392364373
1993.9618865010852 2745.6565240310815
1994.6247652455968 2304.8811199636248
1995.287484325545 2262.569746766172
1995.9500437798033 2253.9260524624524
1996.6124436472292 2242.289535746445
1997.2746839666706 2456.573159562454
1997.936764776954 2322.417334829447
1998.598686116895 2210.4514872645977
1999.2604480252903 2637.75808670285
1999.9220505409212 2560.6644963793774
2000.5834937025593 2070.9756428278424
2001.2447775489582 2353.027047663449
2001.9059021188514 2343.912624751966
2002.5668674509616 2298.4904591676514
2003.2276735839987 2238.354583480745
2003.8883205566508 2262.660125280137
2004.5488084075987 2286.9253792433956
2005.2091371755014 2301.935641673756
2005.8693068990033 2158.7541957614985
2006.5293176167397 2595.4279157612855
2007.1891693673224 2208.037628559909
2007.848862189354 2128.2562106530886
2008.5083961214223 2241.6792258848336
2009.1677712020955 2116.357792619806
2009.8269874699254 2128.3033823429373
2010.4860449634598 2121.6447319644676
2011.1449437212177 2115.0936976961275
2011.8036837817108 2616.6401234347245
2012.4622651834325 2474.929215042278
2013.1206879648653 2408.3834930551416
2013.7789521644736 2493.9391647872044
2014.4370578207036 2392.071018867203
2015.0950049719922 2289.8613151277227
2015.7527936567585 2524.267199351474
2016.4104239134067 2290.302758427365
2017.067895780323 2661.682821590498
2017.725209295886 2536.7167826076593
2018.3823644984514 2411.340986219456
2019.0393614263648 2315.8464739869023
2019.6962001179545 2264.733396977038
2020.3528806115355 2515.9457752574394
2021.0094029454067 2382.8528885554083
2021.6657671578487 2151.1854410668416
2022.321973287133 2295.394189395057
2022.9780213715148 2152.0160593002383
2023.6339114492293 2107.0153310183614
2024.2896435585026 2204.8883282407487
2024.9452177375442 2305.341811878844
2025.600634024544 2565.7599027022625
2026.2558924576842 2397.378145165423
2026.9109930751292 2555.0958202666384
2027.565935915025 2134.7782711686646
2028.2207210155066 2541.0940779679117
2028.8753484146964 2691.072259117308
2029.529818150695 2612.7623267950103
2030.1841302615903 2534.0300074664683
2030.8382847854573 2058.3166262273508
2031.4922817603601 2379.5274958365576
2032.1461212243357 2281.8262059199897
2032.7998032154192 2032.2697011841865
2033.4533277716218 2245.140183659773
2034.1066949309443 2093.4036503770435
2034.7599047313688 2102.859831126419
2035.4129572108704 2403.836294359181
2036.0658524074006 2270.18559268065
2036.7185903589016 2284.0465904286057
2037.3711711032956 2408.3407444737627
2038.023594678496 2416.001907595496
2038.675861122394 2010.5961765043717
2039.3279704728757 2579.2438292172087
2039.9799227678031 2173.5764344704694
2040.6317180450278 2177.409715373983
2041.2833563423865 2162.4411417050683
2041.9348376977014 2553.2555049323205
2042.5861621487784 2416.1438732201023
2043.2373297334088 2306.39620657369
2043.8883404893695 2295.5042204925235
2044.5391944544208 2439.613565778876
2045.1898916663158 2487.6091764471503
2045.8404321627804 2647.322558211723
2046.4908159815368 2182.3328837303807
2047.1410431602853 2080.6271282161197
2047.7911137367173 2191.6242450773393
2048.441027748504 2515.694305871627
2049.090785233302 2032.1865083049063
2049.7403862287592 2153.196276323329
2050.389830772503 2105.3297430521748
2051.0391189021466 2057.477567586232
2051.688250655294 2320.4918785938994
2052.337226069527 1949.58399908421
2052.986045182417 1967.7938089110783
2053.634708031521 1986.1910934189887
2054.283214654375 2370.0076072035
2054.931565088511 1951.2116765828264
2055.579759371436 2031.965735974472
2056.2277975406523 2480.083237716956
2056.8756796336384 2362.0142197206155
2057.5234056878617 1959.4138897370274
2058.1709757407752 2172.0642622787077
2058.8183898298194 2443.478042092356
2059.465647992416 2467.794513843016
2060.1127502659747 2633.5618626972273
2060.759696687888 2474.0583143061795
2061.4064872955405 2314.5437725399565
2062.053122126292 2473.5829883916717
2062.699601217497 1918.5912873660932
2063.345924606485 2069.948356672246
2063.992092330587 2281.6437141747037
2064.638104427102 2186.0492189054303
2065.283960933324 2504.8182476708143
2065.92966188653 2338.910195138335
2066.5752073239855 2543.301804804029
2067.2205972829397 2030.5958309209461
2067.86583180062 2382.9051525601813
2068.5109109142522 2140.5039425784366
2069.15583466104 2152.8813992560126
2069.8006030781708 2063.9166569033196
2070.445216202821 2143.4846224917533
2071.089674072153 2337.094206146089
2071.7339767233116 2468.1596017897846
2072.3781241934303 2131.58896673545
2073.0221165196253 2275.3027165224485
2073.6659537390024 2074.3375701503965
2074.3096358886505 2285.748964983635
2074.953163005637 2138.474217888334
2075.596535127028 1989.9312181362325
2076.2397522898664 2006.0884493529447
2076.882814531182 2154.0130030478826
2077.5257218879924 2303.2693133638636
2078.1684743973 1876.8919448946767
2078.8110720960885 1982.5002590703705
2079.453515021336 2087.044794554281
2080.095803209997 2191.653360989783
2080.7379366990135 2344.5922015758024
2081.37991552532 2249.168777645643
2082.0217397258275 2269.8571882558763
2082.6634093374414 1854.195850519886
2083.3049243970418 2228.4998487718312
2083.9462849415067 2188.384836547864
2084.587491007689 2292.5921063495325
2085.2285426324324 2225.1081666821497
2085.869439852564 2239.681555790524
2086.510182704902 2112.1013639712314
2087.1507712262483 2259.7902322987375
2087.791205453381 2062.462837656171
2088.4314854230743 2262.4464257203936
2089.0716111720867 2268.94155364435
2089.7115827371617 1831.8286391776091
2090.351400155023 1949.6457893856684
2090.991063462385 2067.771495321513
2091.6305726959527 1879.9599940686553
2092.2699278924047 2307.3815320938593
2092.9091290884153 2056.5973473747545
2093.548176320641 1981.727731863672
2094.187069625721 2344.1182609586726
2094.8258090402887 1909.9745324117928
2095.464394600951 2261.3632801983695
2096.102826344313 2160.5983546051966
2096.741104306955 2275.7698696740267
2097.379228525453 2003.1181600048299
2098.017199036358 2252.5842103952014
2098.6550158762147 1979.860878105324
2099.2926790815527 2213.8781950302673
2099.9301886888825 2287.1359553442226
2100.5675447347076 2081.4634266929143
2101.2047472555114 2452.98219496697
2101.841796287761 2143.9477760680747
2102.47869186792 2248.2535434682586
2103.1154340324265 1983.496008775368
2103.752022817709 2065.306258420433
2104.388458260184 2148.5001113242624
2105.024740396251 2025.7855951721747
2105.660869262292 2107.978152960487
2106.296844894685 2398.1706262842126
2106.93266732978 2124.808053908398
2107.5683366039284 1921.4719710459435
2108.2038527534532 2213.830697182046
2108.8392158146726 2367.765775015267
2109.4744258238843 2087.221983408431
2110.1094828173755 2186.124335811022
2110.744386831422 2455.152986229291
2111.3791379022787 2310.0308190548935
2112.01373606619 2435.0690650041574
2112.648181359389 2294.3854844804405
2113.28247381809 2308.2760914765413
2113.916613478492 2261.4961652448196
2114.550600376786 2208.4154671932483
2115.1844345491445 2050.5683537512855
2115.818116031729 1982.2714643442425
2116.451644860679 2112.227568507399
2117.085021072133 1868.0670997257985
2117.718244702204 1984.5370896379384
2118.3513157869984 2057.1522624074305
2118.984234362604 1920.7680971318623
2119.617000465092 1955.3560024311391
2120.249614130529 2358.483288972423
2120.8820753949585 2202.280309239772
2121.5143842944162 2082.6882273074307
2122.14654086492 1920.070402167877
2122.7785451424734 1936.1004344696994
2123.4103971630702 1952.387111973725
2124.042096962681 2170.2755544496217
2124.6736445772767 2401.2424560885793
2125.305040042802 1966.162781206413
2125.936283395191 2208.712417385678
2126.567374670365 2219.0358951766157
2127.198313904233 1901.9293950752194
2127.8291011326855 2009.5120593314296
2128.4597363916037 2117.0810076370753
2129.0902197168507 2142.555321626333
2129.720551144279 2346.4221199533995
2130.3507307097225 2550.4162517228447
2130.980758449008 2453.6249488697886
2131.6106343979427 2142.156731513997
2132.2403585923203 2321.6759823050843
2132.8699310679276 2282.9046568337117
2133.499351860526 2229.072265783797
2134.1286210058715 2006.5541404448945
2134.7577385397053 1800.116559253409
2135.3867044977487 2491.406741520272
2136.0155189157176 2525.489220901386
2136.644181829308 2281.8048910723846
2137.2726932742025 2180.7610227116556
2137.901053286074 2390.6921312354943
2138.5292619005777 1827.8968890218898
2139.1573191533535 2083.265071082812
2139.7852250800315 2256.1473624707205
2140.4129797162295 2056.8588362511136
2141.0405830975433 1832.0382894739312
2141.6680352595613 1874.1309314132454
2142.2953362378576 1916.3255476496656
2142.9224860679915 2011.6814001196185
2143.549484785508 1939.03778625386
2144.1763324259373 2201.6868312390043
2144.803029024799 2025.1159804347485
2145.429574617594 2015.5173644156926
2146.0559692398165 2216.4551307455126
2146.682212926942 1995.8316505949745
2147.308305714432 1993.3525716853387
2147.9342476377333 2242.567133649035
2148.5600387322847 2466.570969587391
2149.185679033506 2066.9720827637657
2149.8111685768017 2039.0446041198534
2150.4365073975678 1899.0503427925403
2151.061695531187 1866.2369796417006
2151.686733013021 2445.44183124693
2152.311619878423 2247.1931213331413
2152.9363561627342 2038.3221208809675
2153.560941901278 1782.8143451313554
2154.1853771293663 2260.2869284997387
2154.809661882293 2082.391664201668
2155.433796195348 2000.2907865961656
2156.0577801037944 1917.838846945779
2156.681613642895 2245.2541155583212
2157.3052968478896 2015.8772274073895
2157.928829754006 2324.1318057638746
2158.552212396462 2278.7227615427514
2159.1754448104566 2189.651390259081
2159.7985270311783 1841.7079384292106
2160.4214590938027 1574.753163862845
2161.0442410334927 1634.036429250325
2161.6668728853874 1747.7914663515664
2162.289354684628 1861.82485222647
2162.911686466332 2040.7816437781999
2163.533868265602 2229.091153467229
2164.1559001175337 2437.0909494737593
2164.7777820572046 2230.2414928595945
2165.399514119681 2017.7914719471028
2166.021096340013 1925.812576092554
2166.6425287532384 2395.427036315465
2167.263811394385 1871.7316755964325
2167.8849442984574 2445.3082228683043
2168.505927500455 2025.385603176233
2169.126761035366 2194.811142028229
2169.7474449381552 2011.9567144663313
2170.367979243778 1758.1027137347166
2170.9883639871823 2300.468665722826
2171.608599203293 2407.3243727979875
2172.2286849270276 2514.4313386101703
2172.8486211932886 2473.0371577780643
2173.4684080369625 2123.1132169371394
2174.0880454929265 1743.1957041223086
2174.7075335960417 1643.6539028277723
2175.3268723811543 1739.6073139119605
2175.9460618831 1835.827199919174
2176.565102136701 2029.1289431768012
2177.1839931767627 2027.8090541958456
2177.802735038078 2026.5148016481562
2178.421327755432 1816.2100049244934
2179.0397713635866 1925.228181941151
2179.658065897298 1954.3775036171605
2180.276211391305 2150.5422236665486
2180.8942078803357 1944.3649122918937
2181.5120553991 2114.000043749456
2182.129753982299 1762.3575011421594
2182.7473036646206 2011.3318599309587
2183.3647044807367 1994.8219353155214
2183.9819564653044 1820.9224827903686
2184.599059652968 2184.1897426163896
2185.216014078367 2143.725057024091
2185.832819776113 1761.4421370193427
2186.4494767808137 2213.7115567104242
2187.065985127063 1944.0354189326906
2187.682344849436 1905.2913383931932
2188.298555982501 2258.1969535610374
2188.9146185608097 2067.3517015830157
2189.530532618901 2229.2858495504606
2190.1462981912937 2376.536012043989
2190.761915312507 2057.462288072284
2191.377384017036 1872.7314539126103
2191.9927043393654 2063.9248877978193
2192.6078763139667 2301.2688512782556
2193.2228999753006 2539.1436416532265
2193.837775357808 2081.043075906756
2194.452502495922 1721.9044028971264
2195.0670814240602 1963.3750806548983
2195.6815121766285 1833.7228481925588
2196.2957947880186 1735.370311800442
2196.9099292926057 1636.825270301714
2197.523915724758 2019.489589256965
2198.137754118825 1962.4295545664531
2198.7514445091456 2496.639521585573
2199.3649869300443 2521.578293704591
2199.9783814158327 2546.681213639918
2200.5916280008096 2407.3180010155675
2201.2047267192593 2255.1997073533257
2201.8176776054515 2041.7125742496817
2202.430480693649 1786.0526671674422
2203.0431360180955 2274.9612829239213
2203.6556436130195 2282.1317939392584
2204.268003512645 1738.7640046459424
2204.8802157511727 1961.7567572796027
2205.492280362796 1951.3092603633254
2206.1041973816937 1940.8789153725925
2206.715966842032 1984.3900953501598
2207.3275887779655 2249.770594408012
2207.93906322363 2072.787368201849
2208.550390213153 2289.1912232974846
2209.1615697806465 2154.8329024805143
2209.7726019602105 1730.7953277263528
2210.3834867859277 1830.7801861604676
2210.9942242918787 1844.5081690649372
2211.6048145121167 2002.1610380293685
2212.2152574806914 2021.3649468249155
2212.825553231638 2040.609969885648
2213.435701798975 2603.186694924123
2214.045703216707 1974.907649210841
2214.655557518832 1575.517046946152
2215.2652647393297 1650.6444389025587
2215.874824912169 1602.6882237215661
2216.4842380713 1988.1639580747728
2217.09350425067 1836.9837622351977
2217.7026234842033 1936.1748085011186
2218.311595805819 2039.8683345335164
2218.9204212494133 1962.3692945551325
2219.52909984888 2259.087040042126
2220.137631638092 1721.9916228312225
2220.7460166509154 2301.0084962731657
2221.354254921198 1769.8188544518366
2221.9623464827764 2005.4049693261245
2222.5702913694713 2079.089589343005
2223.178089615096 2407.41684353041
2223.7857412534486 1936.1649445270639
2224.39324631831 1685.8654329437381
2225.000604843457 1762.360880437028
2225.607816862641 2079.90648080333
2226.214882409611 2078.6858249137667
2226.8218015180973 2305.677371113328
2227.4285742218217 1874.7697434601087
2228.0352005544864 2064.0092356866794
2228.6416805497847 1666.9737323386428
2229.248014241399 2002.4878868112169
2229.8542016629945 1707.864000008639
2230.460242848223 2116.3049266699622
2231.0661378307304 1923.0867980542146
2231.671886644139 1729.6942805891824
2232.277489322065 1777.2680419845578
2232.8829458981127 1659.1968547429656
2233.48825640587 2009.396270648711
2234.0934208789095 2444.4923031739295
2234.6984393507955 2301.9245033365573
2235.3033118550793 2030.9487024369137
2235.9080384252975 1950.7457804296203
2236.5126190949723 1736.1907830503599
2237.1170538976166 1756.5708771432921
2237.721342866729 1738.9970988031043
2238.32548603579 1825.2975021192829
2238.9294834382763 2062.567404691079
2239.533335107646 2188.7931114978437
2240.1370410773434 1910.3361257494362
2240.740601380803 1858.9802991928452
2241.3440160514474 2076.4238030232627
2241.9472851226783 2219.263896625079
2242.550408627896 2020.9656953676513
2243.1533866004793 2274.5321875194777
2243.756219073799 1871.11484930355
2244.3589060812064 1741.444737643123
2244.961447656049 1868.5248960621739
2245.5638438316564 1987.0096416632198
2246.166094641343 1889.763890225736
2246.7682001184166 1814.5933046853431
2247.3701602961664 1985.3793313860156
2247.971975207871 2261.858247268415
2248.5736448867974 2171.966580345714
2249.175169366197 1942.065941384776
2249.7765486793123 1905.0759808100665
2250.3777828593684 1964.6905856909605
2250.9788719395783 1985.5186209425076
2251.579815953146 2067.407329669576
2252.1806149332606 2012.769745816795
2252.781268913097 1958.009748230852
2253.381777925817 1744.0451814408177
2253.9821420045737 1864.7011252935536
2254.5823611825035 2069.309857987646
2255.1824354927303 1989.8150482566994
2255.782364968365 1883.3122273273614
2256.38214964251 1776.7206825361336
2256.9817895482483 1686.5359512140385
2257.5812847186553 1877.0006109246574
2258.180635186791 1801.899510897155
2258.779840985704 1807.934823322871
2259.37890214843 1863.6934275686049
2259.97781870799 2046.114469340205
2260.5765906973957 2228.878502779811
2261.175218149645 2022.6213051435184
2261.773701097718 2039.502426606232
2262.3720395745895 1728.3241885387565
2262.970233613216 1791.7688352355794
2263.568283246548 1991.514437494268
2264.1661885075137 1685.3988441138742
2264.763949429038 1765.441756266348
2265.3615660440246 2141.450222716381
2265.959038385374 1740.5678578244656
2266.5563664859637 2139.9389070015504
2267.153550378669 1793.3565538925334
2267.7505900963424 1777.3587022586375
2268.3474856718312 1761.4587257717708
2268.9442371379664 1828.7494898908049
2269.5408445275643 1829.1079748238158
2270.1373078734377 1979.2692089544526
2270.7336272083758 1826.8840174740374
2271.32980256516 1700.1909173768593
2271.925833976562 2163.3385580747135
2272.5217214753357 1939.2021130399553
2273.117465094223 2153.8534865749207
2273.7130648659586 1813.1193036213328
2274.308520823257 1837.9748471869675
2274.903832998827 2247.98346864729
2275.4990014253563 2136.0556299166237
2276.094026135528 2023.8730559529802
2276.6889071620117 1644.159467127424
2277.2836445374614 1974.9235859615655
2277.878238294519 2075.5727552760372
2278.472688465812 1812.3619446726418
2279.066995083962 1548.692438191937
2279.6611581815705 1797.9665889898783
2280.255177791232 1821.043642139599
2280.8490539455233 2423.608356582259
2281.442786677013 2267.108368747601
2282.0363760182554 2270.7573777155185
2282.6298220017943 1847.7899220216393
2283.223124660155 2160.0301713121603
2283.816284025859 1790.9204140234283
2284.4093001314086 2258.6932530952645
2285.002173009292 1849.8584755013435
2285.5949026919952 2058.806977048446
2286.1874892119777 1730.2826730678812
2286.7799326016993 1928.4607473632434
2287.3722328936 1526.5721913728244
2287.964390120109 1391.203654695293
2288.556404313642 1993.982287652137
2289.1482755066027 2370.7553836017864
2289.7400037313873 1919.9968743231943
2290.3315890203703 1708.4100387558883
2290.9230314059205 1757.949249877828
2291.5143309203904 1807.6234508732389
2292.1054875961236 1851.9300104706758
2292.6965014654506 2363.6777801668236
2293.287372560684 1861.8504766387985
2293.878100914131 1774.1326398110054
2294.468686558086 1686.2846010688513
2295.059129524827 1635.6540840698558
2295.649429846617 1729.8025808989746
2296.239587555716 1824.105547103311
2296.8296026843636 1888.190909521066
2297.419475264791 1818.9301130149167
2298.0092053292137 1749.427442554012
2298.598792909839 2106.090208444818
2299.1882380388597 1966.8080582416783
2299.777540748455 1960.1832795006944
2300.3667010707904 1953.4240620779278
2300.9557190380256 2094.1442683739424
2301.544594682302 1864.9401629552042
2302.1333280357503 2293.9408962500283
2302.721919130485 2073.4421215477337
2303.3103679986198 2512.055133377659
2303.898674672242 2286.948979098727
2304.486839183437 2012.6546253491765
2305.0748615642697 1738.1149752673894
2305.6627418468015 2001.32296845888
2306.2504800630704 1822.6272838528562
2306.8380762451143 2052.735529418115
2307.425530424949 2023.5248682815509
2308.012842634582 1994.2313991867875
2308.6000129060103 2304.8214871023
2309.187041271214 2080.8174610849283
2309.773927762164 1856.33450547208
2310.3606724108213 2203.7628308317458
2310.9472752491274 2149.3716793978483
2311.5337363090184 2094.8926420124985
2312.120055622414 1870.3123937905252
2312.706233221221 1957.7444072552194
2313.2922691373424 1504.6635782526264
2313.8781634026564 1664.0012031181675
2314.463916049037 1823.7026029656536
2315.049527108342 2092.2971757578757
2315.6349966124235 2323.6217724956805
2316.2203245931123 2281.8181444300703
2316.8055110822315 1655.6831606797653
2317.3905561115935 1802.9198838980203
2317.9754597129977 1874.3919679105816
2318.560221918229 1785.4298027558518
2319.1448427590603 1696.3045945585777
2319.729322267256 1583.8021041083803
2320.313660474563 1778.5188026279332
2320.8978574127195 1940.552670007907
2321.481913113452 2103.1121366997254
2322.0658276084705 1668.91622905055
2322.6496009294806 1768.183509884922
2323.233233108165 1953.072146513416
2323.8167241762058 1788.270811411497
2324.4000741652617 1886.3490349257784
2324.983283106987 2233.19062516389
2325.5663510330232 2282.9789948347834
2326.1492779749933 1805.5792815349123
2326.7320639645204 1975.8643262548899
2327.3147090332004 2244.037061549309
2327.897213212629 2512.383576442134
2328.4795765343843 2122.1305299599708
2329.0617990300307 2114.986269679124
2329.643880731124 2107.8589690486256
2330.22582166921 1885.8906505034079
2330.807621875816 1592.6042342126227
2331.3892813824623 1978.7270106589226
2331.9708002206517 1605.5723268780212
2332.5521784218818 2062.3015034801647
2333.133416017634 1931.8173714789914
2333.7145130393765 1685.3847022714067
2334.295469518571 2172.7587882277467
2334.876285486658 2246.764452067228
2335.456960975076 2233.8861511797195
2336.037496015242 2221.017756435577
2336.6178906385667 1735.833241034775
2337.198144876451 1916.0480838735743
2337.778258760278 1762.2029179887427
2338.3582323214214 1892.2142680365728
2338.938065591243 2022.4802890465526
2339.517758601087 2238.1812186286706
2340.0973113822965 2006.2550445693582
2340.676723966193 2030.7781554380654
2341.255996384094 1908.5353425508376
2341.835128667295 1888.8716294528106
2342.4141208470883 1869.163523250605
2342.992972954751 2006.1656545234036
2343.5716850215467 1982.189761573219
2344.1502570787306 1133.7777198745587
2344.7286891575386 1626.4220490333562
2345.3069812892045 2316.3053810913943
2345.885133504944 2175.473391970248
2346.4631458359618 1597.2269965191574
2347.04101831345 1610.4818850274496
2347.6187509685915 1855.5680266236104
2348.196343832553 1739.8089112278662
2348.7737969364935 1739.1202582979088
2349.351110311558 1738.4663997363448
2349.9282839888765 1666.203353491194
2350.5053179995757 1546.694222617506
2351.0822123747585 1693.142687145492
2351.658967145526 1656.8522468984465
2352.2355823429643 1620.597642540218
2352.812057998144 1997.6508776790586
2353.3883941421263 1635.9815096490252
2353.9645908059647 2144.0879244337493
2354.540648020693 1868.2420187570528
2355.116565817336 1657.0492905653184
2355.6923442269126 1831.7674782673046
2356.2679832804224 2006.858675147812
2356.8434830088518 1940.0592212418735
2357.41884344318 1743.8416830896626
2357.994064614377 2091.025908606913
