#exp_cfg={"servo_angle": 0.0, "laser_lim": 100.0, "servo_angle_to": 18.0, "laser_wup": 0.0, "bt_dev": "EnSpectr-25AE3", "laser_wdn_max": 0.0, "frames": 10.0, "servo_used": 0, "servo_calib_use": 0, "laser_wdn_min": 0.0, "servo_pix_from": 90.0, "cooler_tout": 300.0, "servo_angle_from": 0.0, "servo_calib": "[-1.9174921013161362e-09, 3.9322238269163779e-05, -0.27385609119055809, 653.59552119713567]", "laser_autoctl": 0, "servo_pix_to": 3682.0, "laser_pw": 100.0, "cooler_on": 0, "laser_volt": 4.0, "cooler_autoctl": 0, "cooler_curr": 70.0, "cooler_startup": 10.0, "laser_fixed_pw": 0, "gain": 1.3, "offset": 2.53059635486, "servo_calib_degree": 3.0, "laser_curr": 55.0, "shutter": 8200.0, "servo_calib_step": 1.0, "laser_fixed_curr": 0, "exp": 2000.0, "ccd_volt": 4.7, "bt_addr": "00:06:66:62:5A:E3", "servo_delay": 500.0, "laser_autooff": 1}
#proc_cfg={"flat_auto_wnd": 200.0, "flat_auto_fr": 200.0, "flat_auto_shift": 5.0, "yconv": 1, "flatten": 1, "flatten_strength": 100.0, "xfrom": 300.0, "auto_max_frame": 2000.0, "auto_signal": 48000.0, "flat_auto_tol": 0.1, "autoclip": 1, "xrel_range": 0.0, "flat_auto_to": 4000.0, "intensity_adj": 1.0, "xrel": 7852.0, "rmhot": 1, "flat_auto_slit": 4.999999999999997, "auto_ini_exp": 300.0, "auto_off": 0, "xto": 2860.0, "flat_auto_ref": "", "flat_auto_rank": 1, "autobackg": 0, "xrel_adj": 0.0, "auto_black_lvl": 1, "base_wnd": 100.0, "sub_baseline": 0, "xconv": 2, "auto_max_exp": 1000.0, "auto_total_exp": 10000.0, "auto_exp": 0, "rmripple": 0, "black_lvl": 8270.1625, "shutter_clip_adj": 0.0, "auto_bckg": 0, "flat_auto_thr": 0.9, "subbackg": 1}
316.8218498245369 9338.982308391463
317.89969571804795 9156.211556977989
318.977263876126 9233.835563148737
320.05455438786703 9084.632664539164
321.1315673423287 9069.014364216968
322.2083028285215 9136.180690818579
323.2847609354267 9128.85133211432
324.3609417519747 9065.777527377397
325.43684536705587 9008.6643093678
326.5124718695279 9000.35337810354
327.58782134820103 8929.653358657784
328.66289389184385 9000.132155037221
329.7376895891921 8859.784031052584
330.8122085289342 8881.60979785113
331.88645079971866 8904.441667512472
332.9604164901575 8818.535725252044
334.03410568881554 8777.964825799088
335.1075184842266 8859.206950412621
336.18065496487543 8752.8306720612
337.2535152192122 8767.92732949708
338.32609933564163 8766.15694100273
339.39840740253203 8735.688301781502
340.4704395082099 8691.348242167285
341.5421957409617 8654.472004280327
342.6136761890357 8712.28360523515
343.6848809406365 8720.007047573918
344.75581008392874 8632.708056077145
345.82646370703696 8619.499100971629
346.8968418980512 8614.613599707362
347.96694474501055 8649.777794165635
349.0367723359268 8593.695272329434
350.106324758759 8593.257135405753
351.1756021014353 8515.356762642401
352.2446044518383 8499.555768915761
353.31333189781435 8574.552656071355
354.38178452716966 8537.018455961555
355.449962427665 8514.870399517114
356.51786568702846 8497.93173608428
357.58549439294256 8504.799674751139
358.6528486330535 8529.991562267187
359.71992849496564 8434.072694523475
360.7867340662433 8484.178608205606
361.8532654344144 8525.130104610196
362.9195226869597 8579.544334080423
363.9855059113288 8381.450838080098
365.05121519492604 8383.87501303307
366.11665062511565 8491.03296631823
367.1818122892273 8446.77367404564
368.2467002745434 8488.824824064757
369.31131466831175 8506.364138242727
370.375655557742 8396.773835676919
371.4397230299983 8433.838648185565
372.5035171722102 8416.545391895328
373.5670380714637 8357.286585227872
374.6302858148101 8420.734827513792
375.6932604892554 8406.779525350574
376.7559621817709 8348.394094707215
377.81839097928605 8313.492188439242
378.8805469686886 8305.380231406229
379.94243023683157 8395.390654827055
381.0040408705263 8300.017240803512
382.0653789565458 8174.442202552747
383.1264445816196 8238.385677307739
384.1872378324406 8141.778046300258
385.2477587956637 8154.1498614227285
386.3080075579037 8121.566884438519
387.3679842057336 8035.653676638421
388.4276888256918 8165.175179352353
389.48712150426945 8061.834460950857
390.54628232792857 8012.212437920309
391.6051713830857 7973.453510018177
392.66378875611736 8029.295474823579
393.7221345333637 7961.214102933506
394.7802088011249 7980.257939592719
395.838011645661 8010.632085240455
396.89554315319765 7985.165234481612
397.9528034099112 7899.985052735853
399.00979250194723 7838.303360923538
400.06651051541485 7861.3095173750335
401.1229575363741 7886.766500920586
402.17913365085224 7813.105792353686
403.23503894483656 7915.959898659925
404.2906735042761 7856.627732310303
405.3460374150818 7756.870388051543
406.401130763119 7768.653146254475
407.455953634224 7748.640292922924
408.5105061141876 7683.070086604428
409.56478828876243 7554.640461042509
410.6188002436629 7641.803157854198
411.6725420645689 7625.772732367269
412.72601383711117 7660.580317188115
413.77921564689314 7632.824431196888
414.8321475794728 7544.5725303675645
415.88480972036814 7559.17030770416
416.93720215506437 7522.111701437039
417.9893249690049 7499.60108923604
419.04117824759123 7433.068837750585
420.09276207619223 7454.640564465318
421.144076540133 7431.684434239115
422.1951217247042 7386.255093142907
423.24589771515275 7394.543547502564
424.2964045966928 7409.818986935226
425.34664245449494 7397.95025408565
426.3966113736933 7380.781390943057
427.4463114393875 7302.533033174614
428.49574273662984 7320.320787221417
429.5449053504417 7266.7506949382005
430.5937993658026 7374.376765101753
431.6424248676558 7255.9639152721065
432.6907819409007 7173.54934822504
433.73887067040596 7301.417018492114
434.7866911409965 7281.016482420417
435.8342434374608 7214.275620448703
436.88152764455117 7249.515516369704
437.9285438469724 7200.008372210634
438.9752921294057 7133.105978910627
440.02177257648145 7159.532618610443
441.06798527279716 7085.5682823734605
442.1139303029122 7209.072913033773
443.1596077513459 7185.027989559877
444.2050177025794 7070.773689698073
445.25016024105753 7140.903416240934
446.2950354511886 7126.397461392579
447.33964341733736 7128.5432014217
448.383984223834 7076.34893946745
449.4280579549686 7057.933732388154
450.471864694995 7094.122454801402
451.5154045281306 7105.669707240437
452.5586775385509 7028.906526615641
453.60168381039693 7072.031200709491
454.64442342776783 7059.713289442884
455.6868964747264 7085.712351181215
456.7291030353008 6986.88145976365
457.77104319347563 7124.715775057462
458.8127170332027 6928.457268328307
459.854124638392 7021.913361189198
460.895266092919 7071.693656699315
461.93614148061897 7050.298580053272
462.97675088529104 7009.744109887333
464.01709439069236 7003.155913982591
465.0571720805492 6984.566101475236
466.0969840385442 6995.030506349441
467.1365303483253 7143.160428609583
468.17581109350067 7020.94688408428
469.2148263576437 6903.9527316178865
470.2535762242878 6991.93832202506
471.29206077693016 7143.27985901192
472.33028009902773 7096.075466657664
473.3682342740012 7017.848282470016
474.40592338523857 6921.8318796663925
475.4433475160804 7005.10652563498
476.4805067498364 7054.131546905827
477.51740116978 7023.298792224037
478.5540308591426 7017.174191002523
479.59039590112116 7151.293615314729
480.6264963788726 7020.848385838153
481.6623323755193 7005.95656806076
482.6979039741436 7079.064975690092
483.7332112577915 7138.630953558166
484.76825430947247 7236.6776992214045
485.80303321215797 7067.7317703416575
486.837548048783 7182.608637914494
487.8717989022425 7262.375836092321
488.90578585539697 7238.20589681041
489.9395089910686 7259.204867330294
490.97296839203955 7240.056362953188
492.00616414106116 7135.7783305414105
493.0390963208429 7206.330626421486
494.0717650140559 7168.006538035108
495.10417030333883 7145.045525368252
496.1363122712901 7144.612805665823
497.16819100046814 7032.540670073667
498.1998065734024 7007.585023793499
499.2311590725767 6992.783509868686
500.26224858044407 6868.398085124974
501.2930751794156 6857.995290578374
502.3236389518679 6889.811772345146
503.35393998014115 6787.271521014826
504.38397834653733 6747.1356796672935
505.4137541333221 6752.7498611104165
506.4432674227228 6697.982759186902
507.4725182969323 6640.907904453363
508.5015068381035 6683.559771705371
509.53023312835467 6697.647071716723
510.55869724976765 6594.165102090437
511.58689928438434 6583.938733666119
512.6148393142121 6511.80020555088
513.6425174212218 6651.292852704233
514.6699336873462 6559.67863486178
515.6970881944835 6627.195263663691
516.7239810244901 6513.380423575114
517.7506122591931 6600.478932359867
518.7769819803761 6465.343299151784
519.8030902697901 6496.995705136801
520.8289372091476 6493.095126699211
521.8545228801249 6613.556416171244
522.8798473643619 6491.481886401341
523.9049107434621 6519.365548777917
524.9297130989908 6490.321185554081
525.9542545124805 6535.065342505297
526.9785350654201 6450.097686084748
528.0025548392696 6501.360682031564
529.0263139154504 6404.110719816943
530.0498123753423 6503.302185210326
531.073050300296 6483.879583977001
532.0960277716204 6336.709383459338
533.1187448705896 6367.696818641076
534.1412016784416 6443.461791247844
535.1633982763833 6310.7967867607285
536.1853347455726 6326.004987670696
537.2070111671401 6372.638746788719
538.2284276221817 6271.608216874872
539.2495841917516 6266.662981279149
540.2704809568677 6218.700411534458
541.2911179985167 6236.145812260253
542.3114953976419 6217.024158943492
543.3316132351592 6224.616757542447
544.3514715919409 6225.688685627339
545.3710705488247 6158.703390628693
546.3904101866156 6187.999354650157
547.4094905860784 6127.010181887435
548.4283118279418 6105.603598164574
549.4468739929034 6170.177315116819
550.4651771616191 6168.037739433892
551.4832214147063 6073.04171801337
552.501006832761 6116.055841213054
553.5185334963226 6072.362753297719
554.5358014859103 6195.568402634085
555.5528108820035 6125.238740047192
556.5695617650363 6042.160200181204
557.5860542154242 6078.618856010203
558.6022883135283 6063.177944513687
559.6182641396881 5977.887883000228
560.6339817741991 6044.425026113007
561.6494412973225 6036.860360791914
562.6646427892883 6153.893195954222
563.6795863302796 5996.114626914484
564.694272000459 5984.473026717705
565.7086998799423 6101.621715743058
566.7228700488104 5959.048328884369
567.7367825871115 5934.522150258323
568.7504375748576 5935.098770592352
569.7638350920224 5982.287202551204
570.7769752185486 5947.689058723039
571.7898580343353 5930.245026994458
572.802483619258 5916.833232293104
573.8148520531431 5992.820459986082
574.8269634157932 6015.55908558035
575.8388177869692 5916.480191860458
576.8504152463938 6000.628777785014
577.8617558737587 6083.936895157563
578.8728397487175 5898.526911015225
579.883666950891 5911.689613968172
580.8942375598654 6048.13678977874
581.9045516551851 6030.355006021891
582.9146093163617 6132.43134878499
583.924410622878 5999.1529009581345
584.9339556541727 6039.904041531563
585.9432444896538 6155.286719501017
586.9522772086875 6055.710571937912
587.9610538906127 6135.438064723776
588.9695746147318 6057.63789030679
589.9778394603054 6093.69766761659
590.985848506567 6060.55908580196
591.9936018327098 5990.205523033897
593.0010995178891 5899.8044915499495
594.0083416412344 6015.963318950063
595.0153282818283 5840.703006320751
596.0220595187293 5844.146826234286
597.0285354309508 5861.439057931082
598.0347560974806 5802.702673175578
599.0407215972609 5791.011495112189
600.0464320092051 5734.444549091166
601.0518874121954 5869.780392943877
602.0570878850685 5738.8634964524
603.062033506636 5825.566806696242
604.0667243556636 5745.700188163246
605.0711605108936 5682.9084318792975
606.0753420510264 5854.652856320834
607.0792690547278 5751.911283443968
608.082941600629 5606.932849959737
609.0863597673306 5756.017533810112
610.0895236333909 5774.582904590914
611.0924332773357 5904.593613609541
612.0950887776617 5706.206194039736
613.0974902128219 5737.300832508341
614.0996376612384 5819.128417244807
615.1015312013005 5856.049860023068
616.1031709113595 5903.366008982482
617.1045568697336 5834.628442246618
618.1056891547069 5768.072813423814
619.1065678445229 5904.022780070443
620.1071930173985 5971.729726371897
621.1075647515099 6012.642221167086
622.1076831250048 5978.367217966972
623.1075482159849 6114.979597896529
624.1071601025305 6002.966728537974
625.1065188626781 6082.981566403313
626.105624574433 6240.751356992081
627.1044773157682 6259.667172625444
628.1030771646128 6109.129957672443
629.1014241988742 6288.983683211536
630.0995184964158 6333.775875928196
631.0973601350688 6348.987593746581
632.0949491926294 6467.395987779481
633.0922857468631 6281.13565009451
634.089369875499 6391.809770207827
635.0862016562278 6415.2088086121985
636.0827811667077 6189.030194847808
637.0791084845641 6245.646957598468
638.0751836873878 6161.967298505043
639.0710068527369 6283.03479466603
640.0665780581294 6071.227601008351
641.0618973810506 6089.4667957927395
642.0569648989604 6163.811702534347
643.0517806892676 5937.115507654864
644.0463448293649 5972.977785025582
645.040657396592 5887.982587282084
646.0347184682723 5766.4215318479455
647.0285281216875 5717.492416909277
648.0220864340772 5688.92638023837
649.0153934826558 5573.079701472046
650.0084493446047 5661.260639923234
651.0012540970674 5630.892527686279
651.9938078171526 5547.808068528435
652.9861105819346 5513.206022798291
653.9781624684565 5599.30153294402
654.9699635537254 5462.850391579581
655.9615139147136 5504.134183919911
656.9528136283589 5393.508149522198
657.9438627715699 5503.5946635780765
658.9346614212154 5497.545851270643
659.925209654135 5297.12230632608
660.9155075471263 5364.456601218686
661.9055551769616 5376.710961524987
662.895352620375 5493.121415803819
663.8848999540678 5260.244601324911
664.8741972547068 5246.171956512989
665.863244598926 5238.2257464581835
666.8520420633213 5266.3778878366975
667.8405897244611 5162.320780727372
668.8288876588758 5155.994695888904
669.8169359430613 5241.797132044541
670.8047346534822 5241.767705978872
671.7922838665672 5069.788382634075
672.7795836587156 5194.391600720839
673.766634106285 5324.473723742651
674.7534352856092 5126.399268595951
675.7399872729766 5123.6232374776755
676.7262901446538 5174.6287819875415
677.712343976862 5195.729549880929
678.6981488457986 5212.481993384405
679.6837048276229 5060.982773685927
680.6690119984596 5124.328105637369
681.6540704344043 5115.974784710256
682.6388802115107 5173.393431238439
683.6234414058108 5066.958259748097
684.6077540932874 5068.243445797458
685.591818349907 5084.969402033043
686.575634251587 5092.355212119617
687.5592018742263 5014.112391308986
688.5425212936734 4967.176285068117
689.5255925857564 5167.428851183525
690.5084158262707 5080.5331471259
691.4909910909646 5011.493064748144
692.4733184555644 5002.0431995901945
693.4553979957618 5083.464745703608
694.4372297872123 4988.662570539278
695.4188139055404 5020.401132750772
696.4001504263324 4871.221574633746
697.3812394251509 5009.752161224278
698.3620809775111 5020.433669035816
699.3426751589104 4903.34124166892
700.3230220448004 4946.8979748804095
701.3031217106054 4921.429816418728
702.2829742317172 5097.193007320394
703.2625796834873 4851.9391003437295
704.2419381412474 4884.629389479597
705.22104968028 4965.262644914985
706.1999143758458 4915.6167091836305
707.178532303169 4901.043058294422
708.1569035374378 4926.583357099294
709.1350281538107 4969.7153843400365
710.1129062274158 4892.9739289123245
711.0905378333373 5023.419919889913
712.0679230466376 5003.794122947957
713.0450619423427 5135.542106878658
714.0219545954424 5193.11634724436
714.9986010808989 5119.928697280493
715.9750014736292 5104.945019446747
716.9511558485392 5194.791086302342
717.9270642804786 5298.321224302555
718.9027268442787 5270.037798528437
719.8781436147328 5285.0362556635255
720.8533146666014 5286.923508371968
721.828240074612 5344.50047443411
722.8029199134635 5265.191526377667
723.7773542578125 5320.546129909532
724.751543182294 5211.748922990144
725.7254867615029 5284.2495717185575
726.6991850700015 5117.63491547538
727.6726381823228 5167.50475273366
728.6458461729599 5164.31506571999
729.6188091163858 5176.643496332156
730.5915270870246 5104.091703202381
731.5640001592856 5072.1370219411065
732.536228407529 5102.068047912011
733.5082119060917 5137.314122840866
734.4799507292755 5141.010940694623
735.4514449513481 5086.992762401727
736.4226946465496 5186.144402794462
737.3936998890786 5247.30802751515
738.3644607531078 5014.97414592081
739.3349773127793 5107.471123554321
740.3052496421951 5118.23030772161
741.27527781543 5025.76866911313
742.2450619065221 4907.103866913278
743.2146019894826 4972.588958020193
744.183898138288 4979.2268549666
745.1529504268801 4847.486443989637
746.1217589291682 4743.034235471451
747.0903237190341 4816.284289251733
748.058644870318 4732.804622331405
749.0267224568397 4719.853597212857
749.994556552374 4575.261820322905
750.9621472306771 4651.124645185548
751.9294945654583 4650.08864736559
752.8965986304011 4688.567856013168
753.8634594991636 4566.459047480765
754.8300772453586 4634.1678324618415
755.7964519425768 4590.077033318934
756.762583664371 4755.462618486461
757.7284724842611 4617.281544882795
758.6941184757416 4525.9220963581
759.6595217122667 4575.467804513344
760.6246822672638 4570.013940020558
761.5896002141235 4426.931253180692
762.5542756262093 4507.935481610261
763.5187085768503 4579.375872917627
764.4828991393406 4545.50189282148
765.4468473869474 4536.082200101581
766.4105533929032 4610.5658336107
767.3740172304078 4533.627243015797
768.3372389726283 4644.462128055842
769.3002186926988 4523.094654238385
770.2629564637282 4576.297681487503
771.2254523587872 4544.603825289437
772.1877064509154 4504.986643687273
773.1497188131179 4370.547046855036
774.1114895183728 4418.318785742412
775.0730186396268 4367.787824675183
776.0343062497905 4409.323729571863
776.9953524217381 4329.820008872766
777.9561572283274 4348.340707549525
778.9167207423689 4366.334996242853
779.8770430366476 4276.913526086076
780.8371241839159 4271.611848436723
781.7969642568951 4285.6263414587975
782.7565633282757 4475.283528513033
783.7159214707099 4318.641484130673
784.6750387568281 4340.540286463072
785.6339152592227 4312.405943081643
786.5925510504512 4292.925633711978
787.5509462030477 4330.921512537867
788.5091007895098 4277.529635368855
789.4670148823006 4262.841608303251
790.4246885538596 4265.665854919691
791.3821218765861 4279.251395404653
792.3393149228505 4191.790801704191
793.2962677649975 4331.361422028385
794.2529804753303 4284.611705438231
795.20945312613 4343.953042951507
796.1656857896378 4209.377158294532
797.1216785380675 4262.213281974828
798.0774314435985 4258.5013767685505
799.0329445783846 4366.628218997115
799.9882180145414 4296.96629306773
800.9432518241574 4254.922197562824
801.89804607929 4346.666627126136
802.852600851962 4348.332647612172
803.8069162141637 4243.220561957252
804.760992237856 4349.893775891224
805.714828994971 4414.214669971213
806.6684265574077 4431.613044777955
807.6217849970271 4326.133215393887
808.574904385674 4296.099108896778
809.527784795142 4450.442804766057
810.4804262972102 4505.178322199817
811.4328289636178 4325.2205227458735
812.3849928660748 4194.534900799639
813.3369180762638 4256.204944312764
814.2886046658241 4350.621407371715
815.2400527063783 4239.7306271265
816.1912622695108 4205.983160740956
817.1422334267718 4252.1917954233195
818.0929662496856 4197.258066426355
819.0434608097457 4068.4357423393567
819.9937171784059 4134.650266855431
820.9437354271013 4081.9237575270076
821.8935156272255 4206.6974261729465
822.8430578501484 4116.529910975088
823.7923621672016 3953.560149328949
824.7414286496896 4076.367452844252
825.6902573688876 4100.5739944132565
826.6388483960363 4095.2432678944433
827.5872018023492 4009.3143287490298
828.5353176590033 4138.337677920752
829.4831960371503 4019.8034001961337
830.4308370079016 4032.6926409289126
831.3782406423525 3925.0425115734884
832.3254070115545 4073.0922772368635
833.2723361865319 3985.2553742525715
834.2190282382799 3866.516199743511
835.1654832377644 3972.684579182028
836.1117012559116 3896.5381115408536
837.0576823636256 4009.0895381939044
838.003426631778 3864.7902290295074
838.9489341312074 3854.72841863938
839.8942049327197 3945.788349466202
840.8392391070975 4001.3631332499854
841.7840367250865 3934.78160814278
842.7285978573982 3835.023351620946
843.672922574724 3997.2841680382967
844.6170109477152 3900.724440666802
845.560863046996 3817.580929139782
846.5044789431595 3907.6197404502573
847.4478587067697 3850.098366478139
848.3910024083561 4013.0048264227275
849.333910118421 3882.8486411858635
850.2765819074339 3857.141463942416
851.2190178458332 3924.3696455233135
852.161218004032 3967.7191896041286
853.1031824524016 3897.3181820209247
854.0449112612987 3886.068461067063
854.9864045010327 3926.061838581007
855.9276622418947 3901.444826125605
856.8686845541379 3899.0794310659207
857.8094715079915 3880.189917151485
858.7500231736467 4004.1508667404146
859.690339621271 3944.067936850548
860.6304209209939 3894.6154797674985
861.5702671429244 3840.672260286058
862.5098783571284 3894.424522684575
863.4492546336569 3922.6897648794293
864.3883960425155 3900.387330281965
865.3273026536863 3839.3517303068024
866.2659745371238 3840.8447601922176
867.2044117627465 3946.641848339924
868.1426144004472 3804.41739103449
869.0805825200823 3871.0199054334203
870.0183161914847 3882.737200033949
870.9558154844526 3983.981353442277
871.8930804687552 3924.648878367402
872.8301112141307 3839.2053412962073
873.7669077902865 3866.5469607885907
874.7034702669062 3986.8520510409608
875.6397987136315 3870.891047017627
876.5758932000863 3910.6398822596248
877.5117537958522 3924.988584359551
878.4473805704911 3896.557349818903
879.3827735935283 3857.7185301975414
880.3179329344603 4015.2404290006134
881.2528586627541 3985.312749467189
882.1875508478479 4009.6888838971545
883.1220095591489 4006.6111795487714
884.0562348660296 3919.8616663843413
884.9902268378391 3994.9276419086514
885.9239855438955 3902.6237479885613
886.8575110534839 3854.656418182186
887.7908034358588 3946.836270263476
888.7238627602474 3910.7932323406303
889.6566890958475 4013.1077128283664
890.5892825118208 3793.7135363419416
891.5216430773125 3872.7683504672373
892.4537708614189 3901.23013875998
893.3856659332196 3850.868696904579
894.3173283617652 3789.4504715005883
895.2487582160684 3910.771352693191
896.179955565116 3800.1339153300964
897.110920477864 3780.8234621513025
898.0416530232451 3702.821565296231
898.9721532701478 3727.9816904242325
899.9024212874428 3876.9595186667248
900.8324571439662 3697.0383958102966
901.7622609085302 3688.968754564289
902.6918326499072 3711.8567594636224
903.6211724368477 3722.320830360369
904.5502803380696 3790.4830506700455
905.4791564222614 3843.912896612032
906.4078007580792 3728.9911317330348
907.3362134141571 3663.534327762534
908.2643944590909 3819.3680044858265
909.1923439614493 3648.676793846137
910.1200619897754 3734.124687590987
911.0475486125779 3869.433251244318
911.9748038983344 3731.92202719115
912.9018279155007 3642.2375100016034
913.8286207324982 3610.3464259773364
914.7551824177117 3743.38531418639
915.6815130395116 3636.1051454549925
916.6076126662283 3599.923998322739
917.533481366163 3640.8860337219544
918.4591192075914 3677.82436607824
919.3845262587565 3763.716053935635
920.3097025878706 3614.036664031503
921.2346482631237 3602.732678467267
922.1593633526682 3597.022443291403
923.0838479246304 3700.7355166615175
924.0081020471061 3777.850607337762
924.9321257881656 3575.5847770540486
925.8559192158464 3673.748475070393
926.7794823981512 3617.230548410662
927.7028154030686 3556.072900543204
928.6259182985414 3569.7405334979585
929.5487911524906 3698.7256186943223
930.4714340328119 3702.779157138294
931.3938470073608 3498.3965505130996
932.3160301439748 3525.437469102927
933.2379835104548 3611.130663741086
934.1597071745709 3738.2730264542356
935.0812012040769 3587.2342355468086
936.002465666681 3620.125012892914
936.9235006300696 3666.913474238068
937.8443061619055 3643.833373093191
938.7648823298077 3498.0611862385676
939.6852292013809 3544.8027759389406
940.6053468441951 3564.941677175417
941.5252353257874 3560.4065919665786
942.4448947136698 3545.6858771661005
943.364325075323 3540.4166364036946
944.2835264782043 3591.807374827384
945.2024989897309 3525.81556777304
946.1212426773054 3560.0028811927614
947.0397576082851 3607.210643389225
947.9580438500125 3690.996179528509
948.8761014697939 3665.377637762659
949.7939305349064 3622.229282578507
950.7115311125999 3495.110061320492
951.6289032700952 3499.1872053705
952.5460470745875 3653.085078705984
953.4629625932339 3505.8248960848673
954.3796498931715 3558.1566047926854
955.2961090415029 3594.2617226426823
956.2123401053068 3549.6220927241607
957.1283431516276 3555.6609308171087
958.0441182474842 3490.7137823767284
958.9596654598663 3602.9145490047777
959.8749848557309 3563.407018212694
960.7900765020167 3489.1602088940317
961.7049404656209 3438.6422609118736
962.6195768134185 3544.929116712211
963.5339856122537 3606.6828556655028
964.4481669289453 3565.208962500818
965.3621208302793 3509.0845313402306
966.2758473830145 3508.745810548159
967.1893466538822 3707.4425796328273
968.1026187095813 3470.6227962482967
969.0156636167867 3468.261847644911
969.9284814421426 3478.345585341216
970.8410722522622 3516.2406155660474
971.753436113735 3510.2429854449438
972.6655730931161 3486.80856328878
973.5774832569368 3532.109863166713
974.4891666716958 3472.3718996370103
975.4006234038698 3344.430569959089
976.3118535198955 3406.620996428668
977.2228570861935 3551.889339671228
978.1336341691494 3511.3846711465167
979.0441848351202 3307.8400294854646
979.9545091504333 3449.187935151623
980.864607181391 3482.9965900320326
981.7744789942699 3489.114340635092
982.6841246553086 3417.212944221662
983.5935442307236 3464.4957135886884
984.5027377867027 3410.8048350572185
985.4117053894024 3492.012035501579
986.3204471049557 3381.8661480451
987.2289629994648 3488.284147463615
988.1372531390007 3514.3938539146766
989.0453175896091 3447.9938653812596
989.9531564173067 3476.753049649518
990.860769688079 3326.4725619336323
991.7681574678918 3358.564148493065
992.6753198226706 3452.174510786208
993.582256818323 3367.042541925291
994.4889685207218 3368.518977455589
995.3954549957143 3479.2511146964366
996.301716309119 3510.3992041858364
997.2077525267232 3438.9125517650527
998.1135637142943 3351.55402528949
999.0191499375615 3511.170344223924
999.924511262232 3473.0223111301007
1000.8296477539861 3440.1928911151526
1001.7345594784656 3408.4295643254964
1002.6392465012996 3388.5188514926435
1003.5437088880753 3556.024157098328
1004.4479467043584 3444.45955798018
1005.3519600156869 3353.2630552002497
1006.2557488875718 3513.7017039570833
1007.1593133854858 3447.8586279785377
1008.0626535748888 3353.102728429939
1008.9657695212009 3300.1567315320945
1009.8686612898182 3537.0328708470356
1010.7713289461135 3494.5286562741617
1011.6737725554212 3426.236084814261
1012.5759921830577 3418.85035592296
1013.4779878943027 3473.700823641136
1014.379759754418 3515.6153321646925
1015.2813078286254 3334.7776198887937
1016.18263218213 3328.4350711375164
1017.0837328801026 3353.564373550492
1017.9846099876886 3433.740187502982
1018.8852635700023 3296.631632838586
1019.7856936921362 3213.883715660715
1020.6859004191447 3481.5113724068738
1021.5858838160675 3297.1003428294366
1022.4856439479063 3251.212551046516
1023.3851808796389 3261.285209960457
1024.2844946762143 3438.8964293810227
1025.183585402554 3387.577186225143
1026.082453123554 3149.437885093213
1026.9810979040776 3342.938900897173
1027.8795198089647 3209.9816747647465
1028.777718903024 3371.5615309093055
1029.6756952510368 3300.8757306106445
1030.5734489177648 3295.311453738318
1031.4709799679313 3243.3576485989256
1032.3682884662358 3444.9825261239093
1033.2653744773506 3151.742051787083
1034.1622380659192 3232.2100056687
1035.058879296559 3317.061581534771
1035.9552982338591 3398.0772568174625
1036.8514949423825 3224.429965307912
1037.7474694866614 3293.2579071883324
1038.6432219312028 3170.444775764967
1039.5387523404825 3452.227522389876
1040.4340607789582 3351.4035875245036
1041.3291473110476 3385.7896864243135
1042.2240120011465 3494.73663648763
1043.1186549136273 3558.407133222684
1044.0130761128294 3441.705888602269
1044.9072756630649 3474.573782142061
1045.8012536286205 3628.185279114679
1046.6950100737577 3645.5372703803705
1047.588545062701 3656.072913423783
1048.481858659663 3651.3752059838107
1049.3749509288118 3845.5192864350297
1050.2678219343034 3724.2707156758092
1051.1604717402515 3732.2273707667127
1052.0529004107575 3675.3401776898945
1052.9451080098825 3732.244964860428
1053.8370946016694 3758.4464368804884
1054.7288602501267 3677.761703332629
1055.6204050192446 3668.0074626230867
1056.511728972977 3696.6119097996248
1057.402832175254 3607.2067471103446
1058.2937146899785 3487.8158816388
1059.1843765810263 3500.016088222145
1060.0748179122456 3568.432748113687
1060.9650387474576 3478.477788210131
1061.855039150456 3426.6174647433204
1062.7448191850071 3462.4096268986877
1063.6343789148505 3444.43109729206
1064.5237184037014 3508.386827934234
1065.412837715241 3364.3713685198627
1066.3017369131267 3387.3474224133993
1067.190416060992 3257.488143623168
1068.0788752224398 3278.099902240048
1068.9671144610438 3190.438273184176
1069.8551338403558 3324.4363844495383
1070.7429334239023 3221.9952571961667
1071.6305132751695 3177.0189532573304
1072.517873457633 3297.460655709652
1073.4050140347335 3197.329675840587
1074.2919350698776 3190.0894919256643
1075.1786366264623 3229.204218157386
1076.0651187678395 3252.142933775112
1076.95138155735 3097.1079543269984
1077.8374250582929 3155.1718027221023
1078.7232493339507 3248.7993223477006
1079.608854447577 3139.3298682244613
1080.4942404623907 3104.6621436064497
1081.3794074415982 3186.2953411556437
1082.2643554483657 3224.05478434812
1083.149084545841 3064.3565220478204
1084.033594797138 3124.1355222175475
1084.9178862653516 3107.3742596250922
1085.8019590135427 3316.8302405337927
1086.6858131047484 3061.5829466025352
1087.5694486019802 3176.374830061921
1088.4528655682225 3146.1189661516273
1089.3360640664287 3282.604142199244
1090.2190441595321 3154.827538561815
1091.1018059104317 3151.840006429781
1091.98434938201 3229.466328534795
1092.866674637111 3396.954391070872
1093.748781738559 3170.786668693712
1094.6306707491512 3082.370274437307
1095.5123417316554 3280.3562146054073
1096.3937947488157 3146.4074473301093
1097.2750298633455 3109.267568792343
1098.156047137938 3111.052322454438
1099.0368466352556 3143.549688094981
1099.9174284179317 3264.300624749345
1100.7977925485757 3041.019978282162
1101.6779390897755 3106.5151674489157
1102.5578681040806 3126.0400382544985
1103.4375796540226 3091.027382727981
1104.3170738021054 3057.082475083708
1105.1963506108077 2978.7108821197753
1106.0754101425773 3013.5974900511314
1106.9542524598382 3120.931769841108
1107.8328776249855 2974.6023933830393
1108.7112857003904 2955.821998758578
1109.5894767483987 2969.111645152268
1110.4674508313292 3104.5841246198333
1111.3452080114657 2921.0461026635853
1112.2227483510815 3047.6277167794933
1113.1000719124077 3021.8034078440137
1113.9771787576592 3084.810386622681
1114.854068949022 2987.212467855324
1115.7307425486542 3118.4675851232582
1116.6071996186893 3107.071181460742
1117.483440221229 3327.315263139854
1118.3594644183577 3031.816778246016
1119.235272272128 3024.3477212758544
1120.1108638445658 3129.68040146647
1120.9862391976712 3265.4785249356464
1121.8613983934229 3163.161796022141
1122.7363414937627 3157.8725234275307
1123.6110685606182 3140.649411617719
1124.485579655884 3304.8790980594517
1125.359874841426 3173.0673682214892
1126.2339541790916 3203.493124953505
1127.1078177306936 3336.6611057891873
1127.9814655580267 3204.7376073775936
1128.854897722851 3177.486635497463
1129.7281142869106 3198.7303255547313
1130.6011153119125 3239.2978495925954
1131.473900859548 3422.8513019037723
1132.3464709914697 3309.163829896893
1133.2188257693178 3281.75969022076
1134.0909652546961 3178.4576829719035
1134.96288950919 3138.486087623308
1135.8345985943506 3248.854331646769
1136.7060925717087 3060.4003475450254
1137.57737150277 3202.9285759803065
1138.4484354490069 3347.659567447948
1139.3192844718778 3137.7114685107003
1140.1899186327992 2967.91320966315
1141.060337993178 3179.4182418708906
1141.930542614382 3120.2872843560785
1142.8005325577597 2997.283275294875
1143.670307884635 2964.525490043081
1144.5398686563003 3065.172695310209
1145.409214934025 3032.6064383651105
1146.2783467790541 2890.354048418313
1147.1472642526023 2996.344295397538
1148.0159674158622 3030.6766516476628
1148.8844563300026 2965.2349067504074
1149.7527310561618 2871.5864571921675
1150.6207916554504 2868.9814132548236
1151.4886381889592 2855.5927713546853
1152.3562707177498 3040.3178442813237
1153.2236893028585 2859.9993911067845
1154.090894005296 2848.172799100441
1154.9578848860474 2909.6691679039072
1155.8246620060709 2956.28658061303
1156.6912254262988 2707.10814530502
1157.5575752076438 2774.0458786395006
1158.42371141098 2960.6637146550206
1159.2896340971656 2888.7304141490813
1160.1553433270346 2801.5043547529426
1161.0208391613887 2865.634039694471
1161.8861216610057 2921.5015434061525
1162.75119088664 2869.6229827958323
1163.6160468990201 2767.4141386891506
1164.4806897588442 2748.1436121983525
1165.3451195267917 2819.7052946168888
1166.2093362635114 2836.619200573277
1167.0733400296285 2841.991892620573
1167.9371308857444 2730.5345846036826
1168.8007088924278 2690.969366797569
1169.6640741102328 2757.447772299043
1170.5272265996773 2729.6160641484084
1171.390166421259 2722.30261942493
1172.252893635452 2802.018128532291
1173.1154083026995 2915.112779636719
1173.977710483421 2824.215930327302
1174.8398002380145 2630.022694759542
1175.7016776268483 2784.375170095987
1176.563342710264 2730.432810309469
1177.4247955485826 2749.307831392357
1178.2860362020947 2876.7322173027383
1179.147064731069 2647.238245507775
1180.0078811957483 2829.8623314145416
1180.8684856563486 2755.0196524446487
1181.7288781730604 2811.9372075279243
1182.589058806052 2760.3130914402827
1183.4490276154593 2909.771152774509
1184.3087846614017 2673.379611334523
1185.1683300039676 2766.2327317808044
1186.027663703222 2935.396097165939
1186.8867858192025 2787.738302746441
1187.7456964119228 2757.6489471273053
1188.6043955413716 2817.738412459025
1189.4628832675116 2868.072295452791
1190.3211596502842 2995.6029504339017
1191.179224749596 2847.088813952926
1192.0370786253388 2783.6077600759986
1192.8947213373758 2916.275316209434
1193.7521529455407 3044.7270515134774
1194.6093735096438 2793.2436482325893
1195.466383089477 2821.937580952958
1196.3231817447977 2828.302083895365
1197.1797695353398 3070.5214558106354
1198.0361465208189 2736.623196028008
1198.8923127609214 2732.0445234934336
1199.7482683153048 2972.0788236038734
1200.6040132436028 2987.430542461606
1201.459547605431 2871.963944662327
1202.3148714603722 2881.2151847894743
1203.1699848679855 2871.714803383205
1204.0248878878065 3040.055385242891
1204.8795805793507 2688.5971744443054
1205.7340630020935 2970.7370057155204
1206.5883352155033 2925.711859633348
1207.4423972790064 2996.904323105614
1208.2962492520237 2857.470957868453
1209.1498911939307 2822.736729695839
1210.0033231640937 2875.088397977229
1210.8565452218427 2894.22419280446
1211.7095574264913 2637.923357278086
1212.5623598373222 2741.037683678077
1213.4149525135963 2702.0169929451777
1214.2673355145507 2835.3059982917057
1215.1195088993936 2673.7862370785488
1215.9714727273113 2711.5760533227644
1216.8232270574663 2842.3311157167586
1217.6747719489904 2598.863430844135
1218.5261074609934 2689.6119064685563
1219.3772336525653 2707.081007851962
1220.2281505827668 2726.7858917258554
1221.0788583106296 2824.0129600061596
1221.9293568951707 2610.4362200178834
1222.7796463953746 2602.8220825030758
1223.629726870202 2759.1361121171362
1224.4795983785934 2755.9644441282353
1225.3292609794553 2704.7518511212597
1226.1787147316809 2622.1729751250227
1227.0279596941327 2638.6659539766315
1227.8769959256424 2608.5140658225932
1228.7258234850306 2742.1339892670553
1229.5744424310833 2558.9097870359956
1230.422852822563 2724.9816374123984
1231.2710547182105 2809.4985539265253
1232.119048176739 2601.626799381501
1232.9668332568417 2513.7073205423867
1233.8144100171812 2779.0865315961846
1234.6617785163999 2665.873064313656
1235.508938813111 2468.769649999693
1236.3558909659114 2501.2056846072055
1237.2026350333617 2723.409785993941
1238.049171074008 2744.593694737283
1238.8954991463652 2499.0564803352327
1239.741619308932 2601.009591825305
1240.587531620169 2640.6344633194412
1241.4332361385277 2679.661467325037
1242.2787329224248 2570.3442095178043
1243.1240220302534 2477.2394771520544
1243.9691035203869 2532.1076906868866
1244.813977451171 2779.462293904068
1245.6586438809263 2580.2922903274007
1246.5031028679496 2425.0670329289187
1247.3473544705157 2673.8360472402937
1248.1913987468706 2605.8710603772824
1249.0352357552383 2342.503475674832
1249.8788655538228 2507.854820470719
1250.7222882007918 2667.3648537465933
1251.565503754302 2671.8664785259166
1252.4085122724755 2384.9088439909788
1253.2513138134182 2679.128685167073
1254.0939084352049 2587.4929280623355
1254.9362961958905 2568.092158156542
1255.7784771535007 2558.252303001683
1256.6204513660432 2622.1750402609923
1257.4622188915 2725.266326907833
1258.3037797878242 2605.2227484838822
1259.1451341129468 2473.098135622219
1259.9862819247755 2656.4220386604356
1260.8272232811978 2608.033676816625
1261.6679582400666 2892.151465061662
1262.5084868592203 2525.774046651761
1263.34880919647 2436.0783994724125
1264.1889253095997 2556.732686706064
1265.0288352563712 2692.893677844534
1265.8685390945266 2542.7336085838733
1266.7080368817751 2711.9440381606737
1267.5473286758115 2782.851159523294
1268.386414534294 2688.8087361627913
1269.2252945148703 2412.563430116644
1270.0639686751547 2578.015448381769
1270.9024370727402 2579.730408635977
1271.7406997651997 2503.885011973526
1272.5787568100714 2461.512837466211
1273.4166082648808 2521.4162910305085
1274.2542541871244 2508.77012579931
1275.091694634275 2789.4174831698747
1275.9289296637817 2424.1837525942037
1276.7659593330663 2655.802405326043
1277.6027836995308 2580.2875662378665
1278.4394028205552 2687.4010433598246
1279.2758167534867 2571.3169318988175
1280.112025555658 2525.735897192479
1280.9480292843746 2625.620918993051
1281.7838279969128 2436.650711872435
1282.6194217505326 2494.7970019322393
1283.4548106024686 2433.3387705851915
1284.289994609926 2458.4812886973336
1285.1249738300921 2578.769035936435
1285.959748320127 2476.30731569543
1286.7943181371702 2544.16929902822
1287.6286833383328 2541.3015834776825
1288.4628439807038 2617.2449226772055
1289.2968001213521 2426.813097205505
1290.1305518173194 2563.5763548337336
1290.9640991256183 2594.0454761341693
1291.7974421032523 2495.796989926273
1292.630580807183 2432.7352599942806
1293.463515294361 2652.0934270609164
1294.29624562171 2701.844741010024
1295.12877184613 2527.2826168371553
1295.961094024493 2516.2815865240855
1296.79321221365 2677.694040805652
1297.6251264704333 2596.5791440751973
1298.4568368516466 2882.6040626563513
1299.2883434140658 2548.3537387258216
1300.1196462144526 2486.7451160414266
1300.9507453095375 2629.5530342050433
1301.7816407560313 2637.504207631918
1302.6123326106172 2623.1050842574036
1303.4428209299622 2534.5130954291935
1304.2731057707024 2830.9195443687463
1305.1031871894502 2582.734556825794
1305.933065242798 2670.0293691248207
1306.7627399873181 2616.532946703936
1307.5922114795467 2934.9945825044147
1308.4214797760123 3035.2129928108543
1309.2505449332057 2632.007453247731
1310.0794070076026 2687.362450359366
1310.9080660556538 2871.7058838766875
1311.736522133786 2883.492166415173
1312.5647752983987 2705.2346819697514
1313.3928256058734 2525.6506243621766
1314.2206731125661 2778.146861765514
1315.048317874809 2735.3142265256197
1315.8757599489109 2654.120309450908
1316.7029993911547 2716.075037602236
1317.5300362578055 2806.4111251676136
1318.356870605101 2668.5712985593846
1319.183502489257 2661.00280215852
1320.0099319664623 2746.0660946213516
1320.836159092889 2793.3661108069396
1321.66218392468 2762.777687567033
1322.4880065179532 2532.370674495138
1323.3136269288134 2767.1887427293564
1324.1390452133292 2836.83502375433
1324.9642614275563 2814.5816617452597
1325.7892756275214 2694.0217008931586
1326.6140878692295 2588.4882924187386
1327.4386982086617 3000.917108566516
1328.2631067017755 2736.5161583380104
1329.0873134045069 2700.435547347982
1329.911318372764 2677.445343614595
1330.735121662441 2713.1267126539633
1331.558723329399 2632.5037030797603
1332.3821234294774 2620.328649869186
1333.2053220185007 2697.2801783290893
1334.0283191522612 2602.451965564648
1334.851114886529 2810.8610268686407
1335.6737092770582 2477.7276248773223
1336.4961023795695 2637.584032665414
1337.3182942497697 2533.9140532880483
1338.1402849433325 2655.05718912524
1338.962074515921 2455.1026739968847
1339.7836630231632 2464.6636693904647
1340.6050505206676 2834.2830056551416
1341.426237064028 2706.9212569864285
1342.2472227088037 2516.351369100135
1343.0680075105338 2492.4644094335213
1343.888591524741 2536.826243676146
1344.7089748069138 2703.9599165328964
1345.5291574125276 2518.4769413299873
1346.3491393970307 2335.812066507594
1347.168920815846 2627.70871873298
1347.9885017243778 2672.296189430903
1348.8078821780036 2499.1458115312394
1349.6270622320844 2476.53862150635
1350.4460419419447 2526.218230574855
1351.2648213629054 2625.9490669454467
1352.0834005502438 2407.85299779053
1352.90177955923 2403.334231658057
1353.7199584451064 2515.7775860784154
1354.5379372630887 2481.6504420605424
1355.355716068374 2461.661283952037
1356.1732949161305 2340.7347280807126
1356.9906738615155 2508.770013062941
1357.8078529596478 2466.4673710382804
1358.6248322656375 2612.0014827656328
1359.441611834567 2390.262249196184
1360.2581917214866 2531.9193349578213
1361.0745719814367 2516.013565582203
1361.890752669433 2382.0839075376907
1362.7067338404577 2379.6638434991632
1363.5225155494845 2598.3082894865047
1364.3380978514506 2633.456138200484
1365.1534808012839 2358.7637193012806
1365.9686644538815 2185.122098668493
1366.783648864117 2624.9461842648134
1367.5984340868417 2553.933755714262
1368.413020176893 2511.903322794403
1369.2274071890715 2377.3472993367623
1370.0415951781652 2654.7305848220644
1370.8555841989346 2472.562011885465
1371.6693743061223 2245.377784358142
1372.48296555444 2245.0990512289422
1373.2963579985844 2391.747062187106
1374.1095516932255 2422.916327040366
1374.9225466930166 2203.5532267863814
1375.7353430525782 2459.7677068596363
1376.5479408265164 2343.2294537436724
1377.36034006941 2518.1595289937704
1378.1725408358216 2491.866586118923
1378.9845431802805 2233.505509707191
1379.796347157304 2669.7848360278704
1380.6079528213813 2535.9461646588557
1381.4193602269788 2263.215603953714
1382.230569428546 2355.1309545914073
1383.0415804805016 2516.868092380476
1383.852393437246 2336.9865622356706
1384.6630083531563 2465.072117205225
1385.4734252825892 2283.320736101949
1386.2836442798798 2299.6779600244804
1387.0936653993322 2395.0712081143342
1387.9034886952395 2283.3557720852837
1388.713114221864 2421.8144006743964
1389.5225420334482 2479.0353065462923
1390.331772184214 2277.5926637719817
1391.1408047283585 2171.8954427658578
1391.9496397200564 2271.0319501763192
1392.758277213461 2355.6538654009064
1393.5667172627054 2529.3818834491663
1394.3749599218918 2400.768781997441
1395.1830052451114 2229.870812338154
1395.9908532864265 2333.3686750628513
1396.7985040998774 2427.725406423551
1397.6059577394808 2261.461718853006
1398.4132142592352 2223.320806222949
1399.2202737131156 2273.4236916996547
1400.027136155073 2499.105178703537
1400.8338016390353 2214.8404993756676
1401.6402702189134 2309.366133633571
1402.446541948586 2529.015318385778
1403.2526168819204 2246.5742619442185
1404.058495072757 2217.075310337055
1404.8641765749107 2276.3246079444184
1405.6696614421799 2323.795752968734
1406.4749497283356 2641.1227371194045
1407.280041487129 2229.1459280399868
1408.084936772295 2155.926015936887
1408.8896356375335 2440.489517694524
1409.6941381365323 2374.8871588142224
1410.498444322955 2175.5681348716944
1411.3025542504402 2253.7740174046803
1412.106467972606 2261.9632489414225
1412.9101855430508 2336.118530495087
1413.7137070153458 2106.500847125354
1414.5170324430437 2224.7105785178987
1415.320161879672 2426.288105037926
1416.1230953787435 2557.072376920242
1416.925832993742 2206.2892386354188
1417.7283747781275 2168.4725235121587
1418.5307207853439 2327.859792067914
1419.3328710688093 2298.843290905768
1420.134825681922 2097.060293841733
1420.9365846780584 2177.0904712399015
1421.7381481105713 2417.701880907646
1422.539516032788 2342.4232617257753
1423.3406884980232 2144.808623395729
1424.1416655595604 2147.1762610094843
1424.942447270665 2235.9292338909354
1425.7430336845828 2364.465195693194
1426.5434248545298 2122.4947732436453
1427.3436208337116 2251.094395746757
1428.143621675301 2283.1268562509536
1428.9434274324558 2484.9210982526765
1429.7430381583108 2144.928758404537
1430.5424539059713 2196.587452237035
1431.3416747285337 2572.6016490296315
1432.1407006790632 2332.371656998552
1432.9395318106053 2305.607070121475
1433.7381681761835 2211.679355345694
1434.5366098288014 2343.7824256855856
1435.3348568214424 2352.9364897445757
1436.1329092070573 2174.3083895042223
1436.9307670385879 2315.0647279638642
1437.7284303689503 2427.74811994004
1438.5258992510335 2455.0471586454137
1439.3231737377118 2168.0094747781063
1440.1202538818306 2223.674023132896
1440.9171397362225 2318.80060429665
1441.7138313536925 2306.0125267663952
1442.5103287870243 2188.9115052465095
1443.3066320889775 2141.751792524193
1444.1027413122956 2382.442630122747
1444.8986565096966 2220.306012713149
1445.694377733882 2199.7391483037436
1446.4899050375207 2028.2627545115793
1447.2852384732687 2189.6968316533375
1448.0803780937622 2333.512471050216
1448.8753239516063 2099.8474880121635
1449.6700760993954 2014.1182477305806
1450.464634589689 2130.8305427506357
1451.2589994750397 2501.743837791948
1452.0531708079689 2070.0346399067744
1452.8471486409799 2027.117391201925
1453.6409330265524 2408.491639408663
1454.4345240171442 2080.8529721165537
1455.2279216651987 2075.3791299702752
1456.0211260231263 2068.751241555853
1456.8141371433194 2505.095266871517
1457.6069550781594 2260.08775473287
1458.3995798799897 1949.800328841971
1459.1920116011424 2028.4606813246623
1459.98425029393 1979.4696713910805
1460.7762960106338 2023.9542933791163
1461.5681488035225 2120.2351762319945
1462.3598087248392 2103.10657007742
1463.1512758268036 2244.918763195246
1463.942550161617 2058.1773294807626
1464.7336317814625 2042.6385062067286
1465.524520738496 2098.8628748939364
1466.3152170848552 2038.3663765548154
1467.1057208726506 2170.627163356079
1467.8960321539817 2031.694629259282
1468.6861509809169 1939.9091369646637
1469.4760774055085 2022.9742056325235
1470.265811479785 2110.1193972221986
1471.055353255755 1980.4196834416575
1471.844702785409 1964.8752442301816
1472.6338601207044 1896.5263536411148
1473.4228253135934 2130.385962330093
1474.2115984159936 1835.006211083614
1475.0001794798063 1784.4008508336142
1475.7885685569145 2094.217971155363
1476.576765699172 1993.3493982037853
1477.3647709584238 1910.0353216441374
1478.1525843864802 2231.905494310621
1478.9402060351367 2071.29871809412
1479.7276359561693 2091.4672544050272
1480.514874201328 1914.3999243595565
1481.3019208223468 1840.9827138131063
1482.0887758709323 1775.714949819908
1482.8754393987747 1791.0510398908307
1483.6619114575406 1806.422891737638
1484.4481920988783 1903.2126957926696
1485.2342813744108 2000.7549811548665
1486.0201793357446 2147.0436443752933
1486.8058860344572 1886.3521974997034
1487.591401522117 1900.0057379460145
1488.3767258502594 1879.8860221604082
1489.1618590704056 1993.3907797766726
1489.9468012340494 1694.6091516891095
1490.7315523926754 2076.3546295890947
1491.5161125977356 2025.3454800520922
1492.3004819006637 1959.341924316113
1493.084660352877 1778.8112267694564
1493.8686480057622 1963.502027923234
1494.6524449106964 2123.3314274823706
1495.4360511190262 2138.882289593447
1496.219466682087 1968.7120353303103
1497.0026916511779 1949.5278695379693
1497.7857260775945 1957.824864066166
1498.5685700125996 2130.6494725925627
1499.3512235074395 1778.6988047997115
1500.133686613337 1814.4790386250588
1500.9159593814966 1936.6391089387882
1501.698041863101 1848.211151384931
1502.4799341093094 1759.7533040429148
1503.2616361712662 1715.4000455857652
1504.043148100087 1981.8228900571164
1504.8244699468742 2041.8720092175838
1505.6056017626997 1770.4006397390226
1506.3865435986281 1763.093031071594
1507.1672955056893 1994.1540166810623
1507.9478575348967 1804.7956077220163
1508.7282297372512 2027.3564364263507
1509.5084121637192 1930.7730785307067
1510.2884048652577 1899.9154684215428
1511.0682078927948 1806.3711485781982
1511.8478212972423 1864.1679768144872
1512.6272451294917 1811.329521569977
1513.4064794404076 1891.8784430925248
1514.1855242808433 2001.519378276931
1514.9643797016215 1886.7995387186515
1515.743045753552 2006.128127223302
1516.5215224874191 1978.9522165373285
1517.2998099539836 1616.4298197264466
1518.077908203999 1933.9874625413024
1518.8558172881785 1890.66181473033
1519.633537257234 1953.5258833923065
1520.4110681618404 2037.949435403075
1521.1884100526604 1941.8028126457848
1521.9655629803365 1877.3270564764287
1522.7425269954856 2053.1551357975964
1523.5193021487103 2211.4811121190382
1524.2958884905856 1898.260626647114
1525.0722860716687 1904.5757206113417
1525.848494942502 1843.989929955971
1526.624515153595 1945.993118263829
1527.4003467554485 1869.9361690053825
1528.175989798534 2083.357356728065
1528.9514443333064 2022.6413653315026
1529.726710410203 2135.4421156370904
1530.5017880796331 1799.855805712309
1531.276677391992 1909.5208997051311
1532.0513783976457 2094.5491392631216
1532.825891146953 1897.0529224540762
1533.6002156902414 2030.3243813599488
1534.3743520778207 1910.9813665346671
1535.1483003599806 1938.6705338212792
1535.9220605869923 1945.4069695606643
1536.6956328091019 1898.9947706069174
1537.4690170765407 1944.9421730207355
1538.242213439511 1993.5537399799239
1539.015221948208 1920.712387810865
1539.78804265279 1918.5965665335345
1540.560675603405 1807.7036252017806
1541.3331208501804 2043.0468324482413
1542.1053784432224 2086.2852017298283
1542.8774484326168 1916.4249366899076
1543.649330868422 1843.502490565645
1544.4210258006842 1845.9362545060856
1545.1925332794308 1878.380023942503
1545.9638533546604 1907.228127437746
1546.7349860763552 1801.2314908711528
1547.5059314944829 2115.0236881626315
1548.27668965898 1899.6867736334764
1549.0472606197673 1895.8764473917242
1549.817644426752 1829.9494566615333
1550.5878411298072 1959.8333403588717
1551.3578507787988 1934.0076749512639
1552.1276734235635 1760.2399564854848
1552.8973091139233 1926.2521346446429
1553.6667578996767 1986.036067650588
1554.436019830604 1782.1675839651307
1555.20509495646 1807.777021471705
1555.9739833269869 1813.123279249226
1556.7426849919011 1731.6970282839316
1557.511200000903 2062.776156243052
1558.2795284036674 1924.1323251644037
1559.0476702498509 1737.6931289592565
1559.8156255890954 1934.1149132536054
1560.5833944710157 2141.0056457663372
1561.3509769452048 1766.5405366412876
1562.1183730612447 1880.4691837504229
1562.8855828686865 1850.339235969236
1563.6526064170703 2076.938842086174
1564.4194437559127 2054.2259373068077
1565.1860949347047 1830.5069915501845
1565.9525600029283 2093.1180501962663
1566.7188390100328 2226.411533257643
1567.4849320054564 1852.2254516282119
1568.250839038612 1873.8298477974718
1569.0165601588997 1849.8195078052036
1569.7820954156887 2003.4413152905722
1570.5474448583373 1871.9976170795367
1571.31260853618 1845.0681481034487
1572.0775864985299 1730.598487753688
1572.8423787946813 1999.0044079581403
1573.6069854739108 1845.944362725475
1574.371406585471 1982.2804783657043
1575.1356421785986 1950.6103690940795
1575.899692302506 1932.011940772113
1576.6635570063845 1933.6332510004381
1577.4272363394157 1808.490025309175
1578.190730350747 1806.3480424300571
1578.9540390895163 1991.247596811851
1579.7171626048384 1704.501231721188
1580.480100945806 1758.027733981006
1581.2428541614918 1871.4404083134636
1582.0054223009538 1967.221822298067
1582.767805413223 1914.7036151607185
1583.5300035473156 1976.2387770208256
1584.292016752228 2106.3482193901937
1585.0538450769309 2039.577027960847
1585.8154885703807 1680.0611327936572
1586.5769472815136 1720.3459947766805
1587.3382212592405 1971.100573052498
1588.099310552463 2059.560089134535
1588.8602152100484 2049.073744129813
1589.6209352808564 2053.034857567708
1590.3814708137234 1861.1987155912816
1591.14182185746 1969.604627433282
1591.9019884608679 1909.0391434834626
1592.6619706727215 1689.0447757749953
1593.4217685417734 1960.8916094563242
1594.1813821167616 2095.278140523243
1594.9408114464022 1708.6986584173872
1595.7000565793933 1891.251975756355
1596.459117564409 1982.8919677936246
1597.2179944501113 1868.479301853246
1597.9766872851324 1850.5273066928912
1598.735196118092 1988.1407182602593
1599.4935209975883 1887.653354890865
1600.2516619721973 2040.9623633495928
1601.0096190904787 1797.2711871426611
1601.7673924009723 1871.2218950181068
1602.524981952196 1767.2019061119834
1603.2823877926476 1825.8894124199608
1604.0396099708087 1746.7963941089365
1604.7966485351371 1683.4709960740347
1605.5535035340745 1743.2833169283226
1606.3101750160404 2005.2004968614206
1607.0666630294363 1676.7512049546726
1607.822967622642 1677.0808517735197
1608.5790888440224 1868.4557625195011
1609.3350267419137 2011.8219207148516
1610.0907813646445 1782.6761904429695
1610.8463527605145 1689.718324099001
1611.601740977805 1939.3076746355935
1612.356946064785 1830.1259745052607
1613.1119680696902 1599.6403634674984
1613.8668070407512 1700.6610529140592
1614.6214630261748 1746.1501087974752
1615.375936074137 2006.2196882677617
1616.1302262328118 1762.768758363513
1616.8843335503425 1838.4465966184016
1617.638258074854 1688.6284402749584
1618.391999854457 1882.3572880144845
1619.1455589372363 1963.4097637703264
1619.8989353712623 1887.451617204574
1620.65212920458 1634.9207242262585
1621.4051404852235 1884.52528951598
1622.1579692611976 1730.4192092598473
1622.9106155804966 1663.8404695518336
1623.663079491087 1752.3130420078455
1624.4153610409248 1841.0611155247777
1625.1674602779385 1704.5753080593756
1625.9193772500403 1697.507519863954
1626.6711120051277 2037.3367864732663
1627.4226645910676 1847.3351876421207
1628.174035055721 1615.4984436917268
1628.9252234469168 1801.4935904100516
1629.676229812474 1706.7893304257354
1630.4270542001905 1704.2716257629938
1631.1776966578382 1701.8141827916618
1631.9281572331747 1742.940862345665
1632.678435973945 1941.2870777820813
1633.4285329278573 1917.5225649054075
1634.1784481426203 1525.4190255841881
1634.9281816659113 1645.1283829131448
1635.677733545388 1919.1118627575902
1636.4271038286934 1730.1494883511975
1637.176292563452 1889.9129197049983
1637.9252997972635 1770.474362212824
1638.674125577716 1834.9602212580442
1639.4227699523672 1668.2545485860142
1640.171232968767 1987.2695723934507
1640.9195146744423 1836.982371182389
1641.6676151168977 1917.1279663180871
1642.4155343436178 2043.3849972279918
1643.1632724020765 1720.3915770418596
1643.9108293397167 1771.9584236022158
1644.658205203974 1657.3437562430688
1645.4054000422566 1699.9417438854277
1646.1524139019566 1742.4400889728706
1646.8992468304423 1628.5956751278159
1647.6458988750728 1707.211396947916
1648.3923700831765 1737.5883414907996
1649.1386605020743 1680.3552128928932
1649.8847701790564 1961.1954254535055
1650.6306991614038 1880.1292209133353
1651.3764474963682 1913.3282231231544
1652.1220152311944 1493.017429185939
1652.867402413096 1772.3268123961225
1653.6126090892776 1783.6591386876455
1654.3576353069184 1944.3960123207366
1655.1024811131829 1841.2923596330002
1655.8471465552066 1595.381340909593
1656.5916316801213 1944.0119633743748
1657.3359365350298 1829.011419454672
1658.0800611670165 1689.4386491608761
1658.824005623148 1809.0365562794955
1659.5677699504722 1688.2015590222982
1660.3113541960192 1846.8138616720178
1661.054758406799 1732.0844285899886
1661.7979826297997 1609.9770889631577
1662.5410269119966 1626.146971462469
1663.283891300338 1628.8851718641804
1664.0265758417645 1631.5434264030587
1664.7690805831826 1742.1859227192967
1665.5114055714948 1864.2828245311637
1666.2535508535748 1717.519094902026
1666.9955164762814 1999.7026944716629
1667.7373024864555 1817.7520642307986
1668.478908930916 1810.6455702443104
1669.220335856462 1747.2939576210265
1669.9615833098778 1618.3903903018597
1670.7026513379296 1618.700667973227
1671.44353998736 1801.1781252077485
1672.1842493048916 1807.3865189556661
1672.9247793372379 1650.550883523881
1673.6651301310812 1820.2417412822342
1674.4053017330934 1586.3749891053171
1675.1452941899242 1447.199656046748
1675.885107548207 1671.8649317029642
1676.6247418545518 1570.489570937426
1677.3641971555535 1563.4640987863388
1678.1034734977893 1841.1332755849537
1678.8425709278108 1667.5265228842018
1679.5814894921605 1816.1577507258346
1680.320229237359 1626.912212046972
1681.0587902098978 1869.078583146424
1681.7971724562685 1609.6179213780867
1682.5353760229264 1542.169055918097
1683.2734009563173 1541.3173156201
1684.0112473028657 1540.4663461379282
1684.7489151089794 1784.7178679628523
1685.4864044210462 1733.1747029496062
1686.2237152854377 1798.3828518697762
1686.960847748498 1863.7822464999967
1687.6978018565642 1552.540750607853
1688.434577655944 1492.296894724754
1689.1711751929379 1468.989466100617
1689.9075945138156 1707.0105655054242
1690.6438356648396 1614.1194270314904
1691.3798986922448 1288.2877777080575
1692.1157836422499 1587.0951288983065
1692.851490561059 1600.722990576942
1693.587019494853 1628.823719636964
1694.3223704897991 1447.4901532651506
1695.0575435920364 1356.3455302027348
1695.792538847696 1439.5580368165984
1696.527356302886 1522.812608423346
1697.2619960036936 1357.612194973452
1697.9964579961907 1372.167779738999
1698.730742326432 1232.3883181575006
1699.4648490404488 1317.2285054267466
1700.1987781842563 1470.3061624597888
1700.9325298038548 1590.6093761289233
1701.6661039452174 1735.2835901815165
1702.3995006543082 1494.2287338767098
1703.1327199770658 1579.6669692086223
1703.865761959416 1384.612346474922
1704.598626647261 1365.8226397938483
1705.3313140864866 1347.0771339328269
1706.0638243229587 1399.0616632542112
1706.7961574025303 1554.3751535774686
1707.528313371029 1448.7349599145537
1708.260292274268 1339.9039020202665
1708.9920941580403 1480.6157689880204
1709.7237190681226 1441.7086678291848
1710.4551670502697 1483.314768060538
1711.18643815022 1628.9332040024033
1711.9175324136959 1328.3070978400153
1712.6484498863938 1448.0617973896424
1713.379190614005 1268.73005834234
1714.109754642188 1415.1207953235573
1714.8401420165883 1349.3751858153548
1715.570352782839 1374.3233795306583
1716.3003869865497 1399.3714313596242
1717.0302446733076 1333.6147341134783
1717.7599258886876 1410.8675458152343
1718.4894306782444 1635.9789975089113
1719.2187590875183 1600.050576128976
1719.9479111620203 1564.0378472965563
1720.6768869472544 1327.460396625149
1721.4056864887025 1616.1257474127622
1722.1343098318284 1720.9438865091602
1722.8627570220742 1402.9119377133043
1723.591028104871 1267.4889167334036
1724.3191231256242 1230.2224707792095
1725.0470421297232 1344.71335280147
1725.7747851625427 1485.6119836483867
1726.5023522694337 1512.8860105678968
1727.2297434957363 1407.497993461623
1727.9569588867635 1242.388123271397
1728.6839984878152 1508.44288231781
1729.4108623441734 1501.340034384892
1730.1375505011038 1494.3740329104357
1730.8640630038426 1383.7056380308386
1731.5903998976264 1322.9610229971518
1732.316561227657 1503.0062758703077
1733.0425470391274 1202.3217986745753
1733.7683573772065 1479.9704907426262
1734.4939922870508 1290.3052428661672
1735.2194518137949 1356.4796161969284
1735.9447360025606 1460.8062869378762
1736.669844898439 1363.2470748970345
1737.3947785465189 1254.7017800502076
1738.1195369918605 1188.6105192481589
1738.8441202795093 1387.5287078866227
1739.5685284544943 1442.0819814085096
1740.292761561821 1347.3705933280405
1741.0168196464838 1381.9033392220504
1741.7407027534518 1408.7862495094078
1742.464410927687 1441.8435483270182
1743.187944214118 1237.1286654734186
1743.9113026576688 1360.8267975008544
1744.634486303241 1371.0719269197516
1745.3574951957125 1346.0547790541723
1746.0803293799509 1535.8281295511752
1746.8029889008048 1476.4159326398699
1747.5254738031017 1518.7405523233265
1748.2477841316504 1276.324604260538
1748.969919931249 1373.426534513558
1749.6918812466665 1400.3288582254195
1750.4136681226646 1469.8767496884534
1751.1352806039777 1402.39701182563
1751.856718735331 1126.1053361252384
1752.5779825614281 1127.3337744821506
1753.2990721269507 1429.539472777962
1754.0199874765676 1445.9592197552736
1754.7407286549314 1187.2732250240747
1755.4612957066693 1369.5510586589608
1756.1816886763954 1242.0352112076157
1756.9019076087097 1516.6905496077775
1757.6219525481865 1346.5202502589136
1758.3418235393856 1316.8471636861693
1759.061520626854 1432.6868273446312
1759.7810438551096 1574.4049825439565
1760.5003932686614 1535.527321497613
1761.2195689119999 1496.6192065359605
1761.938570829594 1389.0737759158249
1762.657399065898 1469.9113281462028
1763.376053665348 1144.8214184613007
1764.0945346723602 1088.2360632172295
1764.812842131334 1164.9945756508002
1765.5309760866512 1241.956844611208
1766.2489365826787 1209.1913332930935
1766.9667236637597 1343.6528429312318
1767.684337374223 1067.0517578910014
1768.401777758383 1291.0586681620312
1769.1190448605284 1315.3962514776972
1769.836138724937 1198.0327942602325
1770.5530593958665 1390.5159648224894
1771.2698069175603 1576.2913270665595
1771.9863813342326 1403.1892979263241
1772.702782690094 1266.241838112734
1773.4190110293293 1463.4527610495866
1774.1350663961111 1371.5246997469058
1774.8509488345844 1248.9940089494332
1775.5666583888924 1323.4005822866955
1776.2821951031437 1439.398688174099
1776.9975590214362 1252.476942362728
1777.7127501878585 1462.9914260235887
1778.4277686464684 1353.5612475742894
1779.1426144413108 1456.4096418109389
1779.8572876164162 1425.5745650808167
1780.571788215797 1375.1053070271246
1781.2861162834415 1324.6057375056241
1782.0002718633277 1173.8959960277612
1782.7142549994132 1367.4985994707627
1783.4280657356376 1284.9880482212063
1784.141704115922 1247.4191620506458
1784.855170184177 1349.3667171718419
1785.5684639842839 1417.4529067334004
1786.2815855601148 1445.15450900903
1786.9945349555237 1472.8854404816504
1787.707312214343 1192.2078017137078
1788.4199173803918 1164.4141226756215
1789.132350497468 1136.6737955592641
1789.8446116093583 1326.9835567767311
1790.556700759822 1185.3516858488688
1791.2686179926077 1272.1066319795689
1791.9803633514493 1226.29674820897
1792.6919368800554 1047.4387898442865
1793.4033386221236 1308.2130922690308
1794.1145686213295 1456.7354724528263
1794.8256269213307 1562.186290514304
1795.536513565774 1393.468297803723
1796.247228598284 1299.000967968584
1796.9577720624693 1204.3243575578872
1797.6681440019165 1309.899788224286
1798.3783444602013 1332.5870938532432
1799.0883734808776 1476.2702386237856
1799.7982311074884 1425.6923020277136
1800.5079173835475 1352.674853228103
1801.2174323525633 1460.1851639405395
1801.9267760580187 1332.4061501596166
1802.635948543386 1398.5907212897637
1803.3449498521113 1158.0213862913618
1804.0537800276325 1339.9506967010404
1804.7624391133668 1338.293238603904
1805.47092715271 1056.621959261726
1806.1792441890484 1171.7153043575584
1806.8873902657433 1428.851611639936
1807.5953654261448 1303.6727456147237
1808.3031697135812 1304.6104796834552
1809.0108031713662 1280.6048272172088
1809.71826584279 1207.4524947466898
1810.425557771141 1326.4602196662847
1811.1326789996747 1294.7760042465613
1811.839629571632 1262.9842601098103
1812.5464095302468 1208.577317937728
1813.2530189187182 1232.4843959975474
1813.959457780249 1334.829261388951
1814.6657261580076 1438.9133351290657
1815.371824095153 1356.8229068531593
1816.0777516348262 1133.046993182509
1816.78350882015 1191.6847686079402
1817.4890956942272 972.2960111212612
1818.1945123001533 1153.5955513932417
1818.8997586809928 1268.9618154341401
1819.6048348798067 1196.7801860355828
1820.3097409396287 1234.3158279802483
1821.0144769034796 1487.403002197562
1821.7190428143622 1309.3466734696262
1822.423438715261 1471.0425829929563
1823.1276646491478 1183.5116094035445
1823.8317206589727 1271.2150269436179
1824.5356067876692 1253.0527651813165
1825.2393230781581 1282.7532498491469
1825.942869573335 1052.7119448922836
1826.646246316086 1015.1044315874494
1827.3494533492758 1142.7332345724062
1828.052490715756 1270.441087470307
1828.7553584583547 1272.4599771657768
1829.458056619891 1320.8054588975242
1830.1605852431585 1184.0141244338374
1830.8629443709433 1147.3998810275007
1831.5651340460063 1136.0894882997286
1832.2671543110919 1071.7252145839389
1832.9690052089318 1317.7391697866592
1833.6706867822395 1325.7240810082833
1834.3721990737104 1333.8460574672242
1835.0735421260233 1321.446118021419
1835.774715981841 1179.7967966488827
1836.4757206838058 1206.6739100453563
1837.1765562745459 1233.947749412714
1837.8772227966747 1154.5803579618218
1838.5777202927839 1191.073030268723
1839.2780488054523 1117.8801682799497
1839.9782083772352 1124.949033259224
1840.6781990506806 1191.718425884348
1841.378020868313 1258.6827979688137
1842.0776738726418 1178.673774513267
1842.777158106157 1151.464603084975
1843.4764736113375 1032.8667373988283
1844.1756204306403 1397.367936069687
1844.8745986065078 1241.2794366352032
1845.5734081813607 1004.9124304078498
1846.2720491976124 1150.04958693636
1846.970521697649 1118.231441154897
1847.6688257238511 1320.5574450804854
1848.3669613185684 1231.3119120610074
1849.0649285241452 1272.1004376981546
1849.7627273829057 1312.890476162327
1850.460357937156 1210.2877772647482
1851.1578202291857 1229.027663722767
1851.8551143012664 1247.993798132524
1852.5522401956569 1170.356354251934
1853.2491979545957 1171.7515821514367
1853.9459876203055 1173.3719196776633
1854.6426092349902 1017.9375708572616
1855.3390628408451 1070.2599174828347
1856.0353484800362 1457.4958624355352
1856.7314661947203 1318.713567811267
1857.4274160270397 1071.7541138046472
1858.123198019115 1236.9041245861695
1858.8188122130487 1068.260938978591
1859.5142586509319 1147.0503244890676
1860.209537374838 1204.285029716293
1860.9046484268183 1195.6684575957393
1861.599591848917 1333.73314644615
1862.294367683151 1230.4767089133113
1862.988975971528 1160.0822500792349
1863.6834167560355 1194.8427602317227
1864.3776900786452 1348.04752800992
1865.0717959813119 1140.77594893382
1865.7657345059724 1137.2389522268077
1866.4595056945564 1279.4347841287397
1867.1531095889586 1327.5864251852875
1867.846546231076 1335.2251516346012
1868.5398156627743 1342.917497261537
1869.2329179259123 1138.354135019245
1869.9258530623283 1079.3177316341585
1870.618621113843 1020.1582169830903
1871.3112221222636 1006.9441813359244
1872.0036561293764 1069.210575671767
1872.695923176956 1202.7436591582689
1873.3880233067594 1279.2910065150463
1874.0799565605212 1079.5512025097864
1874.7717229799673 1110.3342110087426
1875.4633226068036 1385.4033637547932
1876.1547554827175 1340.6409088273467
1876.8460216493859 1114.7808787033644
1877.5371211484617 1115.689504512688
1878.2280540215852 1271.3810681524396
1878.9188203103804 1221.4892310192465
1879.6094200564548 1171.506066062514
1880.299853301396 1176.8409558056258
1880.9901200867826 1407.5341560357183
1881.6802204541673 1250.5345725714212
1882.3701544450942 1278.9952056293637
1883.059922101087 991.8064593553603
1883.7495234636517 1014.7467966354054
1884.4389585742792 1037.7019316978517
1885.1282274744517 1018.7953516048092
1885.8173302056166 1139.844352667883
1886.506266809225 1261.0566413385045
1887.195037326701 897.6363974099693
1887.8836417994517 1130.5627390656728
1888.5720802688702 1411.2337874482969
1889.260352776333 1374.7059248041144
1889.9484593632042 1362.3327757075097
1890.63640007082 1033.6216306922317
1891.3241749405151 1098.1401550988496
1892.0117840135954 1332.4341177927772
1892.6992273313572 1126.017798274813
1893.3865049350788 1086.4889661632615
1894.0736168660223 1506.7010734728842
1894.7605631654333 1287.2296074907622
1895.4473438745408 1365.6678942916692
1896.133959034556 1444.1444521026656
1896.820408686679 1251.0372481552395
1897.506692872088 1448.614547042664
1898.192811631945 1191.064437898818
1898.8787650073991 1196.2815927873576
1899.5645530395832 1342.6496213101461
1900.2501757696118 1337.216984530924
1900.9356332385796 1408.4110745013306
1901.620925487574 1479.8270554520946
1902.3060525576602 1211.6739092764637
1902.9910144898859 1236.4672856108668
1903.6758113252872 1125.914732970673
1904.3604431048789 1244.5374625606585
1905.0449098696663 1298.7560265968875
1905.7292116606295 1062.1182211110786
1906.4133485187394 1276.9791338406958
1907.0973204849488 922.7533649849489
1907.7811276001976 952.1101432828009
1908.4647699053967 1178.4593936283975
1909.1482474414588 1129.6556594230865
1909.8315602492694 1080.7020454231802
1910.5147083696957 1306.7507939874988
1911.1976918436012 1054.0696094381333
1911.880510711815 1114.7142809757638
1912.5631650151681 1104.9568279128564
1913.2456547944657 1095.1547053423924
1913.927980090495 1111.6062380011156
1914.6101409440362 1075.4790543258825
1915.2921373958416 1248.0270691341084
1915.9739694866603 1159.2971845070872
1916.655637257214 1311.8522775397157
1917.3371407482136 1239.7256574668513
1918.0184800003572 1447.2212506956653
1918.6996550543154 1358.3566834900996
1919.3806659507554 1206.2313539717713
1920.0615127303208 1347.1502379397537
1920.7421954336423 1430.5911816704427
1921.4227141013343 1359.818423827796
1922.103068773993 1256.4066481355871
1922.783259492202 1294.2948585676572
1923.4632862965227 1277.356050274265
1924.1431492275078 1146.8349334530183
1924.8228483256917 1064.666129478675
1925.5023836315922 1154.0422949393685
1926.1817551857057 1244.998729727617
1926.8609630285227 1336.148904952818
1927.5400072005123 1264.3629234204927
1928.218887742125 1210.2971625405066
1928.8976046938005 1252.215059130332
1929.5761580959588 1294.3015090455406
1930.2545479890086 1228.1472944333684
1930.9327744133352 994.6258861105241
1931.6108374093164 1185.8600600933212
1932.2887370173066 1386.9679492418093
1932.9664732776473 1290.4993983999398
1933.6440462306673 1193.762579167829
1934.3214559166754 1113.7776099305538
1934.9987023759659 1360.0177225866005
1935.675785648813 1240.1964963268967
1936.3527057754836 1420.213627712456
1937.029462796223 905.8451734664552
1937.70605675126 1056.9481331965887
1938.3824876808085 1070.4806948696537
1939.058755625072 1125.9676784143219
1939.7348606242267 1096.7476741847754
1940.4108027184448 1136.1913180933195
1941.0865819478713 1212.036457064183
1941.7621983526478 1120.6303266514565
1942.4376519728921 1166.4433628677907
1943.1129428487038 1212.3399501823528
1943.7880710201734 1314.4653977183532
1944.4630365273733 1329.3305678921836
1945.1378394103576 1026.7442330038082
1945.8124797091714 995.5231098603772
1946.4869574638324 964.2051849093208
1947.161272714353 1132.0206136676804
1947.8354255007234 1182.3127584623335
1948.5094158629272 998.777856676635
1949.1832438409183 1160.2612750712904
1949.8569094746435 1335.5868517939389
1950.530412804037 1320.305872334268
1951.2037538690092 1320.5133437782056
1951.8769327094578 1124.594107981662
1952.5499493652678 1011.8692467111225
1953.222803876306 1269.4200498625917
1953.895496282421 1293.7509238400771
1954.5680266234522 1213.8425113737678
1955.2403949392155 1216.6076773891587
1955.9126012695142 972.6190139700986
1956.5846456541403 1086.4283998338892
1957.2565281328643 1160.3638508242607
1957.9282487454457 1281.3342393610574
1958.5998075316202 1224.568450033745
1959.27120453112 1062.0864726159978
1959.9424397836501 1191.2224735012446
1960.613513328908 1203.9480221830033
1961.2844252065697 1110.2568690514263
1961.9551754563017 1016.3861440108224
1962.6257641177453 1112.4210183988685
1963.29619123054 912.6395414638355
1963.966456834296 1018.4703072853488
1964.6365609686181 1045.6512921742376
1965.306503673086 1007.8295775878711
1965.976284987275 969.9399648541452
1966.645904950734 1176.4706658265898
1967.315363603002 1150.3958494446329
1967.9846609836077 1124.2439216859652
1968.6537971320486 1103.9385750633287
1969.3227720878222 1226.7467207287762
1969.9915858904042 1186.6362019593066
1970.660238579252 1236.4364356893961
1971.3287301938108 1154.884920725341
1971.997060773514 1089.1946566820911
1972.665230357772 981.013431203591
1973.3332389859843 1011.4371565205176
1974.0010866975335 972.6227543261793
1974.6687735317864 1226.4138328095771
1975.3362995280932 1163.9407355749092
1976.003664725793 1270.2270116349969
1976.6708691642052 974.8643158512934
1977.3379128826364 1128.7632813137118
1978.004795920373 1391.3138194234466
1978.6715183166925 1113.1650053657315
1979.3380801108524 1276.7757593707772
1980.0044813420973 1032.6787564606664
1980.6707220496555 1085.7535947397967
1981.3368022727373 1138.985129486936
1982.0027220505417 1242.873360338239
1982.66848142225 931.8322317534597
1983.3340804270283 917.7045248855272
1983.999519104027 1059.9673756569505
1984.6647974923835 1142.3221976771526
1985.329915631215 1238.8935139062776
1985.99487355963 1150.6143983466616
1986.6596713167146 1125.5191571391733
1987.3243089415428 1100.3299248413045
1987.9887864731754 1256.5337728750305
1988.6531039506553 1008.3756146832966
1989.3172614130071 1018.3262538153809
1989.9812588992481 1028.310100794146
1990.645096448372 878.4890397164506
1991.3087740993633 1047.371364717378
1991.9722918911848 1008.8096222684974
1992.635649862792 1188.293354052853
1993.2988480531185 1257.4601809054777
1993.9618865010852 1180.4398216039785
1994.6247652455968 1103.3159727236555
1995.287484325545 907.9308327953391
1995.9500437798033 925.2791864739116
1996.6124436472292 999.8769820194872
1997.2746839666706 987.2800979865854
1997.936764776954 974.6618014302545
1998.598686116895 1039.361115922717
1999.2604480252903 1348.339917925207
1999.9220505409212 1355.0153540362633
2000.5834937025593 1031.6002038523748
2001.2447775489582 1165.4176771976263
2001.9059021188514 1081.0134039166462
2002.5668674509616 1066.4727662458895
2003.2276735839987 1068.3275816054056
2003.8883205566508 1059.7930628718636
2004.5488084075987 1051.2120216678618
2005.2091371755014 1158.4317765543851
2005.8693068990033 1250.8499941409455
2006.5293176167397 924.1046303393838
2007.1891693673224 1006.8159255707233
2007.848862189354 932.0725990045245
2008.5083961214223 1035.8994899565685
2009.1677712020955 995.4972721434111
2009.8269874699254 959.2298285639911
2010.4860449634598 966.1904306781223
2011.1449437212177 973.226235533476
2011.8036837817108 1334.1578558605834
2012.4622651834325 1137.202136346847
2013.1206879648653 1195.5101127481598
2013.7789521644736 1035.1110744731839
2014.4370578207036 1241.2191461473747
2015.0950049719922 1051.4313331182339
2015.7527936567585 1327.2294098593106
2016.4104239134067 976.3807626074635
2017.067895780323 940.7552358667888
2017.725209295886 905.0008721519614
2018.3823644984514 1341.143929596668
2019.0393614263648 1182.5853257160004
2019.6962001179545 1134.194758261828
2020.3528806115355 1466.9527474435392
2021.0094029454067 1244.98381080416
2021.6657671578487 1170.8739026092815
2022.321973287133 1096.5969852716958
2022.9780213715148 999.6643077417575
2023.6339114492293 1006.5458073724801
2024.2896435585026 1013.5086769944228
2024.9452177375442 1059.285629929451
2025.600634024544 1123.0462801115063
2026.2558924576842 1187.0480386617814
2026.9109930751292 1218.2960783354592
2027.565935915025 1381.8330024256234
2028.2207210155066 1545.9153262563389
2028.8753484146964 1424.5933842861627
2029.529818150695 1330.5765580984773
2030.1841302615903 1236.1687287923207
2030.8382847854573 1104.7689689744598
2031.4922817603601 1115.0723590603145
2032.1461212243357 1111.032289985343
2032.7998032154192 979.6399389177068
2033.4533277716218 1024.5660352261282
2034.1066949309443 972.7786160813909
2034.7599047313688 893.3219624466843
2035.4129572108704 1030.4808538753398
2036.0658524074006 1167.8229515605929
2036.7185903589016 1266.8099284610205
2037.3711711032956 1306.4453985566026
2038.023594678496 1183.9534096056757
2038.675861122394 956.3610793871151
2039.3279704728757 956.2998889593844
2039.9799227678031 956.3265555873193
2040.6317180450278 1151.6087292274965
2041.2833563423865 1210.8337823983895
2041.9348376977014 1360.2630100853335
2042.5861621487784 1250.6197257669724
2043.2373297334088 1203.5976217095115
2043.8883404893695 1156.3645224111256
2044.5391944544208 1221.1679796198935
2045.1898916663158 1323.976798024814
2045.8404321627804 1143.786545712669
2046.4908159815368 963.2240365972755
2047.1410431602853 1024.315202941139
2047.7911137367173 1080.925750408929
2048.441027748504 1017.5479879821769
2049.090785233302 954.070930333548
2049.7403862287592 991.5380109325885
2050.389830772503 991.4287412192892
2051.0391189021466 991.3473362404841
2051.688250655294 1211.076296684781
2052.337226069527 1040.8372945747237
2052.986045182417 1281.285397901776
2053.634708031521 1255.2294047304636
2054.283214654375 1229.2164198731236
2054.931565088511 1074.5803436253248
2055.579759371436 982.9155177040014
2056.2277975406523 1174.7353739278526
2056.8756796336384 1064.7549809185618
2057.5234056878617 954.4901277250443
2058.1709757407752 1034.1949998025943
2058.8183898298194 1346.0118634975247
2059.465647992416 1327.0422855549252
2060.1127502659747 1210.5221027977736
2060.759696687888 886.5617604696063
2061.4064872955405 1056.6564861753245
2062.053122126292 906.0665699094849
2062.699601217497 1136.4023734821953
2063.345924606485 899.7063667042455
2063.992092330587 1157.5188862252949
2064.638104427102 1049.0142418354794
2065.283960933324 1080.6600921227869
2065.92966188653 1112.3470441536224
2066.5752073239855 1362.800146153333
2067.2205972829397 1270.1792192437172
2067.86583180062 1177.485660173362
2068.5109109142522 1110.8917508043035
2069.15583466104 1090.9184553118437
2069.8006030781708 943.3786726418803
2070.445216202821 1048.6347480420436
2071.089674072153 1315.8399630397275
2071.7339767233116 1449.862907378434
2072.3781241934303 1168.7265635698666
2073.0221165196253 1310.8334779852466
2073.6659537390024 1015.7194736327086
2074.3096358886505 1233.397426191763
2074.953163005637 1008.8881874067667
2075.596535127028 929.4306648939867
2076.2397522898664 1104.0391187900252
2076.882814531182 1089.8582659928493
2077.5257218879924 1111.1918582311587
2078.1684743973 975.4016959717723
2078.8110720960885 1280.7308906698408
2079.453515021336 1036.8830726048475
2080.095803209997 1231.0948623418703
2080.7379366990135 1136.332130182345
2081.37991552532 1201.3300391388425
2082.0217397258275 1028.1502883331589
2082.6634093374414 1214.636816032394
2083.3049243970418 1088.003900447264
2083.9462849415067 1278.8934530248769
2084.587491007689 1157.5077420931345
2085.2285426324324 1102.993268991904
2085.869439852564 1172.0901444710348
2086.510182704902 1028.5480445334047
2087.1507712262483 1098.8959768421366
2087.791205453381 1129.3767014836212
2088.4314854230743 1159.8833314141323
2089.0716111720867 1202.6079220882407
2089.7115827371617 770.4176081242281
2090.351400155023 868.1397765457666
2090.991063462385 966.0798286331759
2091.6305726959527 755.0700754372306
2092.2699278924047 888.1550057224462
2092.9091290884153 1021.5520249434625
2093.548176320641 867.284256257201
2094.187069625721 1220.2659967084749
2094.8258090402887 801.2804540021123
2095.464394600951 1197.1621602579205
2096.102826344313 1018.9522941816165
2096.741104306955 990.716476477766
2097.379228525453 962.4198872455597
2098.017199036358 829.2759301980832
2098.6550158762147 1349.9620661591014
2099.2926790815527 1326.660295413028
2099.9301886888825 1207.6101467841836
2100.5675447347076 1147.4099471980894
2101.2047472555114 1291.8531558498426
2101.841796287761 1057.4212009637627
2102.47869186792 1152.262376672174
2103.1154340324265 980.1327705102904
2103.752022817709 1147.631775643487
2104.388458260184 991.7985281079352
2105.024740396251 1209.737650401292
2105.660869262292 1046.4970580775653
2106.296844894685 1287.7115733329538
2106.93266732978 1148.1450418945897
2107.5683366039284 1039.3977638976967
2108.2038527534532 1191.665134897532
2108.8392158146726 1239.9404340449887
2109.4744258238843 1013.2378833727871
2110.1094828173755 1221.4387990365535
2110.744386831422 1436.2189516843714
2111.3791379022787 1397.7024456490728
2112.01373606619 1359.0977832201377
2112.648181359389 1175.875395050456
2113.28247381809 1159.246358127198
2113.916613478492 1132.831887097003
2114.550600376786 1035.8894083979735
2115.1844345491445 960.5321851145961
2115.818116031729 922.6622405290973
2116.451644860679 1029.586294700028
2117.085021072133 919.6708363050287
2117.718244702204 1081.615041898668
2118.3513157869984 951.8976107544124
2118.984234362604 913.5891533949649
2119.617000465092 962.0415759820355
2120.249614130529 1068.0934994801298
2120.8820753949585 1174.314645543091
2121.5143842944162 1015.8594842208328
2122.14654086492 990.989230700573
2122.7785451424734 879.5500089801268
2123.4103971630702 1315.9413545996074
2124.042096962681 1212.2509480647423
2124.6736445772767 1134.919806411414
2125.305040042802 1113.0038713568663
2125.936283395191 1182.5239638513572
2126.567374670365 1182.8358159385482
2127.198313904233 1042.9660481690742
2127.8291011326855 906.3706791210423
2128.4597363916037 769.381817656805
2129.0902197168507 1108.226308237579
2129.720551144279 926.1885609201933
2130.3507307097225 1498.3588475474216
2130.980758449008 1458.2049824664591
2131.6106343979427 1080.0777147727429
2132.2403585923203 1200.401825846469
2132.8699310679276 1328.2949983217093
2133.499351860526 1199.0871498699044
2134.1286210058715 1026.0353493532082
2134.7577385397053 1192.78714948143
2135.3867044977487 1359.7733315233459
2136.0155189157176 1358.116180292121
2136.644181829308 1559.393773690995
2137.2726932742025 1053.0620474548725
2137.901053286074 1403.799746579709
2138.5292619005777 1246.2113205013407
2139.1573191533535 1088.388814508346
2139.7852250800315 1333.3030113092843
2140.4129797162295 1236.3649542313283
2141.0405830975433 838.191569458914
2141.6680352595613 924.1015643476605
2142.2953362378576 1010.1866777755574
2142.9224860679915 1127.4006763319037
2143.549484785508 1013.4244688927971
2144.1763324259373 961.245283680833
2144.803029024799 1120.5330279260038
2145.429574617594 961.7479137921276
2146.0559692398165 1102.159106208731
2146.682212926942 1118.2245984758288
2147.308305714432 1193.9620273554633
2147.9342476377333 1315.5100861975516
2148.5600387322847 1535.15470463921
2149.185679033506 1196.1109769352558
2149.8111685768017 953.5450142445274
2150.4365073975678 909.6378619595474
2151.061695531187 1001.0374874771699
2151.686733013021 1101.6424430293232
2152.311619878423 1202.520457501812
2152.9363561627342 1157.6920787042275
2153.560941901278 951.2721257567152
2154.1853771293663 1135.554301135841
2154.809661882293 1201.9259511141267
2155.433796195348 1119.8802613884702
2156.0577801037944 1037.5944308265516
2156.681613642895 1223.193806486123
2157.3052968478896 1235.8773575053317
2157.928829754006 1248.554389685129
2158.552212396462 1227.1716506468888
2159.1754448104566 1124.7266505230803
2159.7985270311783 1022.2852145008701
2160.4214590938027 735.4381747818599
2161.0442410334927 674.0672462205329
2161.6668728853874 760.5270030002521
2162.289354684628 847.1727229527778
2162.911686466332 1064.0173106483956
2163.533868265602 1182.816096611237
2164.1559001175337 1185.1301509323948
2164.7777820572046 1187.3974664444952
2165.399514119681 1136.4022419916814
2166.021096340013 1024.2526388173662
2166.6425287532384 1282.512789196006
2167.263811394385 1308.333365212889
2167.8849442984574 1334.3077462067283
2168.505927500455 1041.0121794138818
2169.126761035366 1223.6637116887616
2169.7474449381552 957.2499403189928
2170.367979243778 823.7144338765459
2170.9883639871823 949.3477598621168
2171.608599203293 1075.3355319561692
2172.2286849270276 1429.003247938449
2172.8486211932886 1707.2501686506719
2173.4684080369625 1171.8669204846783
2174.0880454929265 891.0161666309856
2174.7075335960417 881.5579071974962
2175.3268723811543 835.7058656996875
2175.9460618831 789.7508291613885
2176.565102136701 1005.572824035422
2177.1839931767627 1028.7996339125134
2177.802735038078 1052.1026043900508
2178.421327755432 837.8411631128156
2179.0397713635866 924.2494893961282
2179.658065897298 914.7511078008359
2180.276211391305 1113.6482974239684
2180.8942078803357 961.1030964556414
2181.5120553991 1176.500083746678
2182.129753982299 1098.0269142595735
2182.7473036646206 1019.383560595718
2183.3647044807367 1181.8242717541534
2183.9819564653044 959.8674187673425
2184.599059652968 1014.9270713348739
2185.216014078367 1142.9715806021716
2185.832819776113 1234.1658406007393
2186.4494767808137 1325.5059540619045
2187.065985127063 1016.978974213864
2187.682344849436 1058.6174975597396
2188.298555982501 1150.4134151862459
2188.9146185608097 1080.7941320957939
2189.530532618901 1267.741322767091
2190.1462981912937 1185.8466970332106
2190.761915312507 1248.0651099030865
2191.377384017036 1138.8726342312452
2191.9927043393654 1055.4306558180272
2192.6078763139667 884.5590078610034
2193.2228999753006 1012.4482126219561
2193.837775357808 1140.6135839124354
2194.452502495922 866.7252381145124
2195.0670814240602 1051.162919822127
2195.6815121766285 950.755773138676
2196.2957947880186 831.6120323591618
2196.9099292926057 712.2306695284831
2197.523915724758 1201.2236632306144
2198.137754118825 888.5791528372372
2198.7514445091456 1367.8493607444786
2199.3649869300443 1457.042230524519
2199.9783814158327 1546.5046124941828
2200.5916280008096 1494.4477990861951
2201.2047267192593 1399.3612431993959
2201.8176776054515 1137.6456785499563
2202.430480693649 875.2794908435365
2203.0431360180955 1236.495896108147
2203.6556436130195 1314.6902819940597
2204.268003512645 772.8033632915522
2204.8802157511727 1023.7604531874074
2205.492280362796 997.2795369089238
2206.1041973816937 970.74571422134
2206.715966842032 1136.2155873839777
2207.3275887779655 1255.7716271786344
2207.93906322363 1220.8787016743604
2208.550390213153 1344.7821774461147
2209.1615697806465 1374.3235226658594
2209.7726019602105 1169.6111421769467
2210.3834867859277 964.3855352641783
2210.9942242918787 956.4508653330361
2211.6048145121167 914.5117975000309
2212.2152574806914 1627.1612431902377
2212.825553231638 922.352525252951
2213.435701798975 1717.776107399413
2214.045703216707 1214.9331088135136
2214.655557518832 899.9666404031343
2215.2652647393297 746.241208032495
2215.874824912169 988.2756206046648
2216.4842380713 1230.958452223525
2217.09350425067 946.5432037537348
2217.7026234842033 1332.327563751333
2218.311595805819 1232.745425676143
2218.9204212494133 1324.1909860661717
2219.52909984888 1465.793236263837
2220.137631638092 914.9729549453801
2220.7460166509154 1440.1783071106238
2221.354254921198 916.7677796871885
2221.9623464827764 1121.419373194758
2222.5702913694713 1082.2362961497856
2223.178089615096 1179.5794351480147
2223.7857412534486 1094.3267231180607
2224.39324631831 1069.4103931912266
2225.000604843457 1044.4220792690676
2225.607816862641 1186.7399277746072
2226.214882409611 1290.231238061461
2226.8218015180973 1292.6246104067277
2227.4285742218217 1135.8351379547626
2228.0352005544864 1192.9486796681697
2228.6416805497847 1128.4491852919427
2229.248014241399 1063.8528132220372
2229.8542016629945 907.8774204681791
2230.460242848223 1350.6863684627083
2231.0661378307304 1482.0601015704774
2231.671886644139 980.5926444597189
2232.277489322065 740.0365065229729
2232.8829458981127 714.3423510207106
2233.48825640587 1119.2103566212222
2234.0934208789095 1617.77372194867
2234.6984393507955 1438.2362390235687
2235.3033118550793 1222.0493381101137
2235.9080384252975 986.6322772262163
2236.5126190949723 942.1360042975466
2237.1170538976166 851.5766491780602
2237.721342866729 760.8854824023672
2238.32548603579 801.0199691116239
2238.9294834382763 1216.1394638408412
2239.533335107646 1252.2831722335213
2240.1370410773434 1143.2495795025902
2240.740601380803 975.320101693892
2241.3440160514474 1186.186825607151
2241.9472851226783 1175.3855330587087
2242.550408627896 1055.6885382710554
2243.1533866004793 1070.5738532863138
2243.756219073799 1085.5027403857612
2244.3589060812064 893.1762631088848
2244.961447656049 1023.9276461799831
2245.5638438316564 1063.2981996161448
2246.166094641343 993.2888246222467
2246.7682001184166 923.1702943601946
2247.3701602961664 986.3431966930572
2247.971975207871 1189.1240496320318
2248.5736448867974 1090.0214380655373
2249.175169366197 1241.19022271747
2249.7765486793123 1113.56503755039
2250.3777828593684 1105.5282001438832
2250.9788719395783 1291.1413014732393
2251.579815953146 1120.525265645717
2252.1806149332606 995.8924677184439
2252.781268913097 1141.340223100106
2253.381777925817 1062.8431897606356
2253.9821420045737 1284.7442237203165
2254.5823611825035 1345.3833125397473
2255.1824354927303 1094.7771731016924
2255.782364968365 896.2982186425488
2256.38214964251 697.572486272821
2256.9817895482483 953.1004769604712
2257.5812847186553 865.2686645312266
2258.180635186791 972.6444907953895
2258.779840985704 847.1551955831137
2259.37890214843 1043.5479172990513
2259.97781870799 1073.0967984879978
2260.5765906973957 1102.7073199817928
2261.175218149645 1164.0565235757194
2261.773701097718 1043.492701860925
2262.3720395745895 922.6925067112828
2262.970233613216 929.4995857494193
2263.568283246548 1084.663268356346
2264.1661885075137 971.8246298981052
2264.763949429038 951.2858634066026
2265.3615660440246 967.8774621603732
2265.959038385374 984.4965354708581
2266.5563664859637 1386.3590362760679
2267.153550378669 1336.4873528452385
2267.7505900963424 1286.6231633262153
2268.3474856718312 887.1559595017221
2268.9442371379664 1093.8760042194308
2269.5408445275643 1018.6833023089087
2270.1373078734377 1071.7181694999695
2270.7336272083758 1124.8687712386584
2271.32980256516 1021.9329364340052
2271.925833976562 1213.063762558878
2272.5217214753357 991.8020005469174
2273.117465094223 1286.1491738258585
2273.7130648659586 1081.3951265543737
2274.308520823257 1094.7631854457095
2274.903832998827 1180.554768621914
2275.4990014253563 1280.3805593987036
2276.094026135528 1273.8795851920813
2276.6889071620117 1282.7707252483972
2277.2836445374614 1291.6195454304586
2277.878238294519 1286.4856619300986
2278.472688465812 1009.5025411447612
2279.066995083962 1491.4482558808836
2279.6611581815705 1104.8155254356911
2280.255177791232 1336.1239613716953
2280.8490539455233 1068.465194173617
2281.442786677013 1323.5567736287583
2282.0363760182554 1329.4468008638974
2282.6298220017943 1372.0431568923127
2283.223124660155 1414.8124532871618
2283.816284025859 1091.7034064891955
2284.4093001314086 1296.1236526950988
2285.002173009292 1000.3727971865912
2285.5949026919952 1272.5461547232724
2286.1874892119777 1005.8438107416641
2286.7799326016993 886.8584050612626
2287.3722328936 767.5590440375298
2287.964390120109 821.802257823398
2288.556404313642 1345.3303327676183
2289.1482755066027 1409.5105546280097
2289.7400037313873 1044.7259266867184
2290.3315890203703 950.8376712784691
2290.9230314059205 1223.3075656268625
2291.5143309203904 1206.9268479180964
2292.1054875961236 1027.5862648219131
2292.6965014654506 1411.8512585642768
2293.287372560684 942.3704312541898
2293.878100914131 1006.0527387734535
2294.468686558086 1069.903438661787
2295.059129524827 1123.5739657301106
2295.649429846617 1317.4803846695027
2296.239587555716 1118.0355262217136
2296.8296026843636 959.6034929177467
2297.419475264791 1029.2063808344105
2298.0092053292137 1098.8750364503412
2298.598792909839 1214.9943512940765
2299.1882380388597 1036.5948133754289
2299.777540748455 1075.782393521507
2300.3667010707904 1114.9538867634033
2300.9557190380256 1462.140853312369
2301.544594682302 1610.6164600614798
2302.1333280357503 1464.5165919698907
2302.721919130485 1318.285361464546
2303.3103679986198 1549.0185952667612
2303.898674672242 1525.9735195833114
2304.486839183437 986.1474230720223
2305.0748615642697 996.7489459975397
2305.6627418468015 1265.638863903197
2306.2504800630704 1120.0480300816255
2306.8380762451143 1271.727728156912
2307.425530424949 426.42065284484954
2308.012842634582 947.2219244295893
2308.6000129060103 1589.2872476520592
2309.187041271214 1764.932860419569
2309.773927762164 1523.0055068716226
2310.3606724108213 1280.5497592723884
2310.9472752491274 887.5469268266849
2311.5337363090184 1401.220257410006
2312.120055622414 1064.6346478827274
2312.706233221221 935.0451580966103
2313.2922691373424 1209.8343097717639
2313.8781634026564 989.0292442712332
2314.463916049037 1206.2204100673475
2315.049527108342 1199.4453033892228
2315.6349966124235 1378.6760775827966
2316.2203245931123 1160.2255606380174
2316.8055110822315 1269.635563942435
2317.3905561115935 1076.114256341857
2317.9754597129977 976.4245590295789
2318.560221918229 940.2663413806104
2319.1448427590603 904.0465334464149
2319.729322267256 989.7596225949417
2320.313660474563 1304.212503556297
2320.8978574127195 1619.5363208136298
2321.481913113452 1478.4367043057237
2322.0658276084705 1311.149807190354
2322.6496009294806 1143.424640243306
2323.233233108165 1198.5925439490697
2323.8167241762058 1165.0934618354697
2324.4000741652617 1173.3973928967403
2324.983283106987 1381.5563611785446
2325.5663510330232 1506.0071409496295
2326.1492779749933 1389.7814298507928
2326.7320639645204 1273.140494061769
2327.3147090332004 1098.7716352110358
2327.897213212629 1081.84526069112
2328.4795765343843 1064.813120002799
2329.0617990300307 752.7791897374475
2329.643880731124 1338.4338932898902
2330.22582166921 982.2413248401283
2330.807621875816 835.6276387420701
2331.3892813824623 688.8516904912092
2331.9708002206517 855.753825896944
2332.5521784218818 1000.9523484388261
2333.133416017634 1146.4886110917066
2333.7145130393765 1342.5639452237108
2334.295469518571 1539.0862791004092
2334.876285486658 1438.4323915260793
2335.456960975076 1344.4082421326184
2336.037496015242 1250.1972093803993
2336.6178906385667 1176.3321205804705
2337.198144876451 1121.166011186292
2337.778258760278 1182.5210309311817
2338.3582323214214 1201.0821747875234
2338.938065591243 1219.6563031017677
2339.517758601087 1520.52166998787
2340.0973113822965 1324.0055568165594
2340.676723966193 1118.3995638644417
2341.255996384094 1195.5190570980028
2341.835128667295 1392.050318394562
2342.4141208470883 1355.400381858437
2342.992972954751 1219.9582866496928
2343.5716850215467 1040.885303103501
2344.1502570787306 554.2527646186736
2344.7286891575386 1013.3518059994224
2345.3069812892045 1067.2585942243127
2345.885133504944 1121.1762395007877
2346.4631458359618 1165.5175535000458
2347.04101831345 938.0411763896443
2347.6187509685915 1128.6613200873426
2348.196343832553 1097.942955196128
2348.7737969364935 1178.9055586956404
2349.351110311558 1071.353798870486
2349.9282839888765 925.2437162571568
2350.5053179995757 803.4633215236885
2351.0822123747585 875.8351329900373
2351.658967145526 875.6693498112587
2352.2355823429643 875.554477239593
2352.812057998144 1439.6950211615508
2353.3883941421263 1237.3338442886056
2353.9645908059647 1178.8142435530472
2354.540648020693 1107.8968923434145
2355.116565817336 1258.013758513597
2355.6923442269126 1037.9978956484924
2356.2679832804224 1272.2651718691866
2356.8434830088518 1065.0048854775403
2357.41884344318 979.3830803727162
2357.994064614377 951.1206012673223
