#exp_cfg={"servo_angle": 0.0, "laser_lim": 100.0, "servo_angle_to": 18.0, "laser_wup": 0.0, "bt_dev": "EnSpectr-25AE3", "laser_wdn_max": 0.0, "frames": 10.0, "servo_used": 0, "servo_calib_use": 0, "laser_wdn_min": 0.0, "servo_pix_from": 90.0, "cooler_tout": 300.0, "servo_angle_from": 0.0, "servo_calib": "[-1.9174921013161362e-09, 3.9322238269163779e-05, -0.27385609119055809, 653.59552119713567]", "laser_autoctl": 0, "servo_pix_to": 3682.0, "laser_pw": 100.0, "cooler_on": 0, "laser_volt": 4.0, "cooler_autoctl": 0, "cooler_curr": 70.0, "cooler_startup": 10.0, "laser_fixed_pw": 0, "gain": 1.3, "offset": 2.53059635486, "servo_calib_degree": 3.0, "laser_curr": 55.0, "shutter": 8200.0, "servo_calib_step": 1.0, "laser_fixed_curr": 0, "exp": 2000.0, "ccd_volt": 4.7, "bt_addr": "00:06:66:62:5A:E3", "servo_delay": 500.0, "laser_autooff": 1}
#proc_cfg={"flat_auto_wnd": 200.0, "flat_auto_fr": 200.0, "flat_auto_shift": 5.0, "yconv": 1, "flatten": 1, "flatten_strength": 100.0, "xfrom": 300.0, "auto_max_frame": 2000.0, "auto_signal": 48000.0, "flat_auto_tol": 0.1, "autoclip": 1, "xrel_range": 0.0, "flat_auto_to": 4000.0, "intensity_adj": 1.0, "xrel": 7852.0, "rmhot": 1, "flat_auto_slit": 4.999999999999997, "auto_ini_exp": 300.0, "auto_off": 0, "xto": 2860.0, "flat_auto_ref": "", "flat_auto_rank": 1, "autobackg": 0, "xrel_adj": 0.0, "auto_black_lvl": 1, "base_wnd": 100.0, "sub_baseline": 0, "xconv": 2, "auto_max_exp": 1000.0, "auto_total_exp": 10000.0, "auto_exp": 0, "rmripple": 0, "black_lvl": 8271.3375, "shutter_clip_adj": 0.0, "auto_bckg": 0, "flat_auto_thr": 0.9, "subbackg": 1}
316.8218498245369 12065.980427596813
317.89969571804795 11997.858917784339
318.977263876126 12017.328677580292
320.05455438786703 11937.810725293477
321.1315673423287 11852.887401478067
322.2083028285215 11936.336818872467
323.2847609354267 11813.529354852437
324.3609417519747 11852.393417582034
325.43684536705587 11699.701936027841
326.5124718695279 11722.02132526274
327.58782134820103 11655.280456538238
328.66289389184385 11698.445766153036
329.7376895891921 11461.617675746958
330.8122085289342 11602.956576365052
331.88645079971866 11562.663790119477
332.9604164901575 11451.572363373798
334.03410568881554 11359.517757717707
335.1075184842266 11565.85132651126
336.18065496487543 11439.341412926591
337.2535152192122 11436.85082928805
338.32609933564163 11433.326935403584
339.39840740253203 11329.716421555717
340.4704395082099 11371.37909132074
341.5421957409617 11270.594731151086
342.6136761890357 11397.107621465693
343.6848809406365 11225.431030211472
344.75581008392874 11181.85668683378
345.82646370703696 11145.423080331158
346.8968418980512 11187.647583611735
347.96694474501055 11263.063813734643
349.0367723359268 11151.49821131933
350.106324758759 11151.554202145257
351.1756021014353 10978.413628366372
352.2446044518383 11036.84646365589
353.31333189781435 11214.968127574577
354.38178452716966 11017.639412971683
355.449962427665 11039.64871630017
356.51786568702846 11030.649645249085
357.58549439294256 11141.416565535585
358.6528486330535 11024.663406488578
359.71992849496564 10985.6487791788
360.7867340662433 11033.67799113657
361.8532654344144 11069.155168269263
362.9195226869597 11075.426803278098
363.9855059113288 10970.073747239716
365.05121519492604 10962.744652363073
366.11665062511565 11070.050708423314
367.1818122892273 11048.657242038395
368.2467002745434 11047.443202699953
369.31131466831175 11048.706395463301
370.375655557742 11070.52451819128
371.4397230299983 11027.548600297188
372.5035171722102 10978.142613394553
373.5670380714637 10986.926895823053
374.6302858148101 11096.285604038778
375.6932604892554 10986.858039374052
376.7559621817709 11003.046343558248
377.81839097928605 10921.823018479554
378.8805469686886 10978.968780356041
379.94243023683157 11038.583762176338
381.0040408705263 10965.307695556337
382.0653789565458 10787.936763151565
383.1264445816196 10941.264489681591
384.1872378324406 10863.135766330317
385.2477587956637 10915.211585337453
386.3080075579037 10761.860902760438
387.3679842057336 10679.890010664576
388.4276888256918 10823.034762867968
389.48712150426945 10737.704771169
390.54628232792857 10692.475791008936
391.6051713830857 10632.253146176427
392.66378875611736 10677.976489311712
393.7221345333637 10606.764293252805
394.7802088011249 10554.750122753083
395.838011645661 10556.646934037808
396.89554315319765 10514.763029894442
397.9528034099112 10509.28483611604
399.00979250194723 10496.543832724954
400.06651051541485 10447.727551394246
401.1229575363741 10485.90712007319
402.17913365085224 10359.7612963101
403.23503894483656 10502.44651909292
404.2906735042761 10341.34521182987
405.3460374150818 10308.867184707517
406.401130763119 10339.204605768236
407.455953634224 10330.105926007027
408.5105061141876 10252.448394130257
409.56478828876243 10118.216331397849
410.6188002436629 10182.609645735254
411.6725420645689 10109.827804594388
412.72601383711117 10181.845553874731
413.77921564689314 10266.088371061483
414.8321475794728 10090.136148975398
415.88480972036814 10061.671551703439
416.93720215506437 10025.334136506073
417.9893249690049 10012.546172621482
419.04117824759123 9938.048294395006
420.09276207619223 9953.323744453432
421.144076540133 9940.938584619289
422.1951217247042 9899.245085256622
423.24589771515275 9923.176521358419
424.2964045966928 9914.99551361812
425.34664245449494 9858.347406576715
426.3966113736933 9922.852107783665
427.4463114393875 9771.312105337152
428.49574273662984 9796.935008091014
429.5449053504417 9765.063751495558
430.5937993658026 9792.690114625822
431.6424248676558 9701.587899906533
432.6907819409007 9719.021390066577
433.73887067040596 9774.58958743918
434.7866911409965 9787.766485020727
435.8342434374608 9736.443325238533
436.88152764455117 9701.431765684472
437.9285438469724 9667.578508993647
438.9752921294057 9576.992681654381
440.02177257648145 9653.688102755903
441.06798527279716 9551.729611073604
442.1139303029122 9610.415501009516
443.1596077513459 9679.7126580047
444.2050177025794 9609.045092473356
445.25016024105753 9638.683975331516
446.2950354511886 9571.342862947204
447.33964341733736 9636.417307428579
448.383984223834 9545.07279508153
449.4280579549686 9505.89387507652
450.471864694995 9548.332940813874
451.5154045281306 9576.465555265673
452.5586775385509 9520.67040481623
453.60168381039693 9519.981018008739
454.64442342776783 9558.649205803602
455.6868964747264 9559.716585401578
456.7291030353008 9435.3957912116
457.77104319347563 9620.874312030348
458.8127170332027 9473.210613896197
459.854124638392 9498.582186223151
460.895266092919 9579.734883086036
461.93614148061897 9640.507088650898
462.97675088529104 9633.51384997199
464.01709439069236 9650.890835171873
465.0571720805492 9620.12562827465
466.0969840385442 9654.178793154662
467.1365303483253 9733.656139085198
468.17581109350067 9659.058749450109
469.2148263576437 9619.309197168117
470.2535762242878 9623.570161464217
471.29206077693016 9774.918857748042
472.33028009902773 9740.058648857465
473.3682342740012 9729.494487491605
474.40592338523857 9715.008379918076
475.4433475160804 9753.92117971688
476.4805067498364 9790.028760114292
477.51740116978 9710.602276820806
478.5540308591426 9772.820063263707
479.59039590112116 9898.249550487062
480.6264963788726 9763.148805615234
481.6623323755193 9861.300707549894
482.6979039741436 9868.256882089057
483.7332112577915 9918.738863318194
484.76825430947247 10103.42796722652
485.80303321215797 10054.212110264398
486.837548048783 10073.445901808616
487.8717989022425 10298.013796282765
488.90578585539697 10218.942120801104
489.9395089910686 10324.418595830159
490.97296839203955 10250.538099943824
492.00616414106116 10089.809289930057
493.0390963208429 10133.114827588975
494.0717650140559 10133.85315980022
495.10417030333883 10009.152557452977
496.1363122712901 9999.077104380478
497.16819100046814 9838.931704976572
498.1998065734024 9730.300777372486
499.2311590725767 9766.535057436759
500.26224858044407 9537.679297477125
501.2930751794156 9509.803560853474
502.3236389518679 9529.48001760661
503.35393998014115 9337.983536338576
504.38397834653733 9331.154937204004
505.4137541333221 9368.089131982062
506.4432674227228 9241.825191095051
507.4725182969323 9197.253202360287
508.5015068381035 9144.536600274108
509.53023312835467 9217.464695267698
510.55869724976765 9102.56804714498
511.58689928438434 9081.959720769752
512.6148393142121 9022.562536173886
513.6425174212218 9157.47677666084
514.6699336873462 9026.76257476378
515.6970881944835 9124.547538091856
516.7239810244901 9022.643995529132
517.7506122591931 9065.12820516019
518.7769819803761 9013.736116991335
519.8030902697901 9043.695245447261
520.8289372091476 9048.880914933496
521.8545228801249 9143.253384156204
522.8798473643619 9064.914343026783
523.9049107434621 9054.300506018197
524.9297130989908 9055.427150746902
525.9542545124805 9050.153735532733
526.9785350654201 8925.88229460743
528.0025548392696 9017.409352840352
529.0263139154504 8876.906072910251
530.0498123753423 8972.18831003648
531.073050300296 8908.904663924523
532.0960277716204 8777.183685679718
533.1187448705896 8861.129658573142
534.1412016784416 8857.262258570729
535.1633982763833 8707.507814983137
536.1853347455726 8709.94835559039
537.2070111671401 8672.538207040021
538.2284276221817 8611.838972052838
539.2495841917516 8565.07416749714
540.2704809568677 8491.085591212734
541.2911179985167 8565.585616976354
542.3114953976419 8473.476221804076
543.3316132351592 8468.929082918994
544.3514715919409 8401.660328181995
545.3710705488247 8440.623819775741
546.3904101866156 8394.234932060937
547.4094905860784 8404.282570451833
548.4283118279418 8370.592270588015
549.4468739929034 8314.933364031216
550.4651771616191 8330.350813745423
551.4832214147063 8207.054993283058
552.501006832761 8291.471225525884
553.5185334963226 8266.600440547276
554.5358014859103 8313.369951412113
555.5528108820035 8288.896522717616
556.5695617650363 8213.322973473212
557.5860542154242 8273.25322532075
558.6022883135283 8220.699092047986
559.6182641396881 8207.095378099517
560.6339817741991 8269.08452579803
561.6494412973225 8196.756115213106
562.6646427892883 8342.953240225474
563.6795863302796 8125.205885659678
564.694272000459 8225.658705297647
565.7086998799423 8233.009462878854
566.7228700488104 8196.516944831386
567.7367825871115 8126.511705614471
568.7504375748576 8132.247874432166
569.7638350920224 8102.197522500088
570.7769752185486 8121.202048348479
571.7898580343353 8123.963112578737
572.802483619258 8056.329448378738
573.8148520531431 8268.981157542494
574.8269634157932 8268.292947334525
575.8388177869692 8196.637302725616
576.8504152463938 8202.298329346422
577.8617558737587 8332.847650253292
578.8728397487175 8165.958104111773
579.883666950891 8220.869113237579
580.8942375598654 8307.193224442128
581.9045516551851 8381.57714214486
582.9146093163617 8568.373941677228
583.924410622878 8340.648188336887
584.9339556541727 8378.868549070092
585.9432444896538 8537.05969967396
586.9522772086875 8461.87441367484
587.9610538906127 8517.466755750927
588.9695746147318 8513.284529497887
589.9778394603054 8481.564535564723
590.985848506567 8435.933778650211
591.9936018327098 8381.983486248757
593.0010995178891 8233.546500401742
594.0083416412344 8349.167783839033
595.0153282818283 8148.7523620870215
596.0220595187293 8161.676313840991
597.0285354309508 8089.309722036052
598.0347560974806 8028.061072169749
599.0407215972609 8107.370497462236
600.0464320092051 7996.687110813067
601.0518874121954 8029.867140899002
602.0570878850685 7974.139200359709
603.062033506636 8010.019746076349
604.0667243556636 7990.023006420842
605.0711605108936 7858.028559679602
606.0753420510264 8141.616926232558
607.0792690547278 7940.946871162965
608.082941600629 7921.037518194935
609.0863597673306 7968.763121196916
610.0895236333909 8034.523858626378
611.0924332773357 8163.001571893619
612.0950887776617 8034.061201068714
613.0974902128219 8088.556994609047
614.0996376612384 8239.716802859331
615.1015312013005 8272.403224067235
616.1031709113595 8292.20164154934
617.1045568697336 8228.770312954182
618.1056891547069 8292.496525182165
619.1065678445229 8327.072033109518
620.1071930173985 8604.378354223652
621.1075647515099 8596.077019868064
622.1076831250048 8609.650663757377
623.1075482159849 8697.185763386913
624.1071601025305 8806.702480894819
625.1065188626781 8793.080070513735
626.105624574433 9110.164178531737
627.1044773157682 9196.649912996665
628.1030771646128 9021.772118612163
629.1014241988742 9343.736647863729
630.0995184964158 9372.929820452402
631.0973601350688 9458.330760482038
632.0949491926294 9575.133252313437
633.0922857468631 9376.180799537342
634.089369875499 9521.335989124736
635.0862016562278 9563.01410199927
636.0827811667077 9286.516908621443
637.0791084845641 9311.235092822299
638.0751836873878 9167.583590442073
639.0710068527369 9251.961824051545
640.0665780581294 9008.454313520979
641.0618973810506 8939.500280951703
642.0569648989604 8961.766752559122
643.0517806892676 8717.096197103048
644.0463448293649 8706.895179077399
645.040657396592 8622.000329063854
646.0347184682723 8470.814399145815
647.0285281216875 8327.677464457405
648.0220864340772 8299.11838227755
649.0153934826558 8180.142835472143
650.0084493446047 8072.084211496166
651.0012540970674 8185.047785377802
651.9938078171526 8026.311343051666
652.9861105819346 7969.555637072792
653.9781624684565 8069.051837796544
654.9699635537254 7868.642536526136
655.9615139147136 7898.959283891071
656.9528136283589 7759.4372973482505
657.9438627715699 7894.274246699017
658.9346614212154 7791.969296798337
659.925209654135 7590.622909133458
660.9155075471263 7707.0772258601355
661.9055551769616 7614.174112698658
662.895352620375 7783.4511987533115
663.8848999540678 7562.524450935901
664.8741972547068 7559.381775453167
665.863244598926 7433.003954585717
666.8520420633213 7531.231677501589
667.8405897244611 7389.278363105381
668.8288876588758 7365.180930764151
669.8169359430613 7438.057982178955
670.8047346534822 7473.864906182612
671.7922838665672 7294.453619749559
672.7795836587156 7431.125422669752
673.766634106285 7501.161287503132
674.7534352856092 7314.805691776133
675.7399872729766 7287.483038334783
676.7262901446538 7338.499707509817
677.712343976862 7279.289614822994
678.6981488457986 7393.592938136144
679.6837048276229 7180.983841678331
680.6690119984596 7277.061021256957
681.6540704344043 7268.872165894335
682.6388802115107 7278.732881504749
683.6234414058108 7153.591232282653
684.6077540932874 7147.174771961768
685.591818349907 7198.563773800136
686.575634251587 7209.551728080883
687.5592018742263 7106.827915623837
688.5425212936734 7027.664440590748
689.5255925857564 7119.026557646352
690.5084158262707 7106.796440097851
691.4909910909646 7057.044783555694
692.4733184555644 7064.156188417229
693.4553979957618 7101.941421646792
694.4372297872123 7054.665269277949
695.4188139055404 7056.829275490951
696.4001504263324 6944.718315921818
697.3812394251509 7030.656819164874
698.3620809775111 7094.754122520593
699.3426751589104 7046.914171330167
700.3230220448004 6905.535341335031
701.3031217106054 6949.0390667945085
702.2829742317172 7193.584190820251
703.2625796834873 6838.651942817732
704.2419381412474 6896.33553999421
705.22104968028 6955.044310929747
706.1999143758458 6837.307782080135
707.178532303169 6863.693927280392
708.1569035374378 6966.181556176256
709.1350281538107 6849.203938540144
710.1129062274158 6871.752969354852
711.0905378333373 6983.019288368788
712.0679230466376 6921.565650538358
713.0450619423427 6980.705809437141
714.0219545954424 7100.036635980189
714.9986010808989 6881.458814998175
715.9750014736292 6952.654491609329
716.9511558485392 7023.257575477108
717.9270642804786 7140.065726465097
718.9027268442787 7109.9784297519145
719.8781436147328 7065.960915584363
720.8533146666014 6997.255251062789
721.828240074612 7107.80377808551
722.8029199134635 7046.949691385575
723.7773542578125 7071.240989318321
724.751543182294 7040.605080672915
725.7254867615029 7134.707546445525
726.6991850700015 6883.378496280406
727.6726381823228 6929.121224763157
728.6458461729599 6989.010301006992
729.6188091163858 6905.088380555508
730.5915270870246 6878.968345851315
731.5640001592856 6841.411454038927
732.536228407529 6849.274035191607
733.5082119060917 6882.5067758641035
734.4799507292755 6768.73958274918
735.4514449513481 6763.340145540031
736.4226946465496 6817.462488973884
737.3936998890786 6871.5956870165655
738.3644607531078 6646.1560980609165
739.3349773127793 6787.0930555787445
740.3052496421951 6729.719342057797
741.27527781543 6706.600735568334
742.2450619065221 6598.718653319207
743.2146019894826 6665.922800251164
744.183898138288 6731.383757761808
745.1529504268801 6667.716229693537
746.1217589291682 6493.167189100568
747.0903237190341 6607.732602339667
748.058644870318 6594.515839557223
749.0267224568397 6605.511472662855
749.994556552374 6443.3113607055675
750.9621472306771 6557.114099734887
751.9294945654583 6550.126797041136
752.8965986304011 6560.786772179619
753.8634594991636 6473.426364200464
754.8300772453586 6550.330965010726
755.7964519425768 6532.128110372823
756.762583664371 6624.444503909239
757.7284724842611 6567.752291891675
758.6941184757416 6518.517836709521
759.6595217122667 6507.612300340724
760.6246822672638 6534.835397010529
761.5896002141235 6399.969494612558
762.5542756262093 6447.357045361152
763.5187085768503 6492.137915557107
764.4828991393406 6407.916878607364
765.4468473869474 6413.295144007468
766.4105533929032 6498.614692808633
767.3740172304078 6391.982624817997
768.3372389726283 6556.422392045766
769.3002186926988 6397.829660598893
770.2629564637282 6344.241678589319
771.2254523587872 6373.2222666515845
772.1877064509154 6335.247855462504
773.1497188131179 6198.670401913659
774.1114895183728 6235.853887651478
775.0730186396268 6257.120530370055
776.0343062497905 6227.038973036348
776.9953524217381 6161.561399733817
777.9561572283274 6214.656639794588
778.9167207423689 6194.869510095704
779.8770430366476 6091.949870336824
780.8371241839159 6125.11537922211
781.7969642568951 6182.339223603665
782.7565633282757 6370.785604296772
783.7159214707099 6119.171051704097
784.6750387568281 6198.897331572161
785.6339152592227 6207.943457491699
786.5925510504512 6160.068281272994
787.5509462030477 6284.537091055716
788.5091007895098 6168.660063928007
789.4670148823006 6263.94695197037
790.4246885538596 6226.771106665939
791.3821218765861 6253.096347224
792.3393149228505 6149.067261439701
793.2962677649975 6344.509546275208
794.2529804753303 6332.049345161517
795.20945312613 6222.361965627239
796.1656857896378 6200.892438712433
797.1216785380675 6167.1814965238655
798.0774314435985 6232.96554934967
799.0329445783846 6350.43551604429
799.9882180145414 6277.876449084944
800.9432518241574 6273.238198676549
801.89804607929 6362.6328108470325
802.852600851962 6353.497508578946
803.8069162141637 6327.608953309197
804.760992237856 6490.141734175604
805.714828994971 6506.858583678947
806.6684265574077 6555.090389767164
807.6217849970271 6509.8133191138195
808.574904385674 6452.6119789650065
809.527784795142 6574.037320797074
810.4804262972102 6591.325745213568
811.4328289636178 6405.197742022292
812.3849928660748 6349.019870197895
813.3369180762638 6296.617140000766
814.2886046658241 6423.882357047091
815.2400527063783 6244.974516711996
816.1912622695108 6122.050114617685
817.1422334267718 6213.874237670232
818.0929662496856 6088.336189272652
819.0434608097457 6004.205135930169
819.9937171784059 5959.402045459133
820.9437354271013 5942.190733464655
821.8935156272255 6054.039428634984
822.8430578501484 5862.176014726145
823.7923621672016 5746.177577053555
824.7414286496896 5822.970647655535
825.6902573688876 5880.344517162513
826.6388483960363 5745.914006517958
827.5872018023492 5731.25832068498
828.5353176590033 5813.80156762841
829.4831960371503 5651.518948557579
830.4308370079016 5657.162408844218
831.3782406423525 5792.1101395719115
832.3254070115545 5795.029226840429
833.2723361865319 5593.890974995383
834.2190282382799 5628.028823194174
835.1654832377644 5703.366237808013
836.1117012559116 5585.388568621455
837.0576823636256 5740.025384169024
838.003426631778 5556.716235207086
838.9489341312074 5527.559702420747
839.8942049327197 5713.191517241683
840.8392391070975 5737.43377732304
841.7840367250865 5573.545887431786
842.7285978573982 5590.46763948706
843.672922574724 5598.118512497311
844.6170109477152 5611.313818532135
845.560863046996 5550.968817788668
846.5044789431595 5558.636763941785
847.4478587067697 5607.58610699389
848.3910024083561 5729.873180528997
849.333910118421 5607.450855944456
850.2765819074339 5438.734589832156
851.2190178458332 5615.910297595727
852.161218004032 5701.520628487242
853.1031824524016 5640.402946804383
854.0449112612987 5571.034161177534
854.9864045010327 5646.533273489754
855.9276622418947 5616.232009115803
856.8686845541379 5567.4966899025585
857.8094715079915 5584.931277846141
858.7500231736467 5720.865580246766
859.690339621271 5631.9815044957
860.6304209209939 5586.092227343172
861.5702671429244 5595.572465192551
862.5098783571284 5606.322278428414
863.4492546336569 5621.452648944817
864.3883960425155 5568.25712494802
865.3273026536863 5516.40587833873
866.2659745371238 5462.145858050952
867.2044117627465 5714.688877472289
868.1426144004472 5560.171077199061
869.0805825200823 5645.924347114931
870.0183161914847 5701.660308186589
870.9558154844526 5783.305352382778
871.8930804687552 5739.058012849452
872.8301112141307 5618.8729420477885
873.7669077902865 5773.673799734797
874.7034702669062 5927.8726400687065
875.6397987136315 5770.212203418234
876.5758932000863 5803.360579287537
877.5117537958522 5855.945188466844
878.4473805704911 5805.084244903286
879.3827735935283 5744.382806427029
880.3179329344603 5907.307360027634
881.2528586627541 5931.360690638385
882.1875508478479 6000.098977337622
883.1220095591489 5917.623885461775
884.0562348660296 5860.336540332903
884.9902268378391 5968.4024475491515
885.9239855438955 5920.701494734278
886.8575110534839 5768.307895959226
887.7908034358588 5867.112177555976
888.7238627602474 5823.373897036203
889.6566890958475 5848.292161197495
890.5892825118208 5664.718522818825
891.5216430773125 5769.841968504211
892.4537708614189 5800.686516369682
893.3856659332196 5722.205626797795
894.3173283617652 5637.518785197209
895.2487582160684 5737.2044200399905
896.179955565116 5679.643044290661
897.110920477864 5539.728466749063
898.0416530232451 5565.66921109438
898.9721532701478 5534.959501507875
899.9024212874428 5638.807093036438
900.8324571439662 5509.150912975067
901.7622609085302 5487.574690905193
902.6918326499072 5344.359750442765
903.6211724368477 5490.5690054523
904.5502803380696 5571.213217629784
905.4791564222614 5590.381483560852
906.4078007580792 5352.875659693587
907.3362134141571 5362.132960838115
908.2643944590909 5570.1416669461205
909.1923439614493 5394.6992344732425
910.1200619897754 5358.480999583949
911.0475486125779 5507.290112106757
911.9748038983344 5387.563815605203
912.9018279155007 5363.914472394597
913.8286207324982 5276.827326716645
914.7551824177117 5399.011656524891
915.6815130395116 5353.557344934614
916.6076126662283 5228.880672150382
917.533481366163 5201.054316954375
918.4591192075914 5290.645342240836
919.3845262587565 5369.0416261325245
920.3097025878706 5195.391537624209
921.2346482631237 5239.625811069087
922.1593633526682 5231.07912189914
923.0838479246304 5306.816458395845
924.0081020471061 5358.56356636214
924.9321257881656 5164.360916019261
925.8559192158464 5226.874205283302
926.7794823981512 5110.128945631312
927.7028154030686 5096.643327789684
928.6259182985414 5147.160551252218
929.5487911524906 5306.793011595155
930.4714340328119 5271.283123536974
931.3938470073608 5077.331436078416
932.3160301439748 5065.423377469402
933.2379835104548 5061.610746405746
934.1597071745709 5210.555717336019
935.0812012040769 5162.188075725032
936.002465666681 5191.624507138613
936.9235006300696 5201.028192844203
937.8443061619055 5189.254756944806
938.7648823298077 5058.851243299115
939.6852292013809 5116.593529067772
940.6053468441951 5219.328883238601
941.5252353257874 4963.88742098703
942.4448947136698 5113.982219885524
943.364325075323 5068.558037452562
944.2835264782043 5054.935247023603
945.2024989897309 5100.4264993046545
946.1212426773054 5084.139344413503
947.0397576082851 5151.917611886498
947.9580438500125 5192.222610539013
948.8761014697939 5198.438784147123
949.7939305349064 5169.413932448322
950.7115311125999 4992.794424809134
951.6289032700952 4992.110376199438
952.5460470745875 5135.041030500121
953.4629625932339 4966.46009871733
954.3796498931715 5190.8812869542235
955.2961090415029 5062.184170088775
956.2123401053068 5047.591804629865
957.1283431516276 5036.055177659765
958.0441182474842 4962.705678820965
958.9596654598663 5215.906697682316
959.8749848557309 5033.837752173284
960.7900765020167 5023.2184695367
961.7049404656209 4950.5825397855015
962.6195768134185 5009.448545080782
963.5339856122537 5069.11615163911
964.4481669289453 5138.953254989871
965.3621208302793 5047.505291461419
966.2758473830145 4963.506939273607
967.1893466538822 5196.891510547118
968.1026187095813 5002.067539905967
969.0156636167867 5034.757433564408
969.9284814421426 5121.672509053422
970.8410722522622 5027.455562559432
971.753436113735 5017.595691792372
972.6655730931161 5023.435518009697
973.5774832569368 5027.8954531728195
974.4891666716958 4961.155008182388
975.4006234038698 4901.716143594265
976.3118535198955 4901.004607247322
977.2228570861935 5098.4547382269975
978.1336341691494 5072.034135996885
979.0441848351202 4851.405232207438
979.9545091504333 5004.411730216683
980.864607181391 5003.919582232209
981.7744789942699 5006.9587850772095
982.6841246553086 4980.855402487529
983.5935442307236 5019.826506896337
984.5027377867027 5006.762720674125
985.4117053894024 5038.80487847399
986.3204471049557 4916.4570687203
987.2289629994648 5036.431655509269
988.1372531390007 5079.324582783297
989.0453175896091 4998.6564915246945
989.9531564173067 5054.916144771623
990.860769688079 4901.065765927687
991.7681574678918 5012.92382740528
992.6753198226706 4976.811376096115
993.582256818323 4933.97290128009
994.4889685207218 4991.349682941738
995.3954549957143 5153.118394556337
996.301716309119 5154.901318343179
997.2077525267232 5001.2200915446465
998.1135637142943 4967.092364127643
999.0191499375615 5168.599189621795
999.924511262232 5152.755819570519
1000.8296477539861 5119.73990871694
1001.7345594784656 5099.278921781505
1002.6392465012996 5032.647219802164
1003.5437088880753 5200.40323558545
1004.4479467043584 5085.193830744571
1005.3519600156869 4923.850375775746
1006.2557488875718 5117.3944313412285
1007.1593133854858 5154.009435050302
1008.0626535748888 5043.257812925089
1008.9657695212009 4974.697936549139
1009.8686612898182 5155.8038325326015
1010.7713289461135 5148.739920781986
1011.6737725554212 5114.931871782096
1012.5759921830577 5120.714217461593
1013.4779878943027 5057.823360087639
1014.379759754418 5184.602515812584
1015.2813078286254 5027.223660038287
1016.18263218213 4966.60176081194
1017.0837328801026 4985.602798622973
1017.9846099876886 5019.71630861952
1018.8852635700023 4965.559708357919
1019.7856936921362 4841.099762418506
1020.6859004191447 5056.6001490894505
1021.5858838160675 4833.168251692847
1022.4856439479063 4830.4019209026255
1023.3851808796389 4786.88819090105
1024.2844946762143 4995.447602901938
1025.183585402554 4852.1237472085695
1026.082453123554 4671.181653049194
1026.9810979040776 4815.024282488866
1027.8795198089647 4729.691902418717
1028.777718903024 4842.555650621141
1029.6756952510368 4850.157952259023
1030.5734489177648 4737.53225976347
1031.4709799679313 4672.800989166841
1032.3682884662358 4902.772003217447
1033.2653744773506 4595.601590662124
1034.1622380659192 4710.136072854531
1035.058879296559 4738.632570606091
1035.9552982338591 4883.545965626147
1036.8514949423825 4800.747854204334
1037.7474694866614 4875.84513578049
1038.6432219312028 4780.473511333892
1039.5387523404825 5001.6293976061115
1040.4340607789582 4929.678932219249
1041.3291473110476 4943.231144538377
1042.2240120011465 5060.766895723016
1043.1186549136273 5144.3062432568695
1044.0130761128294 5074.78470858115
1044.9072756630649 5121.341048683463
1045.8012536286205 5253.956306241302
1046.6950100737577 5267.423136510528
1047.588545062701 5408.039581390921
1048.481858659663 5419.069227592017
1049.3749509288118 5475.2731007770935
1050.2678219343034 5394.167285688982
1051.1604717402515 5394.820299232626
1052.0529004107575 5234.356115941187
1052.9451080098825 5420.775114813284
1053.8370946016694 5388.877985024873
1054.7288602501267 5322.225233189657
1055.6204050192446 5281.857658184596
1056.511728972977 5284.366371115688
1057.402832175254 5203.812400793491
1058.2937146899785 5038.464927014599
1059.1843765810263 5090.590580929983
1060.0748179122456 5065.753169644834
1060.9650387474576 4979.322275550244
1061.855039150456 4955.306054487648
1062.7448191850071 4983.384114437399
1063.6343789148505 4962.305334753764
1064.5237184037014 5040.146843378574
1065.412837715241 4846.09233759067
1066.3017369131267 4861.502663297628
1067.190416060992 4766.207770105392
1068.0788752224398 4704.672790616431
1068.9671144610438 4772.35806267464
1069.8551338403558 4888.452306611964
1070.7429334239023 4808.055442246639
1071.6305132751695 4708.3933817955685
1072.517873457633 4830.068187180968
1073.4050140347335 4724.6565179740355
1074.2919350698776 4717.649802256563
1075.1786366264623 4665.0049298889635
1076.0651187678395 4681.255410342098
1076.95138155735 4558.833261145329
1077.8374250582929 4579.164156637786
1078.7232493339507 4706.674359347358
1079.608854447577 4556.003407536584
1080.4942404623907 4509.751820655936
1081.3794074415982 4582.575460745031
1082.2643554483657 4636.929437766506
1083.149084545841 4514.203176526771
1084.033594797138 4515.283801185203
1084.9178862653516 4472.213414017893
1085.8019590135427 4663.9270784545715
1086.6858131047484 4297.272943204025
1087.5694486019802 4517.656791734036
1088.4528655682225 4471.897568753283
1089.3360640664287 4625.806635451483
1090.2190441595321 4492.669274362439
1091.1018059104317 4449.30382235715
1091.98434938201 4482.159967201318
1092.866674637111 4589.074533498249
1093.748781738559 4490.950677923421
1094.6306707491512 4356.561193255537
1095.5123417316554 4525.918164979232
1096.3937947488157 4394.5572512737335
1097.2750298633455 4383.01664017697
1098.156047137938 4346.069342663096
1099.0368466352556 4389.338701698677
1099.9174284179317 4535.229017892423
1100.7977925485757 4285.61247628529
1101.6779390897755 4437.1693743355545
1102.5578681040806 4409.319870101606
1103.4375796540226 4407.248852984765
1104.3170738021054 4328.163419416114
1105.1963506108077 4198.542053987574
1106.0754101425773 4241.1818502156475
1106.9542524598382 4403.074280519516
1107.8328776249855 4311.414046673309
1108.7112857003904 4331.383896938207
1109.5894767483987 4296.826817609819
1110.4674508313292 4458.279025526151
1111.3452080114657 4295.972482972043
1112.2227483510815 4404.4051806636035
1113.1000719124077 4439.853306837105
1113.9771787576592 4508.215836777451
1114.854068949022 4449.9771261014375
1115.7307425486542 4496.08456912728
1116.6071996186893 4502.662594327724
1117.483440221229 4813.5542842924
1118.3594644183577 4496.413749035871
1119.235272272128 4587.645123660883
1120.1108638445658 4704.778928363113
1120.9862391976712 4784.719482157225
1121.8613983934229 4795.861871369646
1122.7363414937627 4767.755291897335
1123.6110685606182 4805.417233705286
1124.485579655884 5075.040778095729
1125.359874841426 4865.770118613044
1126.2339541790916 4935.15961591577
1127.1078177306936 5131.9720504291145
1127.9814655580267 4958.723922149618
1128.854897722851 4973.6500069409585
1129.7281142869106 5007.367619387714
1130.6011153119125 5064.9036929818085
1131.473900859548 5187.265706536838
1132.3464709914697 5050.706517814406
1133.2188257693178 5004.498484435821
1134.0909652546961 4954.052778463094
1134.96288950919 4934.28436693198
1135.8345985943506 5021.367145687556
1136.7060925717087 4809.682902133479
1137.57737150277 4897.86253058828
1138.4484354490069 4963.679533428115
1139.3192844718778 4783.155861187997
1140.1899186327992 4599.939330669128
1141.060337993178 4813.931082423174
1141.930542614382 4669.836922626164
1142.8005325577597 4617.531252158255
1143.670307884635 4426.517033927003
1144.5398686563003 4541.124948091283
1145.409214934025 4538.473786008122
1146.2783467790541 4285.924249525689
1147.1472642526023 4460.873630347062
1148.0159674158622 4507.2737532832
1148.8844563300026 4354.164178546483
1149.7527310561618 4305.767889712793
1150.6207916554504 4269.277910792228
1151.4886381889592 4157.487301383574
1152.3562707177498 4329.175296484633
1153.2236893028585 4172.614809918337
1154.090894005296 4139.103314702326
1154.9578848860474 4134.259534865125
1155.8246620060709 4119.52627745164
1156.6912254262988 4023.977728224764
1157.5575752076438 4073.760286032423
1158.42371141098 4295.560486065845
1159.2896340971656 4192.046306287046
1160.1553433270346 4114.581389666797
1161.0208391613887 4179.598036511556
1161.8861216610057 4123.814050007692
1162.75119088664 4160.42231858804
1163.6160468990201 4108.470415928898
1164.4806897588442 4064.769737864341
1165.3451195267917 4121.325910679719
1166.2093362635114 4109.950803194887
1167.0733400296285 4118.724699352049
1167.9371308857444 4033.4088262008213
1168.8007088924278 4033.3113357774428
1169.6640741102328 4079.041844317805
1170.5272265996773 4024.3311418714643
1171.390166421259 3830.192052708612
1172.252893635452 4054.779537374425
1173.1154083026995 4256.4541095263685
1173.977710483421 4127.355533541881
1174.8398002380145 3977.5344766723974
1175.7016776268483 4079.0774445735397
1176.563342710264 4051.120991284972
1177.4247955485826 4006.767562361525
1178.2860362020947 4097.744381197221
1179.147064731069 3941.1793224092
1180.0078811957483 4114.631462649923
1180.8684856563486 3999.6345344367755
1181.7288781730604 4075.9611161931834
1182.589058806052 4084.737944014329
1183.4490276154593 4330.043223163611
1184.3087846614017 4028.060115732146
1185.1683300039676 4106.805543241223
1186.027663703222 4313.911531918639
1186.8867858192025 4103.076915948505
1187.7456964119228 4123.186780853117
1188.6043955413716 4213.749120279958
1189.4628832675116 4271.242109427638
1190.3211596502842 4378.176256069961
1191.179224749596 4343.020559789325
1192.0370786253388 4187.148586036309
1192.8947213373758 4418.718973431575
1193.7521529455407 4582.3629189146495
1194.6093735096438 4230.919099692642
1195.466383089477 4324.902715796877
1196.3231817447977 4272.312664132988
1197.1797695353398 4599.905244387666
1198.0361465208189 4270.247709737902
1198.8923127609214 4403.877817317645
1199.7482683153048 4477.8900618156495
1200.6040132436028 4575.756912681611
1201.459547605431 4396.637373777785
1202.3148714603722 4483.491116478823
1203.1699848679855 4469.107895385783
1204.0248878878065 4616.970051160809
1204.8795805793507 4255.201894280802
1205.7340630020935 4513.716672210542
1206.5883352155033 4551.7740521529395
1207.4423972790064 4544.36257219469
1208.2962492520237 4307.2078441697595
1209.1498911939307 4410.79408272281
1210.0033231640937 4370.892213597013
1210.8565452218427 4382.470403835302
1211.7095574264913 4135.171384173622
1212.5623598373222 4212.003310218983
1213.4149525135963 4055.346761804941
1214.2673355145507 4293.8008852750445
1215.1195088993936 4096.835623866975
1215.9714727273113 4071.7107228809655
1216.8232270574663 4303.323550766824
1217.6747719489904 3936.5822996443617
1218.5261074609934 3956.9091315107808
1219.3772336525653 4195.083649684324
1220.2281505827668 4195.687695023848
1221.0788583106296 4257.069769116197
1221.9293568951707 4004.402280509684
1222.7796463953746 3909.2846813038714
1223.629726870202 4089.085919327269
1224.4795983785934 4056.037247448002
1225.3292609794553 3964.9183992747094
1226.1787147316809 3857.2917633607176
1227.0279596941327 3954.6866558258444
1227.8769959256424 3882.716221512187
1228.7258234850306 4022.5826137646873
1229.5744424310833 3742.2360833488483
1230.422852822563 4005.572549629018
1231.2710547182105 4131.812761556918
1232.119048176739 3940.079376899403
1232.9668332568417 3786.6010717289764
1233.8144100171812 3886.0751594803523
1234.6617785163999 3964.8135532963606
1235.508938813111 3608.57646726274
1236.3558909659114 3779.459325605295
1237.2026350333617 3947.3126644829026
1238.049171074008 3983.884861742198
1238.8954991463652 3762.767164986593
1239.741619308932 3850.9175044535345
1240.587531620169 3888.857502196742
1241.4332361385277 3925.8713436376543
1242.2787329224248 3766.4645161799135
1243.1240220302534 3704.796740742792
1243.9691035203869 3744.5607341611126
1244.813977451171 3984.645887949899
1245.6586438809263 3860.521616621754
1246.5031028679496 3594.1617361940635
1247.3473544705157 3867.168766588419
1248.1913987468706 3812.688634386678
1249.0352357552383 3589.3414525932976
1249.8788655538228 3678.187070023721
1250.7222882007918 3873.581577358675
1251.565503754302 3925.30086087951
1252.4085122724755 3511.1563243585597
1253.2513138134182 3932.3477032597207
1254.0939084352049 3811.8861411583603
1254.9362961958905 3740.353587348548
1255.7784771535007 3751.0099823611163
1256.6204513660432 3913.8813940981586
1257.4622188915 4028.807727117545
1258.3037797878242 3713.7193713130573
1259.1451341129468 3676.075868663479
1259.9862819247755 3778.7634428989745
1260.8272232811978 3739.6816597443385
1261.6679582400666 4034.5687131587642
1262.5084868592203 3585.3777317426843
1263.34880919647 3677.4099537267184
1264.1889253095997 3805.7913429644454
1265.0288352563712 3928.8155057488098
1265.8685390945266 3723.1632990088247
1266.7080368817751 3900.0071786635976
1267.5473286758115 3976.6247997074724
1268.386414534294 3812.4303683181097
1269.2252945148703 3479.712753650707
1270.0639686751547 3746.852064576745
1270.9024370727402 3706.428726853193
1271.7406997651997 3674.1862580274415
1272.5787568100714 3568.5246434498085
1273.4166082648808 3694.2644540427937
1274.2542541871244 3735.575379489984
1275.091694634275 3970.5308646325634
1275.9289296637817 3508.2918959638823
1276.7659593330663 3798.1083245437885
1277.6027836995308 3645.965245588783
1278.4394028205552 3880.934479930665
1279.2758167534867 3708.8432746963567
1280.112025555658 3714.7559947814234
1280.9480292843746 3788.566616796248
1281.7838279969128 3614.7507782166786
1282.6194217505326 3738.154090980781
1283.4548106024686 3547.420204059375
1284.289994609926 3660.78025617811
1285.1249738300921 3785.11981146194
1285.959748320127 3574.9837798656577
1286.7943181371702 3700.088107675429
1287.6286833383328 3638.70820536233
1288.4628439807038 3749.0248573321915
1289.2968001213521 3579.805001237807
1290.1305518173194 3664.7390335653713
1290.9640991256183 3693.822580066818
1291.7974421032523 3670.8207924186936
1292.630580807183 3532.1415083700535
1293.463515294361 3799.7811810253506
1294.29624562171 3764.85653541338
1295.12877184613 3607.550290817823
1295.961094024493 3482.0316811975326
1296.79321221365 3684.35383024381
1297.6251264704333 3732.74865789464
1298.4568368516466 3946.5570293074766
1299.2883434140658 3699.005404990362
1300.1196462144526 3549.1986756533925
1300.9507453095375 3690.0238076446813
1301.7816407560313 3777.4808890806626
1302.6123326106172 3713.9363418344788
1303.4428209299622 3590.046856882765
1304.2731057707024 3847.5990392694316
1305.1031871894502 3603.870755591084
1305.933065242798 3775.4952880732444
1306.7627399873181 3662.5589966538255
1307.5922114795467 4035.9848394427763
1308.4214797760123 4090.62638777943
1309.2505449332057 3707.8695428411534
1310.0794070076026 3868.422990350539
1310.9080660556538 4001.029832137506
1311.736522133786 3990.595960252267
1312.5647752983987 3717.176785188284
1313.3928256058734 3610.766855620219
1314.2206731125661 3845.425883759137
1315.048317874809 3825.019894147075
1315.8757599489109 3801.069766824193
1316.7029993911547 3859.317208391932
1317.5300362578055 3977.75254656135
1318.356870605101 3694.7894336995573
1319.183502489257 3766.8732758320643
1320.0099319664623 3851.791089030829
1320.836159092889 3862.5181122943295
1321.66218392468 3901.7559280285614
1322.4880065179532 3572.9258996920557
1323.3136269288134 3835.5928085929145
1324.1390452133292 3879.804957138919
1324.9642614275563 3954.669397005256
1325.7892756275214 3750.157632629285
1326.6140878692295 3677.2013084327327
1327.4386982086617 4130.907418446567
1328.2631067017755 3937.9337297073116
1329.0873134045069 3833.350103420301
1329.911318372764 3876.1631450395244
1330.735121662441 3788.8729155377428
1331.558723329399 3785.7721435697604
1332.3821234294774 3789.6939393219895
1333.2053220185007 3888.3743950168077
1334.0283191522612 3735.7788557352733
1334.851114886529 3900.213230087071
1335.6737092770582 3700.2530079719936
1336.4961023795695 3787.395684207786
1337.3182942497697 3671.633042332549
1338.1402849433325 3704.536487503878
1338.962074515921 3580.527044050833
1339.7836630231632 3591.957889068547
1340.6050505206676 4060.9486733438885
1341.426237064028 3906.1476996894853
1342.2472227088037 3709.279226843714
1343.0680075105338 3567.9378264100606
1343.888591524741 3753.3413600447698
1344.7089748069138 3884.656935545071
1345.5291574125276 3721.33256660168
1346.3491393970307 3587.82289111129
1347.168920815846 3765.4721477170497
1347.9885017243778 3834.296760201345
1348.8078821780036 3686.446347204242
1349.6270622320844 3746.373380810136
1350.4460419419447 3672.05049314095
1351.2648213629054 3814.2706166422395
1352.0834005502438 3517.7914585498775
1352.90177955923 3565.716264479571
1353.7199584451064 3790.207673841288
1354.5379372630887 3752.8734811783115
1355.355716068374 3615.211694737005
1356.1732949161305 3543.9039046824037
1356.9906738615155 3655.892548848289
1357.8078529596478 3613.5715939951965
1358.6248322656375 3743.385658806759
1359.441611834567 3620.941065643984
1360.2581917214866 3776.9499762452483
1361.0745719814367 3639.1458139499873
1361.890752669433 3603.7751346131176
1362.7067338404577 3565.6402708890723
1363.5225155494845 3771.6931511184252
1364.3380978514506 3769.362312396581
1365.1534808012839 3430.123968484354
1365.9686644538815 3252.1178478321517
1366.783648864117 3677.4800266301077
1367.5984340868417 3812.4485996656053
1368.413020176893 3659.476397989153
1369.2274071890715 3427.568520946244
1370.0415951781652 3801.31336598524
1370.8555841989346 3639.57194482853
1371.6693743061223 3441.8354915484765
1372.48296555444 3331.0252613575467
1373.2963579985844 3602.3647410715494
1374.1095516932255 3591.0498507755146
1374.9225466930166 3269.9778279979355
1375.7353430525782 3640.410866041106
1376.5479408265164 3430.0828270585416
1377.36034006941 3618.9990378513976
1378.1725408358216 3611.5266923486256
1378.9845431802805 3424.409925682308
1379.796347157304 3866.750965328345
1380.6079528213813 3667.78419139319
1381.4193602269788 3418.2235140151142
1382.230569428546 3385.412819209848
1383.0415804805016 3717.7547644180877
1383.852393437246 3604.5785904677955
1384.6630083531563 3553.5533638075917
1385.4734252825892 3371.8985807906147
1386.2836442798798 3430.2672910593924
1387.0936653993322 3527.901503338031
1387.9034886952395 3438.8560757543296
1388.713114221864 3490.153067712662
1389.5225420334482 3514.5084041148148
1390.331772184214 3461.2187231945804
1391.1408047283585 3210.4991188283093
1391.9496397200564 3360.2615661576287
1392.758277213461 3562.991394731457
1393.5667172627054 3732.9015027783526
1394.3749599218918 3481.631166176532
1395.1830052451114 3324.1073662106237
1395.9908532864265 3360.9858879636604
1396.7985040998774 3516.799117542208
1397.6059577394808 3340.6436093211696
1398.4132142592352 3383.505397272522
1399.2202737131156 3335.004239462035
1400.027136155073 3585.5049085025917
1400.8338016390353 3351.074600302818
1401.6402702189134 3371.4590874435717
1402.446541948586 3397.650274921883
1403.2526168819204 3346.077169676184
1404.058495072757 3330.0616507620566
1404.8641765749107 3374.614009770482
1405.6696614421799 3452.041566318915
1406.4749497283356 3710.555711508446
1407.280041487129 3237.4473210205406
1408.084936772295 3109.4968637114225
1408.8896356375335 3499.8818125994594
1409.6941381365323 3421.024576184836
1410.498444322955 3188.716123058868
1411.3025542504402 3363.77433364554
1412.106467972606 3365.8934743243904
1412.9101855430508 3438.3875912037865
1413.7137070153458 3103.2394161996067
1414.5170324430437 3341.845828366918
1415.320161879672 3386.462897222585
1416.1230953787435 3545.1840758627413
1416.925832993742 3150.0681379460275
1417.7283747781275 3087.6795417721432
1418.5307207853439 3361.7194598935107
1419.3328710688093 3269.4014712102667
1420.134825681922 3054.057312982616
1420.9365846780584 3171.5262657684534
1421.7381481105713 3421.4083863752276
1422.539516032788 3336.0460723935225
1423.3406884980232 3124.484548534433
1424.1416655595604 3137.950598831692
1424.942447270665 3123.072302708845
1425.7430336845828 3390.356552161581
1426.5434248545298 3003.7792262950907
1427.3436208337116 3199.2803122767314
1428.143621675301 3239.028419966966
1428.9434274324558 3417.737975546087
1429.7430381583108 3025.4548503509536
1430.5424539059713 3207.1425700883146
1431.3416747285337 3471.856813594744
1432.1407006790632 3294.472328751324
1432.9395318106053 3280.008494993757
1433.7381681761835 3045.0668003284422
1434.5366098288014 3102.423891609337
1435.3348568214424 3261.475151135911
1436.1329092070573 3095.0480894707894
1436.9307670385879 3108.778971249217
1437.7284303689503 3327.026869615347
1438.5258992510335 3374.4759646159537
1439.3231737377118 3164.9887295680646
1440.1202538818306 3169.9802489034764
1440.9171397362225 3054.522595424105
1441.7138313536925 3157.0197734863295
1442.5103287870243 2979.314158825837
1443.3066320889775 2950.750212705806
1444.1027413122956 3230.0650762827418
1444.8986565096966 3079.15421466148
1445.694377733882 2983.330455338369
1446.4899050375207 2887.159339749517
1447.2852384732687 2969.082880900883
1448.0803780937622 3168.730042670767
1448.8753239516063 2816.225470800998
1449.6700760993954 2813.3372803793764
1450.464634589689 2932.40162835056
1451.2589994750397 3309.1087638256713
1452.0531708079689 2859.5492964600144
1452.8471486409799 2880.674666075614
1453.6409330265524 3202.613287199066
1454.4345240171442 2915.404223125084
1455.2279216651987 2891.437139947443
1456.0211260231263 2955.400245864254
1456.8141371433194 3089.552355080107
1457.6069550781594 3055.8953425048812
1458.3995798799897 2782.1568170419914
1459.1920116011424 2887.562345986107
1459.98425029393 2866.5177483605903
1460.7762960106338 2828.552225794986
1461.5681488035225 2973.1130986809035
1462.3598087248392 2933.887139618156
1463.1512758268036 3192.7571733797413
1463.942550161617 2826.5606183566824
1464.7336317814625 2816.7838467759584
1465.524520738496 2991.9975652879607
1466.3152170848552 2923.9238923656694
1467.1057208726506 3010.6083765962458
1467.8960321539817 2823.101635950782
1468.6861509809169 2758.133452284337
1469.4760774055085 2828.7828725000745
1470.265811479785 2814.4199795422073
1471.055353255755 2608.8650492358497
1471.844702785409 2801.7299088776936
1472.6338601207044 2746.6528882399753
1473.4228253135934 3000.8638817933447
1474.2115984159936 2754.674364148797
1475.0001794798063 2615.3196387336243
1475.7885685569145 2902.1735693466408
1476.576765699172 2809.52916618489
1477.3647709584238 2785.6858819309255
1478.1525843864802 3030.4190810994837
1478.9402060351367 2882.146542308358
1479.7276359561693 2906.3600594126056
1480.514874201328 2819.4734924837585
1481.3019208223468 2623.0995530147525
1482.0887758709323 2564.7164391900396
1482.8754393987747 2945.4547032521264
1483.6619114575406 2677.808470821393
1484.4481920988783 2755.5200252248305
1485.2342813744108 2851.75115383102
1486.0201793357446 2983.1281344129357
1486.8058860344572 2696.2707281124244
1487.591401522117 2746.6192909020974
1488.3767258502594 2721.713509174661
1489.1618590704056 2839.343926235098
1489.9468012340494 2483.4853334341733
1490.7315523926754 2878.841050641484
1491.5161125977356 2862.8731092402695
1492.3004819006637 2853.97135820873
1493.084660352877 2671.009848612245
1493.8686480057622 2834.7701878067323
1494.6524449106964 3021.9536235346995
1495.4360511190262 3035.6355682282406
1496.219466682087 2876.1366604654936
1497.0026916511779 2748.715527156527
1497.7857260775945 2808.2959130529534
1498.5685700125996 2838.024200094337
1499.3512235074395 2640.9236303311186
1500.133686613337 2598.7442719486608
1500.9159593814966 2650.0588696607747
1501.698041863101 2615.456786526881
1502.4799341093094 2580.931505132381
1503.2616361712662 2526.970212879437
1504.043148100087 2825.2940446373223
1504.8244699468742 2855.9890500497977
1505.6056017626997 2635.844543848151
1506.3865435986281 2559.4719752863452
1507.1672955056893 2779.8852385469627
1507.9478575348967 2572.6282979859816
1508.7282297372512 2925.37248496157
1509.5084121637192 2790.365387089435
1510.2884048652577 2756.092751170034
1511.0682078927948 2635.39963585728
1511.8478212972423 2658.633152661013
1512.6272451294917 2605.6977330030413
1513.4064794404076 2847.043561922983
1514.1855242808433 2782.086866484145
1514.9643797016215 2700.5089140382875
1515.743045753552 2809.8110177708263
1516.5215224874191 2751.9293246763373
1517.2998099539836 2549.2459549251716
1518.077908203999 2724.7731088593164
1518.8558172881785 2625.855705457693
1519.633537257234 2789.2266778524404
1520.4110681618404 2810.1808460182847
1521.1884100526604 2768.9871442761005
1521.9655629803365 2645.876682502899
1522.7425269954856 2931.81163519986
1523.5193021487103 3002.055573840959
1524.2958884905856 2581.609945708404
1525.0722860716687 2663.8462394675876
1525.848494942502 2604.4258221288883
1526.624515153595 2679.338188072975
1527.4003467554485 2713.162406304027
1528.175989798534 2951.762372910985
1528.9514443333064 2736.5916978297855
1529.726710410203 3025.344345900242
1530.5017880796331 2571.442614895982
1531.276677391992 2627.9705283403036
1532.0513783976457 2897.962145263286
1532.825891146953 2718.8494278048047
1533.6002156902414 2782.1905796969404
1534.3743520778207 2719.5121059953717
1535.1483003599806 2768.690183093963
1535.9220605869923 2795.7249830895653
1536.6956328091019 2782.0555851224044
1537.4690170765407 2662.59214783193
1538.242213439511 2836.995226284069
1539.015221948208 2686.034405762236
1539.78804265279 2726.1692989490048
1540.560675603405 2554.419555137497
1541.3331208501804 2930.3239934403205
1542.1053784432224 2889.564532506637
1542.8774484326168 2795.63967644716
1543.649330868422 2826.7713492852813
1544.4210258006842 2703.8385399688295
1545.1925332794308 2811.757395756591
1545.9638533546604 2738.219610645669
1546.7349860763552 2616.6343196959538
1547.5059314944829 3101.9513190069997
1548.27668965898 2811.75874790321
1549.0472606197673 2810.081469574789
1549.817644426752 2677.9021194692928
1550.5878411298072 2923.5377930650825
1551.3578507787988 2819.4030052375538
1552.1276734235635 2596.745248823084
1552.8973091139233 2779.27628467835
1553.6667578996767 2933.1521846641344
1554.436019830604 2753.506101182683
1555.20509495646 2716.8364739476506
1555.9739833269869 2649.007323837955
1556.7426849919011 2611.897933431584
1557.511200000903 2966.4029996902996
1558.2795284036674 2859.394142215178
1559.0476702498509 2684.942290270091
1559.8156255890954 2958.6923686328364
1560.5833944710157 3203.694000345953
1561.3509769452048 2755.67938640147
1562.1183730612447 2841.799164491386
1562.8855828686865 2710.734654113009
1563.6526064170703 3108.840961972843
1564.4194437559127 2910.6116058058287
1565.1860949347047 2724.8205786103285
1565.9525600029283 3062.4957927979403
1566.7188390100328 3157.1540373587072
1567.4849320054564 2703.239305607822
1568.250839038612 2654.518863676162
1569.0165601588997 2801.7851266648695
1569.7820954156887 2868.8900945961427
1570.5474448583373 2752.2339403067704
1571.31260853618 2728.512135753034
1572.0775864985299 2611.4564737845226
1572.8423787946813 2922.989740509898
1573.6069854739108 2626.9858657606096
1574.371406585471 2877.4701215130053
1575.1356421785986 2936.3628030227187
1575.899692302506 2776.030533465728
1576.6635570063845 2886.6641993400644
1577.4272363394157 2751.0679994653465
1578.190730350747 2708.670892149079
1578.9540390895163 2844.129195593071
1579.7171626048384 2486.323622066241
1580.480100945806 2685.9909914260556
1581.2428541614918 2729.397786744924
1582.0054223009538 2796.010753194525
1582.767805413223 2764.440574853725
1583.5300035473156 2823.338275118903
1584.292016752228 2959.8888059057267
1585.0538450769309 2911.9523500370474
1585.8154885703807 2611.8645578153983
1586.5769472815136 2601.602667080779
1587.3382212592405 2770.306113188294
1588.099310552463 2913.0441510690025
1588.8602152100484 2980.5454749674777
1589.6209352808564 2897.7744409202046
1590.3814708137234 2818.2059195876636
1591.14182185746 2824.664383690363
1591.9019884608679 2661.3540392416476
1592.6619706727215 2586.691872660337
1593.4217685417734 2756.3328784386704
1594.1813821167616 2915.606684547661
1594.9408114464022 2487.9734265833245
1595.7000565793933 2801.6897697829386
1596.459117564409 2843.6944386785126
1597.2179944501113 2680.9154808941703
1597.9766872851324 2644.3189592667886
1598.735196118092 2849.323702150734
1599.4935209975883 2848.1603880355697
1600.2516619721973 2929.3422871246157
1601.0096190904787 2637.9877992044576
1601.7673924009723 2717.989846181
1602.524981952196 2620.6918983705323
1603.2823877926476 2746.6072215785944
1604.0396099708087 2634.962695948084
1604.7966485351371 2572.2910605228362
1605.5535035340745 2642.7118599786136
1606.3101750160404 2906.54441485106
1607.0666630294363 2589.3329966358096
1607.822967622642 2570.171690115309
1608.5790888440224 2701.2469836576684
1609.3350267419137 2808.946294617197
1610.0907813646445 2659.0910712952723
1610.8463527605145 2684.2458988087574
1611.601740977805 2715.3152108642976
1612.356946064785 2728.910574139961
1613.1119680696902 2457.8553300193025
1613.8668070407512 2671.713641112144
1614.6214630261748 2588.856242482348
1615.375936074137 2839.832923540723
1616.1302262328118 2696.591043968267
1616.8843335503425 2740.352957364235
1617.638258074854 2580.042400575092
1618.391999854457 2803.525135801916
1619.1455589372363 2702.1956646239355
1619.8989353712623 2741.9803727765775
1620.65212920458 2417.9055658537
1621.4051404852235 2637.0077422566765
1622.1579692611976 2670.423890746598
1622.9106155804966 2442.3639728558655
1623.663079491087 2504.603950923486
1624.4153610409248 2711.4652325644975
1625.1674602779385 2546.8608737501163
1625.9193772500403 2510.9018204826534
1626.6711120051277 2793.2935144747826
1627.4226645910676 2685.8173292085517
1628.174035055721 2518.2296579150616
1628.9252234469168 2727.7895797215087
1629.676229812474 2472.1356761489046
1630.4270542001905 2820.8575303928424
1631.1776966578382 2650.623755851758
1631.9281572331747 2600.610782378256
1632.678435973945 2815.8563251425594
1633.4285329278573 2661.4162037588067
1634.1784481426203 2337.2793215752367
1634.9281816659113 2505.9781145260445
1635.677733545388 2777.8749992125186
1636.4271038286934 2501.521663234592
1637.176292563452 2689.192682440348
1637.9252997972635 2640.1196130435114
1638.674125577716 2749.8322752791923
1639.4227699523672 3035.913438938275
1640.171232968767 2431.674283408964
1640.9195146744423 2742.2229952932307
1641.6676151168977 2846.631548393495
1642.4155343436178 2830.0955254092555
1643.1632724020765 2648.145611014291
1643.9108293397167 2613.653737363622
1644.658205203974 2580.8846333513384
1645.4054000422566 2592.956205885969
1646.1524139019566 2604.823356005458
1646.8992468304423 2450.612588734934
1647.6458988750728 2538.513858644645
1648.3923700831765 2530.555610542311
1649.1386605020743 2574.5470125488832
1649.8847701790564 2817.852222817773
1650.6306991614038 2700.67028109122
1651.3764474963682 2757.303661358125
1652.1220152311944 2390.317180891204
1652.867402413096 2823.62486927243
1653.6126090892776 2540.302559724086
1654.3576353069184 2988.6135090915113
1655.1024811131829 2666.8191507857764
1655.8471465552066 2716.819852587741
1656.5916316801213 2759.394484230633
1657.3359365350298 2756.2022505667574
1658.0800611670165 2589.1051000470115
1658.824005623148 2623.841513726413
1659.5677699504722 2520.88197134396
1660.3113541960192 2761.9397054414544
1661.054758406799 2644.94092135161
1661.7979826297997 2441.808836014089
1662.5410269119966 2499.1792929374506
1663.283891300338 2753.8915279226653
1664.0265758417645 2541.2883014421177
1664.7690805831826 2713.010220539917
1665.5114055714948 2762.6141670806023
1666.2535508535748 2982.7195244524905
1666.9955164762814 2362.020942537723
1667.7373024864555 2577.490345916183
1668.478908930916 2632.714675111981
1669.220335856462 2415.83385473244
1669.9615833098778 2511.9294943167015
1670.7026513379296 2443.8282447562406
1671.44353998736 2546.4288047354617
1672.1842493048916 2484.7893256613133
1672.9247793372379 2438.906928533318
1673.6651301310812 2541.5099683606686
1674.4053017330934 2450.3644721756127
1675.1452941899242 2547.1357027180866
1675.885107548207 2056.2356114928484
1676.6247418545518 2231.6399932611716
1677.3641971555535 2373.641500959559
1678.1034734977893 2550.1996050404223
1678.8425709278108 2457.6248048665275
1679.5814894921605 2637.0621319456477
1680.320229237359 2348.456182769169
1681.0587902098978 2578.876893922132
1681.7971724562685 2390.4396776804356
1682.5353760229264 2227.64757513743
1683.2734009563173 2547.6840620113567
1684.0112473028657 2303.2600487651443
1684.7489151089794 2500.3555347212014
1685.4864044210462 2603.148043033975
1686.2237152854377 2071.5331991140274
1686.960847748498 2510.0610158821464
1687.6978018565642 2229.758030514502
1688.434577655944 2163.5814037872824
1689.1711751929379 2201.0816674684183
1689.9075945138156 2245.2211690891077
1690.6438356648396 2228.3949143430636
1691.3798986922448 1868.9309247140106
1692.1157836422499 2175.511353090553
1692.851490561059 2209.2690822787285
1693.587019494853 2248.0045406122463
1694.3223704897991 1942.3266295971175
1695.0575435920364 1972.6174113165757
1695.792538847696 2033.8743374768528
1696.527356302886 2095.1344445246423
1697.2619960036936 1909.738885479177
1697.9964579961907 1964.7841088341913
1698.730742326432 1703.1194998685696
1699.4648490404488 1830.6685293204232
1700.1987781842563 1973.7754686037813
1700.9325298038548 2065.785948955089
1701.6661039452174 2259.8743665065294
1702.3995006543082 2172.5064017312475
1703.1327199770658 2214.342298479299
1703.865761959416 1936.7121683429655
1704.598626647261 2224.988412332586
1705.3313140864866 1922.1354665295694
1706.0638243229587 1971.668736882243
1706.7961574025303 2134.1210533317735
1707.528313371029 2040.7913492754446
1708.260292274268 1882.234968115276
1708.9920941580403 2027.7978492098987
1709.7237190681226 2008.5003217221463
1710.4551670502697 1924.655258139542
1711.18643815022 1709.5514675790887
1711.9175324136959 1861.278397294055
1712.6484498863938 2013.220106871912
1713.379190614005 1774.163629052279
1714.109754642188 2039.6816813849869
1714.8401420165883 1857.0507856262793
1715.570352782839 1941.172523492076
1716.3003869865497 2025.5210760104012
1717.0302446733076 1768.1591706217241
1717.7599258886876 2015.0457808056672
1718.4894306782444 2322.028688293907
1719.2187590875183 2269.515695530393
1719.9479111620203 2216.880456715341
1720.6768869472544 1830.483254916567
1721.4056864887025 2217.668585116001
1722.1343098318284 2192.60860092719
1722.8627570220742 1971.7461772445895
1723.591028104871 1827.0533211519487
1724.3191231256242 1754.938322694886
1725.0470421297232 1924.724962512651
1725.7747851625427 2072.802589151196
1726.5023522694337 2029.6671666505295
1727.2297434957363 2038.3154858145645
1727.9569588867635 1602.9416493015506
1728.6839984878152 2156.4804262742523
1729.4108623441734 1609.8922285916271
1730.1375505011038 2108.449930109565
1730.8640630038426 1828.255664528085
1731.5903998976264 1845.0556089216439
1732.316561227657 1989.309194191627
1733.0425470391274 1799.0773742676058
1733.7683573772065 2006.8714761989675
1734.4939922870508 1810.24497972436
1735.2194518137949 1945.4886035341383
1735.9447360025606 1946.916778069155
1736.669844898439 1889.5078978967074
1737.3947785465189 1770.79386152886
1738.1195369918605 1660.8662608529007
1738.8441202795093 1936.5975975254314
1739.5685284544943 1964.7805289362109
1740.292761561821 1990.5838645731176
1741.0168196464838 1860.0888036774809
1741.7407027534518 2030.560339777006
1742.464410927687 1938.2410579185641
1743.187944214118 1819.007850947272
1743.9113026576688 1946.1771492857272
1744.634486303241 1886.1723643327555
1745.3574951957125 1948.477495638654
1746.0803293799509 2020.2542795411623
1746.8029889008048 1944.3505107298265
1747.5254738031017 1924.6698741788346
1748.2477841316504 1762.171310426094
1748.969919931249 1832.716440386824
1749.6918812466665 1798.1989991905234
1750.4136681226646 2033.0697967969747
1751.1352806039777 1890.9834111787666
1751.856718735331 1521.3235985238557
1752.5779825614281 1624.735456221196
1753.2990721269507 1934.5002099154822
1754.0199874765676 1957.723102701164
1754.7407286549314 1655.9670369212458
1755.4612957066693 1785.6925075870945
1756.1816886763954 1778.0735154394024
1756.9019076087097 1989.880804825871
1757.6219525481865 1914.7163997218827
1758.3418235393856 1921.4090646013071
1759.061520626854 1805.76298033475
1759.7810438551096 2050.301331544335
1760.5003932686614 1667.121552419143
1761.2195689119999 1885.8950871381942
1761.938570829594 1898.587174622505
1762.657399065898 1881.5728557230318
1763.376053665348 1665.1412311747783
1764.0945346723602 1623.8545535645992
1764.812842131334 1643.5991675046403
1765.5309760866512 1663.487961614917
1766.2489365826787 1643.7121456072146
1766.9667236637597 1840.9039830869672
1767.684337374223 1567.957101642443
1768.401777758383 1585.39277487778
1769.1190448605284 1652.7762510107768
1769.836138724937 1623.7161550772205
1770.5530593958665 1750.8585564051332
1771.2698069175603 2011.6744443517698
1771.9863813342326 1880.390898007053
1772.702782690094 1670.7509540976912
1773.4190110293293 1950.4074827513032
1774.1350663961111 1831.8220613781607
1774.8509488345844 1756.7500178579667
1775.5666583888924 1793.2132786305733
1776.2821951031437 1947.0986071241337
1776.9975590214362 1798.905116003861
1777.7127501878585 1915.3815415568283
1778.4277686464684 1863.1360690932354
1779.1426144413108 1953.566327436339
1779.8572876164162 1995.3432023516714
1780.571788215797 1613.4381614523904
1781.2861162834415 1798.217328643792
1782.0002718633277 1620.6300354582831
1782.7142549994132 1912.102626977666
1783.4280657356376 1769.6668016506242
1784.141704115922 1746.2456590730806
1784.855170184177 1704.0914206988048
1785.5684639842839 1872.6335444710162
1786.2815855601148 1816.1708180216988
1786.9945349555237 1759.6141518574302
1787.707312214343 1605.4673699620369
1788.4199173803918 1581.2531061301825
1789.132350497468 1557.1346135223603
1789.8446116093583 1734.872422144661
1790.556700759822 1666.014994818698
1791.2686179926077 1656.474662862338
1791.9803633514493 1726.7740808874628
1792.6919368800554 1563.9713784711478
1793.4033386221236 1843.2752065343034
1794.1145686213295 1789.6831479366442
1794.8256269213307 1971.5762558778886
1795.536513565774 1820.4873463776214
1796.247228598284 1413.272059036432
1796.9577720624693 1669.9882351416036
1797.6681440019165 1734.9625262454792
1798.3783444602013 1749.026985637513
1799.0883734808776 1949.084189029884
1799.7982311074884 1815.715905854843
1800.5079173835475 1799.099816219105
1801.2174323525633 1925.1130716678454
1801.9267760580187 1586.2518713374657
1802.635948543386 1737.7275362682917
1803.3449498521113 1566.0112471939776
1804.0537800276325 1814.3894343133657
1804.7624391133668 1711.1855546420963
1805.47092715271 1488.5704246229589
1806.1792441890484 1633.7899963298191
1806.8873902657433 1908.6612064623455
1807.5953654261448 1763.0661424814257
1808.3031697135812 1600.6738783603264
1809.0108031713662 1657.5222749423422
1809.71826584279 1718.5737600709494
1810.425557771141 1818.7708260239528
1811.1326789996747 1756.9803213233997
1811.839629571632 1695.0221819670558
1812.5464095302468 1699.200296422668
1813.2530189187182 1713.3191155122854
1813.959457780249 1675.6567093731403
1814.6657261580076 1891.763481000177
1815.371824095153 1715.475210434583
1816.0777516348262 1511.9131722433517
1816.78350882015 1648.0635623035355
1817.4890956942272 1467.8020651812308
1818.1945123001533 1676.1501699848118
1818.8997586809928 1708.9062607257088
1819.6048348798067 1536.4282251808875
1820.3097409396287 1772.829202629242
1821.0144769034796 2010.2534125703853
1821.7190428143622 1841.6653763341903
1822.423438715261 1907.0353023264136
1823.1276646491478 1720.4217541573478
1823.8317206589727 1678.9236211141033
1824.5356067876692 1719.6786503293
1825.2393230781581 1699.062407915822
1825.942869573335 1343.0246611052166
1826.646246316086 1455.97440679289
1827.3494533492758 1842.2907431805713
1828.052490715756 1686.2810693411225
1828.7553584583547 1670.7413172374188
1829.458056619891 1832.821402223231
1830.1605852431585 1595.1725267236784
1830.8629443709433 1497.231040276458
1831.5651340460063 1543.362877680933
1832.2671543110919 1507.8544706219805
1832.9690052089318 1688.3170705627297
1833.6706867822395 1410.8565178168838
1834.3721990737104 1713.3614177042382
1835.0735421260233 1803.5568269469593
1835.774715981841 1699.6265819944008
1836.4757206838058 1634.8075316612733
1837.1765562745459 1570.2475614786974
1837.8772227966747 1535.6864354449406
1838.5777202927839 1690.5209238050222
1839.2780488054523 1464.8232162110346
1839.9782083772352 1518.9754041097922
1840.6781990506806 1854.880609958052
1841.378020868313 1614.2362286413058
1842.0776738726418 1648.7856383217854
1842.777158106157 1559.3941741975764
1843.4764736113375 1498.4404724042447
1844.1756204306403 1693.7202997471838
1844.8745986065078 1673.730064467909
1845.5734081813607 1499.7368103921524
1846.2720491976124 1593.6416878916757
1846.970521697649 1453.4088505889843
1847.6688257238511 1673.6355343740402
1848.3669613185684 1681.702334336414
1849.0649285241452 1354.8500802827093
1849.7627273829057 1671.9707106722794
1850.460357937156 1652.7134026520484
1851.1578202291857 1344.339851882827
1851.8551143012664 1656.4574862664547
1852.5522401956569 1623.5398584133036
1853.2491979545957 1538.4419137753866
1853.9459876203055 1453.6074556828894
1854.6426092349902 1474.0761395357617
1855.3390628408451 1539.5965342019713
1856.0353484800362 1845.1908402716986
1856.7314661947203 1687.7029849768878
1857.4274160270397 1459.1754587827052
1858.123198019115 1628.9561441504477
1858.8188122130487 1393.1204427510172
1859.5142586509319 1604.6795572984388
1860.209537374838 1534.8539569015752
1860.9046484268183 1559.4544080114194
1861.599591848917 1781.132199639338
1862.294367683151 1467.102668556953
1862.988975971528 1581.1893900377393
1863.6834167560355 1571.0110598259275
1864.3776900786452 1741.0240052557278
1865.0717959813119 1460.846642386469
1865.7657345059724 1379.9443807470857
1866.4595056945564 1647.9634803669983
1867.1531095889586 1695.5296825477478
1867.846546231076 1421.6329970852246
1868.5398156627743 1777.9471090504856
1869.2329179259123 1564.1290018230402
1869.9258530623283 1752.9740854932868
1870.618621113843 1392.2907136691965
1871.3112221222636 1335.4982529233625
1872.0036561293764 1506.9292906531134
1872.695923176956 1661.0101981506082
1873.3880233067594 1740.5394613780131
1874.0799565605212 1424.070091008221
1874.7717229799673 1544.0946451219465
1875.4633226068036 1867.9967397696084
1876.1547554827175 1735.3882401883566
1876.8460216493859 1370.3227872287916
1877.5371211484617 1542.8972789409052
1878.2280540215852 1477.8049705996614
1878.9188203103804 1412.5855170931877
1879.6094200564548 1601.5049368934756
1880.299853301396 1443.1512314248853
1880.9901200867826 1699.7768871959197
1881.6802204541673 1551.874890715684
1882.3701544450942 1551.2329172227262
1883.059922101087 1360.274285508338
1883.7495234636517 1458.2188429124374
1884.4389585742792 1556.2746335942682
1885.1282274744517 1420.9895152262116
1885.8173302056166 1518.6779260245012
1886.506266809225 1616.499067795196
1887.195037326701 1417.6025761409214
1887.8836417994517 1487.388576397968
1888.5720802688702 1799.6108692082423
1889.260352776333 1694.4752063121255
1889.9484593632042 1732.4941830910225
1890.63640007082 1504.447653646545
1891.3241749405151 1389.9685189296108
1892.0117840135954 1625.4013162396775
1892.6992273313572 1559.3779941003345
1893.3865049350788 1335.885781712685
1894.0736168660223 1446.7479811129701
1894.7605631654333 1557.7335643600495
1895.4473438745408 1266.872980219757
1896.133959034556 1441.326279336873
1896.820408686679 1615.9372118899973
1897.506692872088 1753.235556973957
1898.192811631945 1612.4033416440052
1898.8787650073991 1584.4205623939104
1899.5645530395832 1629.7222435001638
1900.2501757696118 1595.5185646717225
1900.9356332385796 1421.884900199993
1901.620925487574 1498.7512547216022
1902.3060525576602 1575.867948655545
1902.9910144898859 1769.041708235105
1903.6758113252872 1457.1998290249287
1904.3604431048789 1633.5194156180576
1905.0449098696663 1706.3897913246135
1905.7292116606295 1565.9830004014552
1906.4133485187394 1574.1076477753818
1907.0973204849488 1210.1496142650908
1907.7811276001976 1329.4994695701926
1908.4647699053967 1545.2464345176945
1909.1482474414588 1495.8910558570556
1909.8315602492694 1446.366916297336
1910.5147083696957 1770.1253834715976
1911.1976918436012 1415.7703030268153
1911.880510711815 1427.9293245313313
1912.5631650151681 1383.8723809947244
1913.2456547944657 1339.7127614528267
1913.927980090495 1464.2354490397354
1914.6101409440362 1381.2920944436464
1915.2921373958416 1619.6299861207603
1915.9739694866603 1538.567005806217
1916.655637257214 1800.545286895526
1917.3371407482136 1593.6520024216902
1918.0184800003572 1725.4573228151694
1918.6996550543154 1783.2559378070996
1919.3806659507554 1651.828498383337
1920.0615127303208 1617.6012933731845
1920.7421954336423 1755.0659323617424
1921.4227141013343 1610.1309465363381
1922.103068773993 1571.0022263894984
1922.783259492202 1707.6645667886637
1923.4632862965227 1556.934025391221
1924.1431492275078 1345.560670069027
1924.8228483256917 1365.1119055948257
1925.5023836315922 1563.8269870003728
1926.1817551857057 1655.0981145081041
1926.8609630285227 1746.5800332329152
1927.5400072005123 1628.3975390462285
1928.218887742125 1390.315267609593
1928.8976046938005 1304.551677309973
1929.5761580959588 1722.2191772086549
1930.2545479890086 1574.8727415577214
1930.9327744133352 1283.4867641010496
1931.6108374093164 1472.2400309677869
1932.2887370173066 1313.3746927449818
1932.9664732776473 1710.9992023729537
1933.6440462306673 1548.1737531906656
1934.3214559166754 1523.3954070695409
1934.9987023759659 1771.0153385522008
1935.675785648813 1566.3770545493885
1936.3527057754836 1136.5975707053703
1937.029462796223 1230.8104557355607
1937.70605675126 1325.253092505623
1938.3824876808085 1223.9840356534728
1939.058755625072 1541.5246258024602
1939.7348606242267 1349.751619886642
1940.4108027184448 1553.6578120562015
1941.0865819478713 1581.249494295423
1941.7621983526478 1488.3539692139607
1942.4376519728921 1270.7205022558483
1943.1129428487038 1550.213041587598
1943.7880710201734 1645.0315474868664
1944.4630365273733 1671.7830346004707
1945.1378394103576 1281.055516854734
1945.8124797091714 1261.1644474812033
1946.4869574638324 1241.1897806992158
1947.161272714353 1416.9854277825978
1947.8354255007234 1583.417944411321
1948.5094158629272 1527.8268749888382
1949.1832438409183 1568.8618846039521
1949.8569094746435 1668.0614400928018
1950.530412804037 1838.1797694100546
1951.2037538690092 1681.7115120928943
1951.8769327094578 1379.3176466299312
1952.5499493652678 1438.7952342503847
1953.222803876306 1633.4833505748834
1953.895496282421 1655.173960485951
1954.5680266234522 1495.6643360483513
1955.2403949392155 1544.4229632461952
1955.9126012695142 1305.520696781521
1956.5846456541403 1433.202391158437
1957.2565281328643 1430.2244245249485
1957.9282487454457 1633.4538287307962
1958.5998075316202 1640.4988258661465
1959.27120453112 1439.1926104802292
1959.9424397836501 1449.151335043442
1960.613513328908 1815.9069486920193
1961.2844252065697 1765.3758587081652
1961.9551754563017 1338.7387216175384
1962.6257641177453 1390.802566992558
1963.29619123054 1257.0758730544012
1963.966456834296 1319.8430856454104
1964.6365609686181 1261.572932104322
1965.306503673086 1521.2847098852951
1965.976284987275 1320.1036880389497
1966.645904950734 1398.653195467874
1967.315363603002 1232.6286253078383
1967.9846609836077 1425.5634938942826
1968.6537971320486 1392.5394834206695
1969.3227720878222 1550.990974210464
1969.9915858904042 1428.013142426526
1970.660238579252 1638.9483070221042
1971.3287301938108 1385.565368675936
1971.997060773514 1366.46892917533
1972.665230357772 1252.520741945223
1973.3332389859843 1334.6365709954987
1974.0010866975335 1284.1940480633264
1974.6687735317864 1465.8441342103752
1975.3362995280932 1552.5001175010252
1976.003664725793 1580.6110247449856
1976.6708691642052 1496.291805969383
1977.3379128826364 1411.7314868221079
1978.004795920373 1568.9151093704238
1978.6715183166925 1311.7888093212457
1979.3380801108524 1604.598246235666
1980.0044813420973 1423.0345679393997
1980.6707220496555 1017.7614415589176
1981.3368022727373 1481.941629618539
1982.0027220505417 1549.124753340051
1982.66848142225 1369.421948423082
1983.3340804270283 1189.473249960753
1983.999519104027 1421.2259102377507
1984.6647974923835 1388.5480101335324
1985.329915631215 1574.7646145142935
1985.99487355963 1414.4199277982884
1986.6596713167146 1594.8733513144564
1987.3243089415428 1360.5864707443802
1987.9887864731754 1681.3432552099744
1988.6531039506553 1194.41114084438
1989.3172614130071 1249.459930614186
1989.9812588992481 1304.62343049519
1990.645096448372 1156.0597093835888
1991.3087740993633 1316.0806586503077
1991.9722918911848 1405.467028688523
1992.635649862792 1539.6711028609263
1993.2988480531185 1357.351284405287
1993.9618865010852 1366.3168487277132
1994.6247652455968 1375.3612598309635
1995.287484325545 1225.08911417147
1995.9500437798033 1453.8826836921664
1996.6124436472292 1303.4771530755636
1997.2746839666706 1304.0223476188805
1997.936764776954 1304.5807915718253
1998.598686116895 1342.0118019270767
1999.2604480252903 1729.3116626856245
1999.9220505409212 1602.9106310276443
2000.5834937025593 1195.4584647109493
2001.2447775489582 1367.5228953097217
2001.9059021188514 1469.7661694228232
2002.5668674509616 1344.2067615643055
2003.2276735839987 1365.8806095860493
2003.8883205566508 1299.2177531199827
2004.5488084075987 1232.4198440539055
2005.2091371755014 1418.345455306016
2005.8693068990033 1268.31093398264
2006.5293176167397 1221.697646889355
2007.1891693673224 1175.115229047286
2007.848862189354 1244.752025218509
2008.5083961214223 1286.5978124413577
2009.1677712020955 1347.3462231412193
2009.8269874699254 1202.1930750609347
2010.4860449634598 1774.9758660414543
2011.1449437212177 1191.7748271032
2011.8036837817108 1697.2588921387699
2012.4622651834325 1578.291585388985
2013.1206879648653 1491.5374441849783
2013.7789521644736 1661.794906172113
2014.4370578207036 1546.5619478523786
2015.0950049719922 1430.957630023188
2015.7527936567585 1422.5494519103963
2016.4104239134067 1464.7691927474239
2017.067895780323 1861.4128194705067
2017.725209295886 1755.9797463759053
2018.3823644984514 1650.2103161403982
2019.0393614263648 1476.140524453856
2019.6962001179545 1428.146769809935
2020.3528806115355 1571.7255773045124
2021.0094029454067 1493.8739248175839
2021.6657671578487 1248.166798471871
2022.321973287133 1398.5855979412995
2022.9780213715148 1209.9860738409004
2023.6339114492293 1473.5498099138879
2024.2896435585026 1293.2408320466795
2024.9452177375442 1241.5500145077883
2025.600634024544 1627.3728819660196
2026.2558924576842 1524.334343222986
2026.9109930751292 1565.897811483885
2027.565935915025 1640.1056218145936
2028.2207210155066 1714.5483012924626
2028.8753484146964 1677.2232709014424
2029.529818150695 1632.6276458141315
2030.1841302615903 1587.7821788370316
2030.8382847854573 1278.8612240038055
2031.4922817603601 1465.523671907842
2032.1461212243357 1438.9339947930935
2032.7998032154192 1395.0993841198292
2033.4533277716218 1350.994667582223
2034.1066949309443 1248.9691846172761
2034.7599047313688 1068.5774636190988
2035.4129572108704 1575.6411293936912
2036.0658524074006 1286.0782757843992
2036.7185903589016 1630.9402863644982
2037.3711711032956 1493.27743180665
2038.023594678496 1357.7029541555705
2038.675861122394 1264.0046044189082
2039.3279704728757 1238.8336088645215
2039.9799227678031 1213.719210406608
2040.6317180450278 1346.1081931863478
2041.2833563423865 1363.3852356662824
2041.9348376977014 1696.4718811792768
2042.5861621487784 1573.8855122314965
2043.2373297334088 1431.9454052471767
2043.8883404893695 1470.316583676045
2044.5391944544208 1556.6506199567636
2045.1898916663158 1688.8214861137626
2045.8404321627804 1736.0271645038604
2046.4908159815368 1401.3839172577534
2047.1410431602853 1230.8585965622165
2047.7911137367173 1169.8937156078493
2048.441027748504 1170.4815676609971
2049.090785233302 1171.0263513575078
2049.7403862287592 1347.773331402072
2050.389830772503 1335.4740257624687
2051.0391189021466 1323.2008219376457
2051.688250655294 1493.6467146721457
2052.337226069527 1161.609851111221
2052.986045182417 1575.4731399697034
2053.634708031521 1006.7179185443426
2054.283214654375 1592.6406027061842
2054.931565088511 988.1230984957376
2055.579759371436 1212.5871459252294
2056.2277975406523 1480.321978113775
2056.8756796336384 1289.1297192956376
2057.5234056878617 1097.5151046229278
2058.1709757407752 1087.8367002166062
2058.8183898298194 1550.3134432836746
2059.465647992416 1636.7468505435731
2060.1127502659747 1562.1924410739962
2060.759696687888 1506.262623555487
2061.4064872955405 1450.3350456445864
2062.053122126292 1246.5322411358322
2062.699601217497 1446.8971484291324
2063.345924606485 1180.2355773088939
2063.992092330587 1364.4060667964945
2064.638104427102 1253.7103271591573
2065.283960933324 1385.9128640408585
2065.92966188653 1518.2436873233999
2066.5752073239855 1618.8844258317552
2067.2205972829397 1486.5885436545216
2067.86583180062 1354.1866954981824
2068.5109109142522 1245.5754645428356
2069.15583466104 1420.3140760301062
2069.8006030781708 1213.7085503160813
2070.445216202821 1200.5963501282667
2071.089674072153 1568.179169812154
2071.7339767233116 1649.8587444693735
2072.3781241934303 1324.3190810628164
2073.0221165196253 1463.0767914728115
2073.6659537390024 1225.1446975004787
2074.3096358886505 1240.1107648172422
2074.953163005637 1255.1432301751277
2075.596535127028 1114.0582981265047
2076.2397522898664 1145.6820719420534
2076.882814531182 1487.797580300316
2077.5257218879924 1484.1683130313788
2078.1684743973 1247.6768423263798
2078.8110720960885 1168.1092093462355
2079.453515021336 1356.5755276361356
2080.095803209997 1545.224422946429
2080.7379366990135 1563.300988000955
2081.37991552532 1531.893505324384
2082.0217397258275 1523.4520153138592
2082.6634093374414 1122.3768090319481
2083.3049243970418 1318.853702223169
2083.9462849415067 1573.2911233944346
2084.587491007689 1504.0246356087448
2085.2285426324324 1400.1361632551948
2085.869439852564 1334.2906660041183
2086.510182704902 1219.8016022168474
2087.1507712262483 1335.4588368996606
2087.791205453381 1442.6017053698981
2088.4314854230743 1549.8928334552954
2089.0716111720867 1467.61391336254
2089.7115827371617 1068.1614397169908
2090.351400155023 1162.6534714509162
2090.991063462385 1257.3726024932166
2091.6305726959527 1146.798159686621
2092.2699278924047 1179.446532619767
2092.9091290884153 1212.208671609335
2093.548176320641 1144.5990908476076
2094.187069625721 1478.002782643187
2094.8258090402887 1469.0873419677082
2095.464394600951 1460.1539700318733
2096.102826344313 1452.3773739724152
2096.741104306955 1485.70761953491
2097.379228525453 1246.280098376028
2098.017199036358 1128.7571223814193
2098.6550158762147 1518.94673164906
2099.2926790815527 1487.5703990590105
2099.9301886888825 1492.7177630502624
2100.5675447347076 1320.4895618018459
2101.2047472555114 1476.9531785240097
2101.841796287761 1283.0063654220637
2102.47869186792 1387.578345244911
2103.1154340324265 1191.953073935731
2103.752022817709 1290.7328244515509
2104.388458260184 1196.941796483643
2105.024740396251 1340.0491663561277
2105.660869262292 1219.8944193176578
2106.296844894685 1534.1485511436304
2106.93266732978 1348.2447700081982
2107.5683366039284 1153.5564646108019
2108.2038527534532 1376.6690873297698
2108.8392158146726 1545.1634633520591
2109.4744258238843 1279.199687352809
2110.1094828173755 1401.1284906343228
2110.744386831422 1407.7625745097887
2111.3791379022787 1414.4368833005717
2112.01373606619 1695.2869160904306
2112.648181359389 1514.927781102413
2113.28247381809 1507.2170301907086
2113.916613478492 1498.217529878391
2114.550600376786 1339.813018332226
2115.1844345491445 1285.4694528609384
2115.818116031729 1167.6612300613829
2116.451644860679 1243.1763540618704
2117.085021072133 1120.0630732132497
2117.718244702204 1116.2401461873435
2118.3513157869984 1273.5733550783175
2118.984234362604 1064.4024155459651
2119.617000465092 1242.6561510777333
2120.249614130529 1310.3620207119748
2120.8820753949585 1378.1770158597537
2121.5143842944162 1151.2154408478125
2122.14654086492 1227.1143934267197
2122.7785451424734 1598.1486630779114
2123.4103971630702 1512.5868730635516
2124.042096962681 1426.9925445790682
2124.6736445772767 1520.111249603336
2125.305040042802 1283.8671754190007
2125.936283395191 1301.6882529808038
2126.567374670365 1443.298026879877
2127.198313904233 1313.6630747849372
2127.8291011326855 1230.107733258577
2128.4597363916037 1146.2313981720554
2129.0902197168507 1249.182872754685
2129.720551144279 1539.4482579325058
2130.3507307097225 1830.0304694570048
2130.980758449008 1656.7750297424107
2131.6106343979427 1579.8337718029243
2132.2403585923203 1502.724093714543
2132.8699310679276 1713.1339602547282
2133.499351860526 1444.2733938430424
2134.1286210058715 1173.905608954104
2134.7577385397053 1391.3506684062365
2135.3867044977487 1609.0937664905532
2136.0155189157176 1652.637977768807
2136.644181829308 1566.1240690105485
2137.2726932742025 1292.8713579789553
2137.901053286074 1223.053670889435
2138.5292619005777 1153.1730083954242
2139.1573191533535 1276.0420583890952
2139.7852250800315 1257.0738517566492
2140.4129797162295 1616.91805568006
2141.0405830975433 1192.647557219954
2141.6680352595613 1147.1279524684073
2142.2953362378576 1101.5341846367237
2142.9224860679915 1298.4295224542532
2143.549484785508 1194.7375036486915
2144.1763324259373 1261.723439024027
2144.803029024799 1197.0301943554398
2145.429574617594 1184.1531096138444
2146.0559692398165 1347.594565731533
2146.682212926942 1166.9673148938439
2147.308305714432 1277.0547938633686
2147.9342476377333 1478.7764135117372
2148.5600387322847 1418.5586629336312
2149.185679033506 1358.2982138610078
2149.8111685768017 1219.0468580303345
2150.4365073975678 1276.0751222793301
2151.061695531187 1214.6453274344497
2151.686733013021 1512.183495504811
2152.311619878423 1348.7794258142083
2152.9363561627342 1297.7032146912625
2153.560941901278 1213.1562688131605
2154.1853771293663 1369.462775702718
2154.809661882293 1383.3941463764518
2155.433796195348 1217.9801667230015
2156.0577801037944 1719.8461025590743
2156.681613642895 1575.9609074238501
2157.3052968478896 1242.1475821628974
2157.928829754006 1520.524694072293
2158.552212396462 1541.727908286153
2159.1754448104566 1501.2452759092953
2159.7985270311783 1172.2375596561105
2160.4214590938027 872.5974749658096
2161.0442410334927 980.3734679417082
2161.6668728853874 1034.1617451113596
2162.289354684628 1088.0910006416184
2162.911686466332 1279.2790587063091
2163.533868265602 1433.235762884343
2164.1559001175337 1429.9328382951903
2164.7777820572046 1426.5632814118078
2165.399514119681 1548.4149925866946
2166.021096340013 1094.8963518165028
2166.6425287532384 1104.2189696866892
2167.263811394385 1113.6205667347308
2167.8849442984574 1410.344563470736
2168.505927500455 1231.8725617676714
2169.126761035366 1574.004555667395
2169.7474449381552 1259.6683802456791
2170.367979243778 1313.0351631168137
2170.9883639871823 1366.6020729542329
2171.608599203293 1180.8184834508784
2172.2286849270276 1447.8945427439348
2172.8486211932886 1715.6392002145208
2173.4684080369625 1459.604307706988
2174.0880454929265 989.1384355825749
2174.7075335960417 977.1604597854997
2175.3268723811543 959.20186603157
2175.9460618831 941.2121598431471
2176.565102136701 1214.245345126669
2177.1839931767627 1237.0821860274038
2177.802735038078 1259.9971483944662
2178.421327755432 1048.6742820132997
2179.0397713635866 1099.3686913711292
2179.658065897298 1271.6091452960006
2180.276211391305 1378.7390200896107
2180.8942078803357 1175.6663943071444
2181.5120553991 1388.628389724626
2182.129753982299 1327.8231132291774
2182.7473036646206 1266.8882111107278
2183.3647044807367 1284.4674316748055
2183.9819564653044 1311.55530603605
2184.599059652968 1338.7539766239004
2185.216014078367 1335.0123875509655
2185.832819776113 1098.9494764479296
2186.4494767808137 1167.8243201029914
2187.065985127063 1236.752004908226
2187.682344849436 1099.7699614706366
2188.298555982501 1176.0082915223477
2188.9146185608097 1252.3029796156256
2189.530532618901 1505.9415472002274
2190.1462981912937 1405.208795596024
2190.761915312507 1415.9136265231093
2191.377384017036 1340.9114650237257
2191.9927043393654 1275.3759305010092
2192.6078763139667 928.7272714114179
2193.2228999753006 1075.7795710577589
2193.837775357808 1223.1478702090205
2194.452502495922 979.4491244214918
2195.0670814240602 1340.7078778640257
2195.6815121766285 1004.7467716132896
2196.2957947880186 1005.7581460056545
2196.9099292926057 1006.7750626419022
2197.523915724758 1284.2623106244012
2198.137754118825 1229.1753456446927
2198.7514445091456 1582.0119448741407
2199.3649869300443 1710.7783641934627
2199.9783814158327 1839.9173804034642
2200.5916280008096 1752.2543093763165
2201.2047267192593 1513.4499552207249
2201.8176776054515 1261.5854408786504
2202.430480693649 1390.2416660037134
2203.0431360180955 1519.2476632153791
2203.6556436130195 1386.2108254619031
2204.268003512645 866.7246739599055
2204.8802157511727 1177.839280554798
2205.492280362796 1245.2451340481848
2206.1041973816937 1312.8780147987186
2206.715966842032 1309.197969729803
2207.3275887779655 1528.6891506255636
2207.93906322363 1302.9501503114593
2208.550390213153 1442.434160761906
2209.1615697806465 1360.761698848703
2209.7726019602105 1297.0608566899734
2210.3834867859277 1276.7921171103208
2210.9942242918787 1256.3235392951744
2211.6048145121167 1217.347814629313
2212.2152574806914 1976.7597775810184
2212.825553231638 1091.129429184081
2213.435701798975 1878.1490285946027
2214.045703216707 1416.448881485509
2214.655557518832 911.8292736722688
2215.2652647393297 1016.1356178718419
2215.874824912169 1092.4073365075437
2216.4842380713 1168.9754050692889
2217.09350425067 998.2892252251488
2217.7026234842033 1278.0231528273512
2218.311595805819 1558.4469285988203
2218.9204212494133 1281.8896969843977
2219.52909984888 1427.7322879127219
2220.137631638092 929.8200234224998
2220.7460166509154 1037.4727230385372
2221.354254921198 1145.2876074684525
2221.9623464827764 1396.0783174214698
2222.5702913694713 1202.0059343664618
2223.178089615096 1195.2160968664173
2223.7857412534486 1188.4139952191204
2224.39324631831 956.1490466148196
2225.000604843457 1143.0068726012817
2225.607816862641 1360.4487817717113
2226.214882409611 1529.069341874993
2226.8218015180973 1608.2381945270006
2227.4285742218217 1334.511378064946
2228.0352005544864 1345.4362819365952
2228.6416805497847 1102.930125929286
2229.248014241399 1351.2288837894198
2229.8542016629945 1021.4753335860296
2230.460242848223 1341.0787483407753
2231.0661378307304 1291.7919524397187
2231.671886644139 1242.4832952010433
2232.277489322065 954.1476822752636
2232.8829458981127 851.5411490417324
2233.48825640587 1204.1285104054805
2234.0934208789095 1400.6998213430281
2234.6984393507955 1597.5547235337121
2235.3033118550793 1483.5135993577674
2235.9080384252975 1290.5901419713841
2236.5126190949723 917.8663764510284
2237.1170538976166 1171.3516250971645
2237.721342866729 1208.1318853422167
2238.32548603579 1244.9741744173812
2238.9294834382763 1434.9090949246597
2239.533335107646 1323.187866842793
2240.1370410773434 1302.222696652349
2240.740601380803 1295.166373989744
2241.3440160514474 1288.1118431349369
2241.9472851226783 1386.2013589255325
2242.550408627896 1434.4414046763704
2243.1533866004793 1591.7767043015424
2243.756219073799 1332.2330356457398
2244.3589060812064 1216.8443080719435
2244.961447656049 1175.107877335816
2245.5638438316564 1257.4817630907874
2246.166094641343 1391.8249290834162
2246.7682001184166 1122.1693050754961
2247.3701602961664 1179.6093913484879
2247.971975207871 1470.1290309442338
2248.5736448867974 1474.5273822375227
2249.175169366197 1371.8320443330383
2249.7765486793123 1268.8726718170637
2250.3777828593684 1478.3810347773563
2250.9788719395783 1366.21415452384
2251.579815953146 1368.6402429497343
2252.1806149332606 1184.4759636658773
2252.781268913097 1246.4219149407206
2253.381777925817 1126.154354991501
2253.9821420045737 1313.7093662187383
2254.5823611825035 1419.2438279606229
2255.1824354927303 1185.1510193857666
2255.782364968365 1164.2327811822372
2256.38214964251 1143.3218671062998
2256.9817895482483 944.6626407489384
2257.5812847186553 1076.0031495168191
2258.180635186791 1006.2616686004436
2258.779840985704 977.0385415223043
2259.37890214843 1120.8686661741026
2259.97781870799 1284.5527915924058
2260.5765906973957 1448.5401574739465
2261.175218149645 1431.727274986179
2261.773701097718 1173.1976930276442
2262.3720395745895 1335.948396979064
2262.970233613216 1150.9530984478058
2263.568283246548 1236.6410391625134
2264.1661885075137 1143.6127685294796
2264.763949429038 895.7515422314412
2265.3615660440246 1365.2326029062056
2265.959038385374 945.5873799336447
2266.5563664859637 1569.269537979569
2267.153550378669 1079.3024021412693
2267.7505900963424 1571.799582345289
2268.3474856718312 1218.2923006851292
2268.9442371379664 1105.1216366029378
2269.5408445275643 1049.7837664925296
2270.1373078734377 1273.9904100097658
2270.7336272083758 1241.696039507708
2271.32980256516 1270.5732968812374
2271.925833976562 1406.7784148961114
2272.5217214753357 1265.5017597386502
2273.117465094223 1123.916594055318
2273.7130648659586 1172.6804802265485
2274.308520823257 1241.5395534820962
2274.903832998827 1452.2498882639825
2275.4990014253563 1154.5204803248885
2276.094026135528 1427.2544557399692
2276.6889071620117 1043.9046425851025
2277.2836445374614 1162.322302292201
2277.878238294519 1342.7730364033596
2278.472688465812 1098.354250902277
2279.066995083962 853.5291616328319
2279.6611581815705 1288.4021726698725
2280.255177791232 1117.0904268300014
2280.8490539455233 1308.2534032967164
2281.442786677013 1499.8107735819642
2282.0363760182554 1550.988850049556
2282.6298220017943 1223.8772930644357
2283.223124660155 1627.4533661589478
2283.816284025859 1203.1176415392993
2284.4093001314086 1582.6968853256506
2285.002173009292 1104.2238148417387
2285.5949026919952 1279.3993806680814
2286.1874892119777 986.0445075093687
2286.7799326016993 1332.544494438144
2287.3722328936 975.6074258229776
2287.964390120109 864.8687078026572
2288.556404313642 1441.9736675721392
2289.1482755066027 1444.772943066642
2289.7400037313873 1400.1969298601764
2290.3315890203703 1420.2385469729034
2290.9230314059205 1440.3237100375038
2291.5143309203904 1392.5014852514994
2292.1054875961236 1107.3008489842289
2292.6965014654506 1692.7959978578833
2293.287372560684 1004.7987563530478
2293.878100914131 1032.0422691972994
2294.468686558086 1059.3771935812088
2295.059129524827 1275.2793162613573
2295.649429846617 1419.9886786874501
2296.239587555716 1278.0395411131833
2296.8296026843636 1253.8074322346613
2297.419475264791 1204.7005435411897
2298.0092053292137 1155.4274342163799
2298.598792909839 1425.193374044706
2299.1882380388597 1261.3671585039494
2299.777540748455 1247.8354704224516
2300.3667010707904 1234.2056506721262
2300.9557190380256 1656.8656878434772
2301.544594682302 1326.29560246747
2302.1333280357503 1546.224371672666
2302.721919130485 1216.0444275950574
2303.3103679986198 1617.153706697335
2303.898674672242 1672.9995697764575
2304.486839183437 1522.1977573526501
2305.0748615642697 1371.3105571981514
2305.6627418468015 1137.1588708663307
2306.2504800630704 1151.345568329805
2306.8380762451143 1348.3427033550474
2307.425530424949 1339.369663278222
2308.012842634582 1330.365594824531
2308.6000129060103 1680.7701511225223
2309.187041271214 1420.3130164278525
2309.773927762164 1711.4751510940223
2310.3606724108213 1338.1551609373203
2310.9472752491274 1135.9785465285743
2311.5337363090184 1221.4510646361289
2312.120055622414 1307.1449773850873
2312.706233221221 1316.9592491415392
2313.2922691373424 1474.2487492360178
2313.8781634026564 1052.8045075862558
2314.463916049037 1206.8363524044032
2315.049527108342 1313.5313605239303
2315.6349966124235 1321.668572956668
2316.2203245931123 1329.798573673906
2316.8055110822315 1077.179027604776
2317.3905561115935 1146.1205378425075
2317.9754597129977 1178.8212652099637
2318.560221918229 1110.602946917974
2319.1448427590603 1042.2539681951562
2319.729322267256 1091.619185515528
2320.313660474563 1152.7917494405874
2320.8978574127195 1320.6697877445163
2321.481913113452 1489.0579568651815
2322.0658276084705 1110.733875154418
2322.6496009294806 1077.2208756849263
2323.233233108165 1027.7235667362988
2323.8167241762058 978.0669543001337
2324.4000741652617 1152.2154202993192
2324.983283106987 1518.2630325765128
2325.5663510330232 1599.147049289806
2326.1492779749933 1154.6783165472436
2326.7320639645204 1369.8427093148473
2327.3147090332004 1069.0409116330743
2327.897213212629 1187.9829954536779
2328.4795765343843 1306.9984558432136
2329.0617990300307 983.2821636368457
2329.643880731124 1616.4374582363766
2330.22582166921 1150.4260875469777
2330.807621875816 1009.8666928805864
2331.3892813824623 869.1693738526423
2331.9708002206517 939.5265052598419
2332.5521784218818 1084.8073171839665
2333.133416017634 1230.4298532383655
2333.7145130393765 1136.4247497044942
2334.295469518571 1580.614136361317
2334.876285486658 1495.3556831427181
2335.456960975076 1654.0980912093655
2336.037496015242 1813.223982020521
2336.6178906385667 1375.4892772017504
2337.198144876451 1330.8358344816847
2337.778258760278 1136.8497744328422
2338.3582323214214 792.9933071787509
2338.938065591243 1225.459073178199
2339.517758601087 1713.9487226720491
2340.0973113822965 1457.3322917554647
2340.676723966193 1388.1350283707877
2341.255996384094 1325.6685410175
2341.835128667295 1513.6899783753377
2342.4141208470883 1416.6064306961484
2342.992972954751 1373.021376030586
2343.5716850215467 1421.221282063868
2344.1502570787306 705.8859084419428
2344.7286891575386 1210.2899007158305
2345.3069812892045 1811.1450059591575
2345.885133504944 1492.4367323868876
2346.4631458359618 1103.4872075154497
2347.04101831345 1118.1572787519003
2347.6187509685915 1145.0060968794937
2348.196343832553 1100.3416389115514
2348.7737969364935 1050.388924590193
2349.351110311558 1000.3959866363493
2349.9282839888765 920.6557308872867
2350.5053179995757 980.7718259470114
2351.0822123747585 1041.0251218502617
2351.658967145526 988.439971254819
2352.2355823429643 935.8241846841207
2352.812057998144 1329.792963321853
2353.3883941421263 1278.3953223510669
2353.9645908059647 1221.676219591243
2354.540648020693 1279.3073549323956
2355.116565817336 1403.1776644600968
2355.6923442269126 1527.3366104230845
2356.2679832804224 1290.5886161282776
2356.8434830088518 1258.3809541210032
2357.41884344318 1010.1339835061717
2357.994064614377 1017.3336536023465
