#exp_cfg={"servo_angle": 0.0, "laser_lim": 100.0, "servo_angle_to": 18.0, "laser_wup": 0.0, "bt_dev": "EnSpectr-25AE3", "laser_wdn_max": 0.0, "frames": 10.0, "servo_used": 0, "servo_calib_use": 0, "laser_wdn_min": 0.0, "servo_pix_from": 90.0, "cooler_tout": 300.0, "servo_angle_from": 0.0, "servo_calib": "[-1.9174921013161362e-09, 3.9322238269163779e-05, -0.27385609119055809, 653.59552119713567]", "laser_autoctl": 0, "servo_pix_to": 3682.0, "laser_pw": 100.0, "cooler_on": 0, "laser_volt": 4.0, "cooler_autoctl": 0, "cooler_curr": 70.0, "cooler_startup": 10.0, "laser_fixed_pw": 0, "gain": 1.3, "offset": 2.53059635486, "servo_calib_degree": 3.0, "laser_curr": 55.0, "shutter": 8200.0, "servo_calib_step": 1.0, "laser_fixed_curr": 0, "exp": 2000.0, "ccd_volt": 4.7, "bt_addr": "00:06:66:62:5A:E3", "servo_delay": 500.0, "laser_autooff": 1}
#proc_cfg={"flat_auto_wnd": 200.0, "flat_auto_fr": 200.0, "flat_auto_shift": 5.0, "yconv": 1, "flatten": 1, "flatten_strength": 100.0, "xfrom": 300.0, "auto_max_frame": 2000.0, "auto_signal": 48000.0, "flat_auto_tol": 0.1, "autoclip": 1, "xrel_range": 0.0, "flat_auto_to": 4000.0, "intensity_adj": 1.0, "xrel": 7852.0, "rmhot": 1, "flat_auto_slit": 4.999999999999997, "auto_ini_exp": 300.0, "auto_off": 0, "xto": 2860.0, "flat_auto_ref": "", "flat_auto_rank": 1, "autobackg": 0, "xrel_adj": 0.0, "auto_black_lvl": 1, "base_wnd": 100.0, "sub_baseline": 0, "xconv": 2, "auto_max_exp": 1000.0, "auto_total_exp": 10000.0, "auto_exp": 0, "rmripple": 0, "black_lvl": 8275.05, "shutter_clip_adj": 0.0, "auto_bckg": 0, "flat_auto_thr": 0.9, "subbackg": 1}
316.8218498245369 22000.327772215613
317.89969571804795 21786.17845289125
318.977263876126 21768.489865095173
320.05455438786703 21521.765360058704
321.1315673423287 21564.68406230353
322.2083028285215 21546.836629126334
323.2847609354267 21408.381432275415
324.3609417519747 21303.24734796797
325.43684536705587 21148.730110651526
326.5124718695279 21136.844207829145
327.58782134820103 21030.98580085877
328.66289389184385 21124.292025997493
329.7376895891921 20848.419325658433
330.8122085289342 20829.11930185029
331.88645079971866 20834.81639661348
332.9604164901575 20794.372842234698
334.03410568881554 20661.30174624262
335.1075184842266 20785.946957790806
336.18065496487543 20713.003622299406
337.2535152192122 20609.60491111429
338.32609933564163 20614.510999034195
339.39840740253203 20454.699084722044
340.4704395082099 20353.10222152017
341.5421957409617 20368.729918602803
342.6136761890357 20455.55724467098
343.6848809406365 20255.9133491102
344.75581008392874 20093.511889582885
345.82646370703696 20095.298590042716
346.8968418980512 20051.075124562227
347.96694474501055 20129.013803626767
349.0367723359268 20060.11779014262
350.106324758759 20014.466331295327
351.1756021014353 19760.837476449342
352.2446044518383 19761.594784533598
353.31333189781435 19846.682962141982
354.38178452716966 19726.975424901153
355.449962427665 19722.03130301417
356.51786568702846 19625.795357237825
357.58549439294256 19776.41271858234
358.6528486330535 19699.286170526662
359.71992849496564 19549.04878891836
360.7867340662433 19615.242692490574
361.8532654344144 19623.451188053732
362.9195226869597 19622.838919771883
363.9855059113288 19444.654986657184
365.05121519492604 19342.97868652391
366.11665062511565 19627.412053946824
367.1818122892273 19555.180372709903
368.2467002745434 19452.677655398198
369.31131466831175 19562.878270180234
370.375655557742 19550.34147948506
371.4397230299983 19498.348454349838
372.5035171722102 19417.661134899332
373.5670380714637 19392.689354891634
374.6302858148101 19535.18521656542
375.6932604892554 19452.486601434797
376.7559621817709 19423.18119470639
377.81839097928605 19245.218004733946
378.8805469686886 19338.652370313037
379.94243023683157 19427.54556478182
381.0040408705263 19196.28065719525
382.0653789565458 19176.089967027798
383.1264445816196 19215.370080982
384.1872378324406 19090.191182624214
385.2477587956637 19110.639490984267
386.3080075579037 19025.26486037056
387.3679842057336 18866.428283839403
388.4276888256918 18934.685826946516
389.48712150426945 18927.444626756405
390.54628232792857 18881.82618184551
391.6051713830857 18838.81184286729
392.66378875611736 18832.771682400373
393.7221345333637 18738.37706241478
394.7802088011249 18774.631182357083
395.838011645661 18752.17001773257
396.89554315319765 18549.71347133344
397.9528034099112 18550.56076094681
399.00979250194723 18503.54506165759
400.06651051541485 18429.3621999747
401.1229575363741 18428.34733539035
402.17913365085224 18457.328836173285
403.23503894483656 18521.941898531953
404.2906735042761 18355.424785403375
405.3460374150818 18258.10359098155
406.401130763119 18308.210454129745
407.455953634224 18305.695119457283
408.5105061141876 18102.089145318976
409.56478828876243 17953.772902787103
410.6188002436629 18023.96880863139
411.6725420645689 18123.94616476192
412.72601383711117 18029.36700039413
413.77921564689314 18000.373819436292
414.8321475794728 17998.76275181062
415.88480972036814 17802.535983974834
416.93720215506437 17809.669130802307
417.9893249690049 17766.160680006487
419.04117824759123 17578.058614047655
420.09276207619223 17636.40187142238
421.144076540133 17660.109665831387
422.1951217247042 17540.606782651073
423.24589771515275 17548.605975478687
424.2964045966928 17530.726866266425
425.34664245449494 17511.75170341201
426.3966113736933 17482.528456005395
427.4463114393875 17433.259027331052
428.49574273662984 17440.59276819825
429.5449053504417 17246.400624462687
430.5937993658026 17453.729744672135
431.6424248676558 17318.967610646887
432.6907819409007 17298.590342502124
433.73887067040596 17324.393208728514
434.7866911409965 17363.42089649423
435.8342434374608 17309.881565327963
436.88152764455117 17174.910015528378
437.9285438469724 17238.541085822602
438.9752921294057 17186.501178699968
440.02177257648145 17143.105903093165
441.06798527279716 17025.268875684094
442.1139303029122 17254.929297959425
443.1596077513459 17192.585406964718
444.2050177025794 17163.79496937343
445.25016024105753 17206.07217606347
446.2950354511886 17164.49613704485
447.33964341733736 17151.539618833616
448.383984223834 17109.109329506908
449.4280579549686 17023.26552825072
450.471864694995 17115.628657430345
451.5154045281306 17108.389432538384
452.5586775385509 17049.361463243982
453.60168381039693 17123.577549583122
454.64442342776783 17214.34459360858
455.6868964747264 17200.929869144427
456.7291030353008 17119.099805092537
457.77104319347563 17286.17178407628
458.8127170332027 17193.10488875659
459.854124638392 17239.16814513779
460.895266092919 17423.56514780812
461.93614148061897 17422.52790613325
462.97675088529104 17533.82007766452
464.01709439069236 17561.370852853477
465.0571720805492 17448.443050392372
466.0969840385442 17564.0754968122
467.1365303483253 17780.984070592487
468.17581109350067 17651.35044686489
469.2148263576437 17615.628108273435
470.2535762242878 17623.66736908884
471.29206077693016 17798.628631980006
472.33028009902773 17770.81453984815
473.3682342740012 17650.643241680176
474.40592338523857 17660.03127506199
475.4433475160804 17697.566193890318
476.4805067498364 17584.312214595142
477.51740116978 17496.85871001236
478.5540308591426 17610.077314661656
479.59039590112116 17773.78936016951
480.6264963788726 17592.637517304294
481.6623323755193 17839.828492178385
482.6979039741436 17786.384370596315
483.7332112577915 17954.61321849633
484.76825430947247 18015.102731850835
485.80303321215797 18004.834132486776
486.837548048783 18057.49367109218
487.8717989022425 18222.61258517917
488.90578585539697 18140.940957875657
489.9395089910686 18369.73684861771
490.97296839203955 18179.873773957468
492.00616414106116 18057.6915571341
493.0390963208429 18042.837099222037
494.0717650140559 18101.959598768655
495.10417030333883 17841.21402634953
496.1363122712901 17803.18059496961
497.16819100046814 17493.117569504207
498.1998065734024 17474.535890488663
499.2311590725767 17373.051568438706
500.26224858044407 17212.535895910125
501.2930751794156 17106.372798577097
502.3236389518679 17104.90169614608
503.35393998014115 16867.58734277782
504.38397834653733 16842.103615261265
505.4137541333221 16831.049395808957
506.4432674227228 16720.176904642864
507.4725182969323 16597.755817354224
508.5015068381035 16532.494412399195
509.53023312835467 16544.934601830944
510.55869724976765 16395.883361848122
511.58689928438434 16316.188694274777
512.6148393142121 16310.958336012744
513.6425174212218 16427.732450369753
514.6699336873462 16385.33918331333
515.6970881944835 16342.055747704391
516.7239810244901 16170.365378768121
517.7506122591931 16233.178128714659
518.7769819803761 16253.55856849915
519.8030902697901 16320.783983101905
520.8289372091476 16326.706268292424
521.8545228801249 16460.465057265865
522.8798473643619 16225.890205047157
523.9049107434621 16243.26236127447
524.9297130989908 16304.440105535696
525.9542545124805 16309.001201590387
526.9785350654201 16274.466149017471
528.0025548392696 16237.629862955786
529.0263139154504 16214.112998165754
530.0498123753423 16261.591668031126
531.073050300296 16148.779603367777
532.0960277716204 16056.06638811649
533.1187448705896 16124.727940601117
534.1412016784416 16068.438675284802
535.1633982763833 15976.81528109668
536.1853347455726 15864.38622831821
537.2070111671401 15802.093677591558
538.2284276221817 15812.172748621964
539.2495841917516 15721.979775412634
540.2704809568677 15581.319978967327
541.2911179985167 15650.490165915931
542.3114953976419 15582.78892972106
543.3316132351592 15430.94729884179
544.3514715919409 15280.076839787856
545.3710705488247 15348.652317609163
546.3904101866156 15216.037248962946
547.4094905860784 15275.735957625007
548.4283118279418 15240.198255312678
549.4468739929034 15284.743867701869
550.4651771616191 15234.222896870942
551.4832214147063 15091.901300092277
552.501006832761 15191.476524156202
553.5185334963226 15133.383349069705
554.5358014859103 15108.821645490088
555.5528108820035 15174.674460437087
556.5695617650363 15099.191234174266
557.5860542154242 15190.464006844346
558.6022883135283 15078.450665833003
559.6182641396881 15063.468079334207
560.6339817741991 15064.193883265954
561.6494412973225 15103.505437940597
562.6646427892883 15140.509229247182
563.6795863302796 15072.037609329514
564.694272000459 14986.047863803004
565.7086998799423 15091.6169271617
566.7228700488104 14998.51864101101
567.7367825871115 14961.429583172701
568.7504375748576 15077.981175258294
569.7638350920224 15023.120976510763
570.7769752185486 14990.876776125142
571.7898580343353 15031.457859882266
572.802483619258 14942.328329944066
573.8148520531431 15150.163649109041
574.8269634157932 15077.929832125466
575.8388177869692 15106.383765729319
576.8504152463938 15053.556750628137
577.8617558737587 15255.389633930696
578.8728397487175 15012.800147687201
579.883666950891 15139.953518908951
580.8942375598654 15317.299121618687
581.9045516551851 15377.08982791754
582.9146093163617 15605.46052220814
583.924410622878 15428.930027738737
584.9339556541727 15459.062673050754
585.9432444896538 15646.43254590589
586.9522772086875 15511.918589405832
587.9610538906127 15613.578045202326
588.9695746147318 15490.37517970148
589.9778394603054 15566.873624747008
590.985848506567 15531.766581212101
591.9936018327098 15428.855433662113
593.0010995178891 15147.566101688615
594.0083416412344 15413.317174126907
595.0153282818283 15123.16585768134
596.0220595187293 15126.83335885146
597.0285354309508 14990.340417715424
598.0347560974806 14996.144775481376
599.0407215972609 14966.379723049293
600.0464320092051 15033.22369740676
601.0518874121954 15015.388624191211
602.0570878850685 14884.62168562305
603.062033506636 14925.822379798396
604.0667243556636 14903.561841128942
605.0711605108936 14811.523743492227
606.0753420510264 15109.522151971472
607.0792690547278 14948.59071186039
608.082941600629 14970.18528586838
609.0863597673306 14940.78471155743
610.0895236333909 15121.77971705021
611.0924332773357 15208.288420292098
612.0950887776617 15157.577785856196
613.0974902128219 15218.648379243581
614.0996376612384 15442.335753395953
615.1015312013005 15529.147646932028
616.1031709113595 15590.959069055627
617.1045568697336 15565.791559288857
618.1056891547069 15706.029095524369
619.1065678445229 15848.337025063109
620.1071930173985 16221.63248669933
621.1075647515099 16131.251205114273
622.1076831250048 16301.932601978438
623.1075482159849 16506.755625609574
624.1071601025305 16558.931983569837
625.1065188626781 16695.91271567361
626.105624574433 17091.547266573747
627.1044773157682 17022.214532169935
628.1030771646128 17321.197502138555
629.1014241988742 17485.54672617874
630.0995184964158 17670.122369112105
631.0973601350688 17748.793907138348
632.0949491926294 17939.848919249085
633.0922857468631 17667.81573026397
634.089369875499 17759.367672583197
635.0862016562278 17763.620332400045
636.0827811667077 17482.84904589945
637.0791084845641 17524.000167887014
638.0751836873878 17285.36124480265
639.0710068527369 17365.23985255474
640.0665780581294 17136.353347225904
641.0618973810506 16880.240829820144
642.0569648989604 16895.764667477884
643.0517806892676 16569.067369629323
644.0463448293649 16447.572872372955
645.040657396592 16345.801816990901
646.0347184682723 16184.065006496894
647.0285281216875 15939.559699974241
648.0220864340772 15945.161239388462
649.0153934826558 15779.387129644081
650.0084493446047 15729.460609899115
651.0012540970674 15584.913159529804
651.9938078171526 15510.295723919166
652.9861105819346 15468.389696140675
653.9781624684565 15498.318655240553
654.9699635537254 15244.092122722093
655.9615139147136 15234.909506143033
656.9528136283589 15109.04468444482
657.9438627715699 15225.625177421101
658.9346614212154 15084.947235209833
659.925209654135 14832.142148599742
660.9155075471263 14995.153129667626
661.9055551769616 14989.36935903641
662.895352620375 14991.004344697832
663.8848999540678 14896.592763050878
664.8741972547068 14795.571803269713
665.863244598926 14764.211782221977
666.8520420633213 14822.049521582212
667.8405897244611 14759.40372649993
668.8288876588758 14609.50359287504
669.8169359430613 14786.263503612834
670.8047346534822 14742.303143668436
671.7922838665672 14633.362288647846
672.7795836587156 14719.163179040752
673.766634106285 14817.298489544512
674.7534352856092 14498.692927909176
675.7399872729766 14562.28460343814
676.7262901446538 14558.30238893651
677.712343976862 14515.470736020961
678.6981488457986 14608.365002048991
679.6837048276229 14464.997342491104
680.6690119984596 14426.733177989392
681.6540704344043 14380.652508119787
682.6388802115107 14294.019420848617
683.6234414058108 14304.898519331608
684.6077540932874 14211.24246095806
685.591818349907 14158.57245124393
686.575634251587 14112.447594112653
687.5592018742263 14114.17070349029
688.5425212936734 13987.196921363638
689.5255925857564 14135.706470746198
690.5084158262707 14047.486793375827
691.4909910909646 13949.550735699053
692.4733184555644 13765.186547616275
693.4553979957618 13897.739675479384
694.4372297872123 13874.602258426476
695.4188139055404 13738.605278253355
696.4001504263324 13624.020057062295
697.3812394251509 13763.36662264224
698.3620809775111 13691.709419364295
699.3426751589104 13576.926010147852
700.3230220448004 13573.376010851449
701.3031217106054 13663.312363094461
702.2829742317172 13811.178598529372
703.2625796834873 13442.011966307953
704.2419381412474 13386.929714669172
705.22104968028 13536.363846240714
706.1999143758458 13514.3036838051
707.178532303169 13549.165892950803
708.1569035374378 13587.76511666126
709.1350281538107 13537.525328890624
710.1129062274158 13417.450584148051
711.0905378333373 13626.673925573006
712.0679230466376 13562.750346870092
713.0450619423427 13751.817252078163
714.0219545954424 13808.672283767792
714.9986010808989 13583.834969230502
715.9750014736292 13751.301127121502
716.9511558485392 13831.639271873155
717.9270642804786 13947.41667794796
718.9027268442787 13969.734608146668
719.8781436147328 13915.756141764103
720.8533146666014 13925.058880654944
721.828240074612 13879.685893830814
722.8029199134635 13875.28834654398
723.7773542578125 13761.317188445846
724.751543182294 13716.104326875135
725.7254867615029 13770.732469977796
726.6991850700015 13530.028256795875
727.6726381823228 13651.830858138026
728.6458461729599 13582.510504432526
729.6188091163858 13460.46370822209
730.5915270870246 13529.602910921638
731.5640001592856 13298.108049109873
732.536228407529 13450.937245177518
733.5082119060917 13395.390624860913
734.4799507292755 13313.946933694751
735.4514449513481 13414.520674451653
736.4226946465496 13403.75268079487
737.3936998890786 13480.075023218098
738.3644607531078 13303.591740275258
739.3349773127793 13280.338474047589
740.3052496421951 13368.579683559128
741.27527781543 13139.492808569203
742.2450619065221 13083.954275061278
743.2146019894826 13199.183594236838
744.183898138288 13118.031509725444
745.1529504268801 13131.203983636811
746.1217589291682 12881.100683368815
747.0903237190341 12896.565745877446
748.058644870318 12838.711214241182
749.0267224568397 12841.840891222319
749.994556552374 12612.602723161734
750.9621472306771 12766.91082213454
751.9294945654583 12776.240406531662
752.8965986304011 12768.650714989684
753.8634594991636 12697.417654576511
754.8300772453586 12727.191384161082
755.7964519425768 12614.919406170071
756.762583664371 12726.46980983845
757.7284724842611 12702.896528845333
758.6941184757416 12645.651590622942
759.6595217122667 12613.503897416447
760.6246822672638 12649.230088547469
761.5896002141235 12530.497927868902
762.5542756262093 12689.512477598977
763.5187085768503 12680.0573720645
764.4828991393406 12490.266446984677
765.4468473869474 12596.023934473138
766.4105533929032 12497.841675828262
767.3740172304078 12439.89451569671
768.3372389726283 12529.270721241748
769.3002186926988 12301.924745867618
770.2629564637282 12379.842902621367
771.2254523587872 12301.305706011635
772.1877064509154 12213.886343372058
773.1497188131179 12052.000264947786
774.1114895183728 12073.224723643914
775.0730186396268 12049.366401201878
776.0343062497905 12001.339616596659
776.9953524217381 11915.026461673087
777.9561572283274 11979.515868961858
778.9167207423689 11957.39432713691
779.8770430366476 11829.80492513618
780.8371241839159 11889.332499279566
781.7969642568951 11866.982016256303
782.7565633282757 12020.58867100363
783.7159214707099 11806.632630174277
784.6750387568281 11942.724049735898
785.6339152592227 11794.019143237976
786.5925510504512 11785.214351065275
787.5509462030477 11870.330505317832
788.5091007895098 11839.186280536685
789.4670148823006 11752.38280659327
790.4246885538596 11766.020643462445
791.3821218765861 11770.432957691462
792.3393149228505 11618.75895818537
793.2962677649975 11747.27277135453
794.2529804753303 11784.585496244443
795.20945312613 11831.218383417225
796.1656857896378 11608.344269849938
797.1216785380675 11817.850095258738
798.0774314435985 11862.563610391671
799.0329445783846 11936.831345977927
799.9882180145414 11967.838706188026
800.9432518241574 11894.164045458256
801.89804607929 12101.4594037554
802.852600851962 12091.412284804053
803.8069162141637 12108.679301013955
804.760992237856 12204.791415431271
805.714828994971 12352.887177989862
806.6684265574077 12392.600287487432
807.6217849970271 12238.058152529868
808.574904385674 12331.351108771862
809.527784795142 12381.977265352916
810.4804262972102 12385.831157354918
811.4328289636178 12191.483959058316
812.3849928660748 11993.961528467933
813.3369180762638 11996.221719784598
814.2886046658241 12054.013030299331
815.2400527063783 11843.68010404803
816.1912622695108 11740.664729686965
817.1422334267718 11748.951200048421
818.0929662496856 11656.275792972327
819.0434608097457 11419.70235097678
819.9937171784059 11434.054206108698
820.9437354271013 11389.375371827942
821.8935156272255 11416.068107151552
822.8430578501484 11225.187715300424
823.7923621672016 11054.436263568863
824.7414286496896 11043.472898168304
825.6902573688876 11068.994201430134
826.6388483960363 10990.009994684757
827.5872018023492 10937.88467019662
828.5353176590033 11048.187229000745
829.4831960371503 10904.167759399073
830.4308370079016 10881.961140615103
831.3782406423525 10897.117913546059
832.3254070115545 10942.640804010858
833.2723361865319 10737.569204792238
834.2190282382799 10696.72517949778
835.1654832377644 10846.594764084617
836.1117012559116 10741.995390009255
837.0576823636256 10812.252035874244
838.003426631778 10656.19815739853
838.9489341312074 10646.205517306607
839.8942049327197 10768.777246868778
840.8392391070975 10764.579942777458
841.7840367250865 10684.528340056862
842.7285978573982 10519.392883942952
843.672922574724 10706.4836117604
844.6170109477152 10603.2643289097
845.560863046996 10563.865064626541
846.5044789431595 10580.18521321172
847.4478587067697 10546.456242467579
848.3910024083561 10662.220437382024
849.333910118421 10532.027543607826
850.2765819074339 10389.687940590376
851.2190178458332 10582.0373318991
852.161218004032 10550.42957501401
853.1031824524016 10511.807079764434
854.0449112612987 10448.117771841837
854.9864045010327 10573.082195504507
855.9276622418947 10516.408707739483
856.8686845541379 10530.262086079181
857.8094715079915 10504.277957272721
858.7500231736467 10660.534369548619
859.690339621271 10583.970932233171
860.6304209209939 10558.390601550984
861.5702671429244 10443.091112584441
862.5098783571284 10426.495861451178
863.4492546336569 10510.126125778968
864.3883960425155 10433.855112947564
865.3273026536863 10446.41826268422
866.2659745371238 10424.344020004184
867.2044117627465 10619.678572365552
868.1426144004472 10467.832605209302
869.0805825200823 10583.615140124984
870.0183161914847 10618.551807788066
870.9558154844526 10676.465567130497
871.8930804687552 10702.422734623018
872.8301112141307 10579.65397759947
873.7669077902865 10722.69970628065
874.7034702669062 10865.840375399217
875.6397987136315 10729.217220134546
876.5758932000863 10761.120553367537
877.5117537958522 10936.440178853969
878.4473805704911 10831.166044279595
879.3827735935283 10762.774821499608
880.3179329344603 10936.55850357753
881.2528586627541 10971.408009366383
882.1875508478479 10994.162113676957
883.1220095591489 10831.993298615056
884.0562348660296 10788.62174401007
884.9902268378391 11014.751077724752
885.9239855438955 10819.241099074703
886.8575110534839 10641.810090155699
887.7908034358588 10683.002765618
888.7238627602474 10548.034254221011
889.6566890958475 10670.168780644444
890.5892825118208 10431.791116038945
891.5216430773125 10542.500060299908
892.4537708614189 10503.294768234691
893.3856659332196 10339.41726049518
894.3173283617652 10196.85916258912
895.2487582160684 10254.278200040859
896.179955565116 10229.539034139167
897.110920477864 10081.71537940672
898.0416530232451 10109.679171026011
898.9721532701478 10056.143921651788
899.9024212874428 10163.98740978565
900.8324571439662 9936.215501183133
901.7622609085302 9997.610741160463
902.6918326499072 9817.1669105419
903.6211724368477 9933.209460582897
904.5502803380696 10006.391339744216
905.4791564222614 10098.29864236763
906.4078007580792 9884.128244612617
907.3362134141571 9840.760049887753
908.2643944590909 10012.986917328064
909.1923439614493 9705.431183541117
910.1200619897754 9789.661666717406
911.0475486125779 9979.102411558426
911.9748038983344 9819.464434580255
912.9018279155007 9782.199584175614
913.8286207324982 9649.192164223388
914.7551824177117 9797.201189194582
915.6815130395116 9737.832864703372
916.6076126662283 9594.271751381386
917.533481366163 9706.350134607075
918.4591192075914 9725.29608423617
919.3845262587565 9759.110176662643
920.3097025878706 9712.349970772086
921.2346482631237 9576.433374522312
922.1593633526682 9664.909873387114
923.0838479246304 9668.20718525712
924.0081020471061 9780.782952487247
924.9321257881656 9547.542164430506
925.8559192158464 9601.218114813579
926.7794823981512 9571.006595914254
927.7028154030686 9511.160988494963
928.6259182985414 9427.918574767247
929.5487911524906 9664.696011373908
930.4714340328119 9645.293327887794
931.3938470073608 9443.894024927722
932.3160301439748 9413.254156339437
933.2379835104548 9489.401951804462
934.1597071745709 9548.828197948324
935.0812012040769 9489.592372990739
936.002465666681 9624.9781685861
936.9235006300696 9563.550100055381
937.8443061619055 9501.963259966102
938.7648823298077 9428.722334207878
939.6852292013809 9371.364445394185
940.6053468441951 9526.159493374078
941.5252353257874 9334.683646439824
942.4448947136698 9411.110814154932
943.364325075323 9439.593126038286
944.2835264782043 9456.639181501847
945.2024989897309 9429.640555065289
946.1212426773054 9515.851692848732
947.0397576082851 9496.706572313142
947.9580438500125 9637.028189815706
948.8761014697939 9529.43998969723
949.7939305349064 9621.750774832322
950.7115311125999 9328.569059387415
951.6289032700952 9423.373700656459
952.5460470745875 9596.448182765045
953.4629625932339 9417.481410855633
954.3796498931715 9496.272689907437
955.2961090415029 9478.10140816417
956.2123401053068 9539.886516889685
957.1283431516276 9466.659056665396
958.0441182474842 9389.484859702687
958.9596654598663 9627.86385541809
959.8749848557309 9432.452709969122
960.7900765020167 9431.858387357534
961.7049404656209 9308.997481575883
962.6195768134185 9536.776515227819
963.5339856122537 9466.573330319221
964.4481669289453 9546.473230898395
965.3621208302793 9374.858591778619
966.2758473830145 9337.27459537764
967.1893466538822 9657.702232906693
968.1026187095813 9488.72036453836
969.0156636167867 9461.23061402731
969.9284814421426 9487.087386463898
970.8410722522622 9331.307079923095
971.753436113735 9452.968503441154
972.6655730931161 9336.590373025861
973.5774832569368 9503.493794334081
974.4891666716958 9425.168491233484
975.4006234038698 9334.254296209057
976.3118535198955 9318.50644495083
977.2228570861935 9486.588488453497
978.1336341691494 9444.090080768834
979.0441848351202 9326.570006437409
979.9545091504333 9451.644923991205
980.864607181391 9410.927684000386
981.7744789942699 9478.743791194438
982.6841246553086 9486.957505123544
983.5935442307236 9465.31579227844
984.5027377867027 9450.017048104904
985.4117053894024 9427.33126216284
986.3204471049557 9438.52105273115
987.2289629994648 9509.100439297545
988.1372531390007 9514.25163932804
989.0453175896091 9493.792841315288
989.9531564173067 9506.107397298638
990.860769688079 9312.25956615297
991.7681574678918 9478.108788462981
992.6753198226706 9490.164898242982
993.582256818323 9407.95215263202
994.4889685207218 9415.977184432799
995.3954549957143 9657.126758133125
996.301716309119 9647.954977569432
997.2077525267232 9532.108030757403
998.1135637142943 9507.652097173814
999.0191499375615 9593.804284200158
999.924511262232 9648.647218628319
1000.8296477539861 9629.941174257307
1001.7345594784656 9494.936515073683
1002.6392465012996 9502.603013059555
1003.5437088880753 9515.221454644254
1004.4479467043584 9600.772473995386
1005.3519600156869 9369.186664945762
1006.2557488875718 9535.348004780906
1007.1593133854858 9574.593494108385
1008.0626535748888 9425.12214748524
1008.9657695212009 9396.327896126277
1009.8686612898182 9613.089471983096
1010.7713289461135 9484.641288912502
1011.6737725554212 9526.244278359078
1012.5759921830577 9581.550307102316
1013.4779878943027 9518.900689329312
1014.379759754418 9642.316053998924
1015.2813078286254 9446.575787321277
1016.18263218213 9299.28438380074
1017.0837328801026 9393.103392517054
1017.9846099876886 9554.29838841937
1018.8852635700023 9402.010291853087
1019.7856936921362 9190.544703202686
1020.6859004191447 9450.877559976489
1021.5858838160675 9335.751479138175
1022.4856439479063 9356.684334182784
1023.3851808796389 9148.053025367986
1024.2844946762143 9358.891681845245
1025.183585402554 9305.15195782386
1026.082453123554 9069.604912637253
1026.9810979040776 9263.338804151985
1027.8795198089647 9168.816101862574
1028.777718903024 9261.612266397546
1029.6756952510368 9211.035773243026
1030.5734489177648 9105.37498849079
1031.4709799679313 9063.661274340968
1032.3682884662358 9275.134675304223
1033.2653744773506 9079.42549327399
1034.1622380659192 9038.609404227485
1035.058879296559 9261.90476660027
1035.9552982338591 9265.972506253485
1036.8514949423825 9228.142394252436
1037.7474694866614 9282.797361930887
1038.6432219312028 9230.392408634847
1039.5387523404825 9415.125147682464
1040.4340607789582 9309.467556694595
1041.3291473110476 9355.997737920337
1042.2240120011465 9503.181684148354
1043.1186549136273 9509.672221434066
1044.0130761128294 9501.447945149434
1044.9072756630649 9506.416168439853
1045.8012536286205 9705.075362978689
1046.6950100737577 9670.661898968898
1047.588545062701 9838.907981869692
1048.481858659663 9711.477643362137
1049.3749509288118 9925.324517793828
1050.2678219343034 9692.140542857413
1051.1604717402515 9776.729211049644
1052.0529004107575 9576.822461545598
1052.9451080098825 9752.037458240487
1053.8370946016694 9748.768983661594
1054.7288602501267 9787.193314672357
1055.6204050192446 9674.22963741932
1056.511728972977 9776.347264514723
1057.402832175254 9584.61804772567
1058.2937146899785 9512.428836531613
1059.1843765810263 9445.829165587467
1060.0748179122456 9703.731519972576
1060.9650387474576 9476.956065142387
1061.855039150456 9500.535635207509
1062.7448191850071 9493.852682495208
1063.6343789148505 9487.04033072278
1064.5237184037014 9553.897805616749
1065.412837715241 9404.42041956948
1066.3017369131267 9268.985263982117
1067.190416060992 9347.112518200378
1068.0788752224398 9334.434883060505
1068.9671144610438 9311.650517945407
1069.8551338403558 9363.524665152461
1070.7429334239023 9356.969889493665
1071.6305132751695 9092.035707474273
1072.517873457633 9348.867145467571
1073.4050140347335 9205.85181061228
1074.2919350698776 9327.630262226578
1075.1786366264623 9242.490642203407
1076.0651187678395 9231.812050562728
1076.95138155735 9139.707833234703
1077.8374250582929 9081.957040119658
1078.7232493339507 9074.971655489626
1079.608854447577 9074.495321137294
1080.4942404623907 9057.964214068887
1081.3794074415982 9122.521065518935
1082.2643554483657 9169.53845132505
1083.149084545841 9072.415806537254
1084.033594797138 8936.643719444495
1084.9178862653516 8987.33015449037
1085.8019590135427 9221.259755637471
1086.6858131047484 8866.681696042002
1087.5694486019802 9019.509870317685
1088.4528655682225 9010.758358584893
1089.3360640664287 9236.572111859386
1090.2190441595321 8986.394364799457
1091.1018059104317 9029.002684503841
1091.98434938201 9267.105452757458
1092.866674637111 9147.321343001338
1093.748781738559 9097.195974757415
1094.6306707491512 8981.447018106443
1095.5123417316554 9119.565825933698
1096.3937947488157 9029.037015373056
1097.2750298633455 8999.054230610154
1098.156047137938 9041.274867247144
1099.0368466352556 9050.963298210463
1099.9174284179317 9134.546994364651
1100.7977925485757 8896.100747304607
1101.6779390897755 9000.948298977415
1102.5578681040806 9063.92512435794
1103.4375796540226 9089.13568056174
1104.3170738021054 8994.665493771847
1105.1963506108077 8895.847436294984
1106.0754101425773 8866.211684484528
1106.9542524598382 9072.822003331403
1107.8328776249855 8975.488688069221
1108.7112857003904 8936.041146822483
1109.5894767483987 8945.485363864027
1110.4674508313292 9224.585788937995
1111.3452080114657 9064.825723248037
1112.2227483510815 9252.437079113985
1113.1000719124077 9269.432222042064
1113.9771787576592 9393.714090113415
1114.854068949022 9272.452791576998
1115.7307425486542 9452.951290477238
1116.6071996186893 9452.111965959242
1117.483440221229 9683.78008413187
1118.3594644183577 9446.454965344603
1119.235272272128 9605.912660874308
1120.1108638445658 9723.0349949455
1120.9862391976712 10038.291720884106
1121.8613983934229 9918.268862070134
1122.7363414937627 9967.5606165976
1123.6110685606182 10048.353525998922
1124.485579655884 10258.580625791623
1125.359874841426 10182.867785235474
1126.2339541790916 10100.703038600373
1127.1078177306936 10506.104115000624
1127.9814655580267 10247.166386904439
1128.854897722851 10335.06292881918
1129.7281142869106 10378.118307007677
1130.6011153119125 10477.009605789823
1131.473900859548 10674.094845025535
1132.3464709914697 10395.445432129332
1133.2188257693178 10362.908169948634
1134.0909652546961 10307.491418011216
1134.96288950919 10191.563547808046
1135.8345985943506 10398.404517433626
1136.7060925717087 9994.0784904592
1137.57737150277 10224.073533368097
1138.4484354490069 10202.925271472925
1139.3192844718778 10022.325650149269
1140.1899186327992 9821.77062927075
1141.060337993178 9993.058197804832
1141.930542614382 9795.739173981166
1142.8005325577597 9679.974605169671
1143.670307884635 9406.755170080174
1144.5398686563003 9608.918096960584
1145.409214934025 9534.417275801312
1146.2783467790541 9207.94744928646
1147.1472642526023 9348.618439218806
1148.0159674158622 9341.856787302222
1148.8844563300026 9141.976077239582
1149.7527310561618 9065.031780132162
1150.6207916554504 9041.102268094433
1151.4886381889592 8951.735743201487
1152.3562707177498 9212.091556209874
1153.2236893028585 8986.271277446718
1154.090894005296 8836.050488965146
1154.9578848860474 8982.071822882015
1155.8246620060709 8912.215071755041
1156.6912254262988 8732.953962415386
1157.5575752076438 8822.25472732402
1158.42371141098 8965.837702000408
1159.2896340971656 8933.149887374364
1160.1553433270346 8893.582208472555
1161.0208391613887 8892.34286608663
1161.8861216610057 8965.45884501989
1162.75119088664 8812.972890990437
1163.6160468990201 8888.537243291814
1164.4806897588442 8816.294699557913
1165.3451195267917 8958.321077163255
1166.2093362635114 8847.139686441002
1167.0733400296285 8954.100204145683
1167.9371308857444 8681.543507237186
1168.8007088924278 8867.155302553148
1169.6640741102328 8875.876115683679
1170.5272265996773 8847.560520840798
1171.390166421259 8754.189970240272
1172.252893635452 9001.982472197702
1173.1154083026995 9050.021915613488
1173.977710483421 9038.435711421462
1174.8398002380145 8801.295978182525
1175.7016776268483 9007.345238063463
1176.563342710264 8871.727592748068
1177.4247955485826 8806.79749648796
1178.2860362020947 9032.110217297306
1179.147064731069 8876.668215789425
1180.0078811957483 8989.279832783131
1180.8684856563486 8974.584656508518
1181.7288781730604 9026.598894702815
1182.589058806052 9027.035393274708
1183.4490276154593 9201.110001467761
1184.3087846614017 9036.162862300824
1185.1683300039676 9119.321554491873
1186.027663703222 9326.051004254514
1186.8867858192025 9255.791526999596
1187.7456964119228 9213.613546767367
1188.6043955413716 9380.58988272927
1189.4628832675116 9384.764734267537
1190.3211596502842 9539.009035905106
1191.179224749596 9545.651070343822
1192.0370786253388 9340.822299628186
1192.8947213373758 9666.325909246789
1193.7521529455407 9683.242474957333
1194.6093735096438 9439.718531453382
1195.466383089477 9540.591238644876
1196.3231817447977 9624.834793327453
1197.1797695353398 9743.99299756308
1198.0361465208189 9507.881088659957
1198.8923127609214 9537.120610842523
1199.7482683153048 9775.052712504483
1200.6040132436028 9939.035693199925
1201.459547605431 9720.866102790373
1202.3148714603722 9703.619103022053
1203.1699848679855 9803.001419611599
1204.0248878878065 9797.401273710131
1204.8795805793507 9470.640850957578
1205.7340630020935 9656.769366669665
1206.5883352155033 9847.018607917487
1207.4423972790064 9707.680647038318
1208.2962492520237 9550.243963903333
1209.1498911939307 9532.324979247318
1210.0033231640937 9567.254375511415
1210.8565452218427 9599.642627974996
1211.7095574264913 9310.834960497048
1212.5623598373222 9409.614500927093
1213.4149525135963 9344.687518059134
1214.2673355145507 9450.992001236571
1215.1195088993936 9320.987492613498
1215.9714727273113 9284.289013318656
1216.8232270574663 9483.091001508836
1217.6747719489904 9048.32458577097
1218.5261074609934 9172.709572311363
1219.3772336525653 9294.431507398189
1220.2281505827668 9199.93873172047
1221.0788583106296 9302.13197841692
1221.9293568951707 9058.184918635397
1222.7796463953746 8894.438236632082
1223.629726870202 9065.90641608798
1224.4795983785934 9080.86978064594
1225.3292609794553 8969.362508951188
1226.1787147316809 8873.338508445742
1227.0279596941327 8954.665063456068
1227.8769959256424 8778.715207489546
1228.7258234850306 9075.867696485133
1229.5744424310833 8716.954809707662
1230.422852822563 8959.849769960036
1231.2710547182105 8975.022269321487
1232.119048176739 8822.276194272074
1232.9668332568417 8597.80212496839
1233.8144100171812 8829.967990262134
1234.6617785163999 8884.232567866453
1235.508938813111 8611.985152232406
1236.3558909659114 8618.17681802088
1237.2026350333617 8779.821272233685
1238.049171074008 8894.888225998078
1238.8954991463652 8686.32841646654
1239.741619308932 8762.57595767204
1240.587531620169 7696.467832535434
1241.4332361385277 8833.210523184722
1242.2787329224248 8607.092770953894
1243.1240220302534 8461.690019784708
1243.9691035203869 8529.732374638497
1244.813977451171 8817.908220551963
1245.6586438809263 8722.700102208037
1246.5031028679496 8415.288101610027
1247.3473544705157 8711.258994211064
1248.1913987468706 8636.202730379691
1249.0352357552383 8376.732076532515
1249.8788655538228 8483.029447856683
1250.7222882007918 8747.854912929286
1251.565503754302 8640.858534550422
1252.4085122724755 8285.029880514285
1253.2513138134182 8718.132944191135
1254.0939084352049 8533.138655197869
1254.9362961958905 8591.795690276911
1255.7784771535007 8507.484873873358
1256.6204513660432 8627.96159199552
1257.4622188915 8718.77977790584
1258.3037797878242 8575.110984476216
1259.1451341129468 8348.140565805648
1259.9862819247755 8485.368781029425
1260.8272232811978 8503.579353654062
1261.6679582400666 8665.618939299016
1262.5084868592203 8339.287329672092
1263.34880919647 8301.756226140351
1264.1889253095997 8531.73737953456
1265.0288352563712 8610.417603319758
1265.8685390945266 8355.489778570194
1266.7080368817751 8461.863862593094
1267.5473286758115 8645.909907179348
1268.386414534294 8586.43589076882
1269.2252945148703 8310.421625730174
1270.0639686751547 8323.664795692755
1270.9024370727402 8434.378510848192
1271.7406997651997 8381.726166089331
1272.5787568100714 8261.010354993148
1273.4166082648808 8322.668257097499
1274.2542541871244 8316.981701601757
1275.091694634275 8612.081806750544
1275.9289296637817 8204.556236813338
1276.7659593330663 8386.13601208096
1277.6027836995308 8266.87298280263
1278.4394028205552 8462.920896566906
1279.2758167534867 8389.218935263683
1280.112025555658 8357.352510692259
1280.9480292843746 8396.642643872205
1281.7838279969128 8162.455046585009
1282.6194217505326 8343.510097117638
1283.4548106024686 8147.7583755073065
1284.289994609926 8249.784997530078
1285.1249738300921 8383.787472273601
1285.959748320127 8303.452796488125
1286.7943181371702 8317.382616708104
1287.6286833383328 8344.171435790866
1288.4628439807038 8483.638603648895
1289.2968001213521 8284.828930012529
1290.1305518173194 8282.198646739256
1290.9640991256183 8412.469536707376
1291.7974421032523 8284.40609565007
1292.630580807183 8244.993563246897
1293.463515294361 8415.115396588668
1294.29624562171 8504.679476731384
1295.12877184613 8353.225426878704
1295.961094024493 8350.057596086688
1296.79321221365 8490.646331880886
1297.6251264704333 8526.649597712541
1298.4568368516466 8818.620106808277
1299.2883434140658 8599.850032204555
1300.1196462144526 8352.928182314845
1300.9507453095375 8711.20493422841
1301.7816407560313 8611.124864861224
1302.6123326106172 8609.870752623292
1303.4428209299622 8504.100057533045
1304.2731057707024 8773.321812961665
1305.1031871894502 8462.949134226368
1305.933065242798 8507.344961743105
1306.7627399873181 8572.173173356286
1307.5922114795467 8939.05186437227
1308.4214797760123 9005.05339519832
1309.2505449332057 8540.856983731706
1310.0794070076026 8736.54481223476
1310.9080660556538 8888.148951124882
1311.736522133786 8870.484735452046
1312.5647752983987 8649.004508017066
1313.3928256058734 8597.026517854252
1314.2206731125661 8864.493766973445
1315.048317874809 8742.421395759247
1315.8757599489109 8745.718019425258
1316.7029993911547 8726.845254015227
1317.5300362578055 8830.177781408496
1318.356870605101 8596.810742270953
1319.183502489257 8674.153753942886
1320.0099319664623 8745.207631097572
1320.836159092889 8788.269943432093
1321.66218392468 8794.661756559977
1322.4880065179532 8652.218916721005
1323.3136269288134 8611.806399021098
1324.1390452133292 8929.274745776534
1324.9642614275563 8916.317741485846
1325.7892756275214 8747.026614143466
1326.6140878692295 8586.474631331246
1327.4386982086617 9112.447671021935
1328.2631067017755 8766.544983841617
1329.0873134045069 8803.861835350985
1329.911318372764 8645.947881154636
1330.735121662441 8548.245564083216
1331.558723329399 8612.327612797335
1332.3821234294774 8577.789772500404
1333.2053220185007 8589.662422453697
1334.0283191522612 8575.806030512891
1334.851114886529 8609.69343792876
1335.6737092770582 8406.972522978946
1336.4961023795695 8552.603427969301
1337.3182942497697 8470.346478721924
1338.1402849433325 8453.05239719814
1338.962074515921 8347.922006815254
1339.7836630231632 8207.782895141128
1340.6050505206676 8664.829228773275
1341.426237064028 8483.654454070242
1342.2472227088037 8230.427380309287
1343.0680075105338 8033.675924331481
1343.888591524741 8307.399423790464
1344.7089748069138 8371.312079846472
1345.5291574125276 8265.349464924235
1346.3491393970307 8022.300681811561
1347.168920815846 8250.585016081503
1347.9885017243778 8295.297387095381
1348.8078821780036 8075.9500266539235
1349.6270622320844 8102.697854467975
1350.4460419419447 8017.995578271472
1351.2648213629054 8081.022774548949
1352.0834005502438 7891.313869514366
1352.90177955923 7941.357273486681
1353.7199584451064 8128.366126546367
1354.5379372630887 7946.4989992665405
1355.355716068374 7947.57739960085
1356.1732949161305 7832.242165629669
1356.9906738615155 7950.024620759938
1357.8078529596478 7958.211638761044
1358.6248322656375 8030.164952219556
1359.441611834567 7868.775359946861
1360.2581917214866 8160.907423271761
1361.0745719814367 7825.9131525726525
1361.890752669433 7842.098865342615
1362.7067338404577 7731.650214759994
1363.5225155494845 7981.253397254666
1364.3380978514506 8148.672499241597
1365.1534808012839 7583.883681119597
1365.9686644538815 7551.817691658318
1366.783648864117 7967.553418272308
1367.5984340868417 7936.395358785658
1368.413020176893 7861.972943855317
1369.2274071890715 7632.1361822498675
1370.0415951781652 7932.351455423641
1370.8555841989346 7813.2122342468165
1371.6693743061223 7565.941100481427
1372.48296555444 7545.899855844027
1373.2963579985844 7851.5748824048005
1374.1095516932255 7780.286100058768
1374.9225466930166 7441.815141123446
1375.7353430525782 7766.060936404974
1376.5479408265164 7509.535693351034
1377.36034006941 7804.972811527322
1378.1725408358216 7790.89866257781
1378.9845431802805 7458.173407268601
1379.796347157304 7994.40831388848
1380.6079528213813 7869.636677813284
1381.4193602269788 7468.852524203491
1382.230569428546 7552.06186731936
1383.0415804805016 7725.994730805195
1383.852393437246 7723.565195144083
1384.6630083531563 7679.802622422589
1385.4734252825892 7513.443387409317
1386.2836442798798 7656.959413367511
1387.0936653993322 7631.6298355727795
1387.9034886952395 7528.105666051289
1388.713114221864 7643.954750543298
1389.5225420334482 7627.280427999777
1390.331772184214 7494.580633214377
1391.1408047283585 7130.350193557945
1391.9496397200564 7364.92499271398
1392.758277213461 7501.9309273322815
1393.5667172627054 7607.074007691028
1394.3749599218918 7388.660765549277
1395.1830052451114 7203.977228261123
1395.9908532864265 7302.2569675788545
1396.7985040998774 7488.657362221709
1397.6059577394808 7151.650433760566
1398.4132142592352 7260.807809499776
1399.2202737131156 7229.484633389751
1400.027136155073 7441.577564801066
1400.8338016390353 7134.830992600037
1401.6402702189134 7198.618727413404
1402.446541948586 7198.157047717412
1403.2526168819204 7071.989402367221
1404.058495072757 7057.686341963347
1404.8641765749107 7146.087467585508
1405.6696614421799 7191.912052811822
1406.4749497283356 7567.537703572931
1407.280041487129 7118.4223620826015
1408.084936772295 6868.597230657698
1408.8896356375335 7221.486569231546
1409.6941381365323 7201.827701392189
1410.498444322955 6937.391056180112
1411.3025542504402 7023.870729125299
1412.106467972606 6922.518169339676
1412.9101855430508 7011.684568971055
1413.7137070153458 6748.820866933411
1414.5170324430437 6914.608457901605
1415.320161879672 7109.816548410585
1416.1230953787435 7229.120010698962
1416.925832993742 6781.6821638944675
1417.7283747781275 6661.74834731828
1418.5307207853439 6928.891150107105
1419.3328710688093 6832.3907411011705
1420.134825681922 6622.8803256730735
1420.9365846780584 6756.309705501384
1421.7381481105713 7145.5235602888815
1422.539516032788 6964.556672397843
1423.3406884980232 6686.276029110886
1424.1416655595604 6637.450704145931
1424.942447270665 6728.993060370903
1425.7430336845828 6933.917063265688
1426.5434248545298 6636.085192271404
1427.3436208337116 6860.6361944430055
1428.143621675301 6856.689540246848
1428.9434274324558 7048.708241101711
1429.7430381583108 6575.559709558463
1430.5424539059713 6746.962158248685
1431.3416747285337 7203.137117802723
1432.1407006790632 6928.524076798855
1432.9395318106053 6844.777588435885
1433.7381681761835 6655.36716706672
1434.5366098288014 6812.431071617951
1435.3348568214424 6978.066952772938
1436.1329092070573 6757.050466443061
1436.9307670385879 6779.963805498426
1437.7284303689503 6874.819272116179
1438.5258992510335 7102.624739916512
1439.3231737377118 6826.480365362926
1440.1202538818306 6726.7435461019095
1440.9171397362225 6736.865556235265
1441.7138313536925 6818.415276511269
1442.5103287870243 6581.593315962348
1443.3066320889775 6571.979537648733
1444.1027413122956 6917.654849529994
1444.8986565096966 6744.471790864167
1445.694377733882 6730.961283460352
1446.4899050375207 6543.399058046744
1447.2852384732687 6650.600777924015
1448.0803780937622 6714.00789556376
1448.8753239516063 6508.219612869122
1449.6700760993954 6359.345935763242
1450.464634589689 6575.020136971201
1451.2589994750397 6778.775916964713
1452.0531708079689 6425.193512826954
1452.8471486409799 6409.108070155287
1453.6409330265524 6713.370023933814
1454.4345240171442 6402.066180551507
1455.2279216651987 6354.53408238487
1456.0211260231263 6441.784557731455
1456.8141371433194 6487.546057702122
1457.6069550781594 6583.864586284367
1458.3995798799897 6257.098371171129
1459.1920116011424 6256.614795762667
1459.98425029393 6249.7361013394375
1460.7762960106338 6291.592581861214
1461.5681488035225 6356.6705167877135
1462.3598087248392 6413.540146861309
1463.1512758268036 6670.14252592964
1463.942550161617 6245.0903666803015
1464.7336317814625 6282.504010443997
1465.524520738496 6396.421576066619
1466.3152170848552 6199.815105024969
1467.1057208726506 6279.332556043534
1467.8960321539817 6205.056349361605
1468.6861509809169 6083.070277373698
1469.4760774055085 6217.07988200277
1470.265811479785 6179.269278929582
1471.055353255755 5967.667087901475
1471.844702785409 6067.031424833751
1472.6338601207044 6082.602199234443
1473.4228253135934 6321.949500960653
1474.2115984159936 5992.374500334821
1475.0001794798063 5855.5357357646535
1475.7885685569145 6064.002537166121
1476.576765699172 6065.3871098958025
1477.3647709584238 6005.07598917912
1478.1525843864802 6312.21934162383
1478.9402060351367 6070.083600528466
1479.7276359561693 6143.477668084237
1480.514874201328 5929.755452299509
1481.3019208223468 5873.1844173800655
1482.0887758709323 5811.675811831038
1482.8754393987747 6176.831762989981
1483.6619114575406 5863.463148100395
1484.4481920988783 5967.667603886219
1485.2342813744108 6079.268293118443
1486.0201793357446 6280.630257175425
1486.8058860344572 5918.7180590193075
1487.591401522117 5948.574174717741
1488.3767258502594 6015.390445787092
1489.1618590704056 6062.169289769977
1489.9468012340494 5740.580434134777
1490.7315523926754 6071.50298377233
1491.5161125977356 6135.583546219438
1492.3004819006637 6040.0326755914275
1493.084660352877 5978.788385549468
1493.8686480057622 6133.791936813897
1494.6524449106964 6232.229407564806
1495.4360511190262 6240.004603436479
1496.219466682087 6099.080486382694
1497.0026916511779 6143.22756743963
1497.7857260775945 6064.24947158498
1498.5685700125996 6199.3441667278075
1499.3512235074395 5924.568786211315
1500.133686613337 5846.575650369776
1500.9159593814966 6041.8929951011105
1501.698041863101 6509.293977440008
1502.4799341093094 5859.005570950334
1503.2616361712662 5803.841469712268
1504.043148100087 6197.939037586222
1504.8244699468742 6112.419616766443
1505.6056017626997 5926.586046701917
1506.3865435986281 5857.050345988831
1507.1672955056893 6086.268463988711
1507.9478575348967 5851.072320839031
1508.7282297372512 6221.763213656513
1509.5084121637192 5940.6278443159945
1510.2884048652577 6063.850806440549
1511.0682078927948 5961.782655274942
1511.8478212972423 5880.142038261883
1512.6272451294917 5912.453682602331
1513.4064794404076 6103.329703378263
1514.1855242808433 6125.536599548067
1514.9643797016215 5963.2121966137
1515.743045753552 6121.211087702024
1516.5215224874191 6112.132232186653
1517.2998099539836 5802.612483066869
1518.077908203999 5935.993207913005
1518.8558172881785 5884.712512873631
1519.633537257234 6036.857690967676
1520.4110681618404 6006.477397344174
1521.1884100526604 6205.94376797993
1521.9655629803365 5962.696653697661
1522.7425269954856 6196.8184401974195
1523.5193021487103 6332.669027016257
1524.2958884905856 5833.894738629545
1525.0722860716687 5993.347479593894
1525.848494942502 5908.73643841047
1526.624515153595 6068.267359183151
1527.4003467554485 6188.024075601888
1528.175989798534 6206.455834527606
1528.9514443333064 6090.727744985755
1529.726710410203 6339.870360071158
1530.5017880796331 5922.673855042915
1531.276677391992 6030.684523535022
1532.0513783976457 6274.432727875072
1532.825891146953 6022.662728045677
1533.6002156902414 6155.243460345946
1534.3743520778207 6011.067241614919
1535.1483003599806 6144.379091913134
1535.9220605869923 6170.354512815837
1536.6956328091019 6256.065273565309
1537.4690170765407 6031.256772769835
1538.242213439511 6318.603570489182
1539.015221948208 6127.656572533217
1539.78804265279 6109.815984920295
1540.560675603405 5978.816388961414
1541.3331208501804 6361.204180368198
1542.1053784432224 6263.252125792884
1542.8774484326168 6232.09927148721
1543.649330868422 6115.879315831278
1544.4210258006842 6141.646285082032
1545.1925332794308 6226.898048632988
1545.9638533546604 6089.63020253473
1546.7349860763552 6025.111913555406
1547.5059314944829 6552.835011816373
1548.27668965898 6192.5937310612335
1549.0472606197673 6159.698267875171
1549.817644426752 6132.4209525442675
1550.5878411298072 6377.603719666802
1551.3578507787988 6320.0818439637915
1552.1276734235635 6137.793674623981
1552.8973091139233 6293.995587126878
1553.6667578996767 6491.476656068178
1554.436019830604 6266.533457058538
1555.20509495646 6299.3517517272585
1555.9739833269869 6100.594492926881
1556.7426849919011 6194.025406501038
1557.511200000903 6604.927428123851
1558.2795284036674 6397.686530851896
1559.0476702498509 6229.222997854833
1559.8156255890954 6463.289563468079
1560.5833944710157 6704.218794171536
1561.3509769452048 6228.859563773935
1562.1183730612447 6467.782661979129
1562.8855828686865 6347.59324223039
1563.6526064170703 6786.171393140367
1564.4194437559127 6512.061171326207
1565.1860949347047 6269.488440336403
1565.9525600029283 6681.231857948789
1566.7188390100328 6700.378754401007
1567.4849320054564 6262.173641542956
1568.250839038612 6337.261308078976
1569.0165601588997 6410.797015359836
1569.7820954156887 6502.659760668104
1570.5474448583373 6280.847076768401
1571.31260853618 6253.248754963418
1572.0775864985299 6201.103529865542
1572.8423787946813 6456.672390660271
1573.6069854739108 6275.510239279977
1574.371406585471 6445.292893460711
1575.1356421785986 6501.779096802337
1575.899692302506 6263.835812573516
1576.6635570063845 6495.641283807138
1577.4272363394157 6261.630567731357
1578.190730350747 6194.056040392202
1578.9540390895163 6380.945659026586
1579.7171626048384 5997.209271525617
1580.480100945806 6132.833730241613
1581.2428541614918 6235.486929227796
1582.0054223009538 6407.9663699219145
1582.767805413223 6281.532131727339
1583.5300035473156 6245.020718911749
1584.292016752228 6403.434264182005
1585.0538450769309 6349.071863354522
1585.8154885703807 6021.535165709787
1586.5769472815136 5975.277227824245
1587.3382212592405 6210.9043972244635
1588.099310552463 6382.0293420005155
1588.8602152100484 6212.231478685242
1589.6209352808564 6274.721685049057
1590.3814708137234 6165.8419252931435
1591.14182185746 6102.8318150735495
1591.9019884608679 6040.355790622581
1592.6619706727215 5929.022034497603
1593.4217685417734 6139.655310806018
1594.1813821167616 6386.7377166132155
1594.9408114464022 5824.689295883407
1595.7000565793933 6018.996248891561
1596.459117564409 6133.640700160158
1597.2179944501113 5924.01036356394
1597.9766872851324 5951.701517525717
1598.735196118092 6211.957461599743
1599.4935209975883 6061.674373484237
1600.2516619721973 6133.533067872624
1601.0096190904787 5929.834050368014
1601.7673924009723 5952.314771080018
1602.524981952196 5817.977546742303
1603.2823877926476 5917.326578906423
1604.0396099708087 5856.115151110005
1604.7966485351371 5773.167327280447
1605.5535035340745 5945.768408974835
1606.3101750160404 6034.985678997229
1607.0666630294363 5707.703147668358
1607.822967622642 5755.172856799125
1608.5790888440224 5817.219151204774
1609.3350267419137 6078.2927085356805
1610.0907813646445 5908.547847173062
1610.8463527605145 5790.482284388861
1611.601740977805 5918.364754067703
1612.356946064785 5781.003635614814
1613.1119680696902 5466.044879395575
1613.8668070407512 5792.104663963938
1614.6214630261748 5650.001562273422
1615.375936074137 5868.521524741808
1616.1302262328118 5736.35486162565
1616.8843335503425 5677.733250346539
1617.638258074854 5597.403581805565
1618.391999854457 5795.453805824314
1619.1455589372363 5952.710957014207
1619.8989353712623 5820.223141706379
1620.65212920458 5449.0218815886365
1621.4051404852235 5593.116781474023
1622.1579692611976 5541.100142971029
1622.9106155804966 5331.552131290885
1623.663079491087 5537.984766780118
1624.4153610409248 5776.850961232281
1625.1674602779385 5553.353579143577
1625.9193772500403 5512.991733480816
1626.6711120051277 5663.501968441385
1627.4226645910676 5560.329110281679
1628.174035055721 5374.337745246016
1628.9252234469168 5489.941342561286
1629.676229812474 5452.085901728286
1630.4270542001905 5931.952747687685
1631.1776966578382 5516.955493627858
1631.9281572331747 5475.490800002106
1632.678435973945 5652.5761961239095
1633.4285329278573 5626.742767463037
1634.1784481426203 5255.13365196722
1634.9281816659113 5360.614424001867
1635.677733545388 5665.322208044176
1636.4271038286934 5339.937543510206
1637.176292563452 5584.415665784441
1637.9252997972635 5408.520230519902
1638.674125577716 5510.396062174392
1639.4227699523672 5843.598426088309
1640.171232968767 5135.928784303152
1640.9195146744423 5389.547956424582
1641.6676151168977 5603.763929491006
1642.4155343436178 5686.099649862383
1643.1632724020765 5352.496586003827
1643.9108293397167 5524.556146991792
1644.658205203974 5340.009297027732
1645.4054000422566 5988.83263272051
1646.1524139019566 5341.853523966777
1646.8992468304423 5283.254756614
1647.6458988750728 5386.037552947498
1648.3923700831765 5504.204448000474
1649.1386605020743 5360.271818053703
1649.8847701790564 5535.2643521473
1650.6306991614038 5535.993675787651
1651.3764474963682 5578.067700363134
1652.1220152311944 5051.954324338468
1652.867402413096 5467.469191270117
1653.6126090892776 5312.160732477724
1654.3576353069184 5593.600593515053
1655.1024811131829 5468.300241027414
1655.8471465552066 5260.826300207005
1656.5916316801213 5639.794416792974
1657.3359365350298 5501.724587940169
1658.0800611670165 5319.7459670593735
1658.824005623148 5346.747858437067
1659.5677699504722 5159.161816900164
1660.3113541960192 5349.801321382958
1661.054758406799 5257.370708360418
1661.7979826297997 5151.9178980364195
1662.5410269119966 5091.750081314354
1663.283891300338 5183.389045494899
1664.0265758417645 5132.45161275671
1664.7690805831826 5223.070041030658
1665.5114055714948 5257.0017810798045
1666.2535508535748 5512.191325261911
1666.9955164762814 4881.81992441294
1667.7373024864555 5126.394109654845
1668.478908930916 5216.949716490264
1669.220335856462 4973.480547817753
1669.9615833098778 5042.113515512323
1670.7026513379296 5001.919281708384
1671.44353998736 5042.827354400588
1672.1842493048916 4955.827668056824
1672.9247793372379 4916.069299539978
1673.6651301310812 5032.162994001248
1674.4053017330934 4868.383990554574
1675.1452941899242 4986.867987155842
1675.885107548207 4405.510279280496
1676.6247418545518 4584.062779933186
1677.3641971555535 4577.909964342155
1678.1034734977893 4857.691733076769
1678.8425709278108 4740.544815244972
1679.5814894921605 4933.285914560014
1680.320229237359 4818.218406212264
1681.0587902098978 4844.50165031082
1681.7971724562685 4597.037460577292
1682.5353760229264 4439.218693083866
1683.2734009563173 4776.479547672264
1684.0112473028657 4415.8442157233085
1684.7489151089794 4634.500570067952
1685.4864044210462 4646.975914282519
1686.2237152854377 4221.632136543926
1686.960847748498 4735.594796860007
1687.6978018565642 4327.520684476304
1688.434577655944 4314.617549916332
1689.1711751929379 4251.801116241047
1689.9075945138156 4447.383674984747
1690.6438356648396 4331.582264105467
1691.3798986922448 3872.181600438088
1692.1157836422499 4254.712427333496
1692.851490561059 4198.312409240867
1693.587019494853 4212.206481235159
1694.3223704897991 4025.2079723443594
1695.0575435920364 3958.874000460912
1695.792538847696 4383.710259155129
1696.527356302886 4130.132631019493
1697.2619960036936 3895.997066556326
1697.9964579961907 3933.7274098593175
1698.730742326432 3584.5351797926533
1699.4648490404488 3713.0836873187777
1700.1987781842563 3898.9802030905616
1700.9325298038548 4005.288708081594
1701.6661039452174 4232.795836754898
1702.3995006543082 3958.0872670399976
1703.1327199770658 4004.053301098759
1703.865761959416 3832.7814867147767
1704.598626647261 4147.5177496102115
1705.3313140864866 3741.7429356700695
1706.0638243229587 3775.164645338437
1706.7961574025303 3972.379094239259
1707.528313371029 3855.5608599266707
1708.260292274268 3570.7538950049557
1708.9920941580403 3815.9090688172882
1709.7237190681226 3854.8026403852155
1710.4551670502697 3725.4928164319344
1711.18643815022 3501.8037600786934
1711.9175324136959 4049.7946897437737
1712.6484498863938 3740.803143899736
1713.379190614005 3493.2033803230393
1714.109754642188 3712.4303626318188
1714.8401420165883 3644.7802185437868
1715.570352782839 4195.13907780923
1716.3003869865497 3762.8049400240066
1717.0302446733076 3462.342434921228
1717.7599258886876 3629.4961361745964
1718.4894306782444 3985.6642097073395
1719.2187590875183 3486.4746362579303
1719.9479111620203 3849.734474304861
1720.6768869472544 3493.151949653927
1721.4056864887025 3887.7525472379457
1722.1343098318284 3777.205319246589
1722.8627570220742 3535.2199470326136
1723.591028104871 3421.1503059012407
1724.3191231256242 3351.860819213268
1725.0470421297232 3570.2529574921527
1725.7747851625427 3778.9284883211812
1726.5023522694337 3626.173657491495
1727.2297434957363 3573.172884919918
1727.9569588867635 3308.1516164776062
1728.6839984878152 3665.7245186464083
1729.4108623441734 3185.596646236302
1730.1375505011038 3602.1161761398726
1730.8640630038426 3446.230760966916
1731.5903998976264 3381.3257815002944
1732.316561227657 3647.5557770294627
1733.0425470391274 3317.4929938607625
1733.7683573772065 3455.778047456994
1734.4939922870508 3431.8396786690305
1735.2194518137949 3534.767009964345
1735.9447360025606 3545.5987349509624
1736.669844898439 3500.544447754931
1737.3947785465189 3436.051613622102
1738.1195369918605 3236.722669694679
1738.8441202795093 3454.8729167694073
1739.5685284544943 3419.913242325246
1740.292761561821 3456.637495678864
1741.0168196464838 3460.3108519467
1741.7407027534518 3575.799707694393
1742.464410927687 3367.8639685794456
1743.187944214118 3404.525529315658
1743.9113026576688 3370.77920646211
1744.634486303241 3367.9385396430507
1745.3574951957125 3397.6275935913195
1746.0803293799509 3427.59161995398
1746.8029889008048 3386.9160617688276
1747.5254738031017 3503.6105835904455
1748.2477841316504 3298.691673013429
1748.969919931249 3350.6913122588135
1749.6918812466665 3236.477804032906
1750.4136681226646 3547.9032693556646
1751.1352806039777 3333.7326409957873
1751.856718735331 3144.822028811379
1752.5779825614281 3008.4403297921517
1753.2990721269507 3402.9688020820054
1754.0199874765676 3439.5417997079226
1754.7407286549314 3125.421019825212
1755.4612957066693 3221.609691391496
1756.1816886763954 3120.90267112331
1756.9019076087097 3390.93627967614
1757.6219525481865 3359.064949333352
1758.3418235393856 3272.7453155301673
1759.061520626854 3384.9490107624856
1759.7810438551096 3485.28699883782
1760.5003932686614 3059.639357885503
1761.2195689119999 3464.124006744253
1761.938570829594 3360.6797619602976
1762.657399065898 3341.327576454646
1763.376053665348 3139.1515856847545
1764.0945346723602 2982.5528979561336
1764.812842131334 3463.171812946911
1765.5309760866512 3113.356196529729
1766.2489365826787 3049.9696509779324
1766.9667236637597 3181.4508551843887
1767.684337374223 2874.3083680901673
1768.401777758383 3074.897248121578
1769.1190448605284 3086.913249905496
1769.836138724937 3023.0053882442985
1770.5530593958665 3251.658189215433
1771.2698069175603 3395.8791465025497
1771.9863813342326 3292.373104866782
1772.702782690094 3080.2667980074084
1773.4190110293293 3394.794239056281
1774.1350663961111 3201.004914838352
1774.8509488345844 3079.997483619893
1775.5666583888924 3172.558202600027
1776.2821951031437 3348.192569955455
1776.9975590214362 3163.376345647527
1777.7127501878585 3291.205603952909
1778.4277686464684 3231.9615398617184
1779.1426144413108 3317.0658693243363
1779.8572876164162 3422.572031468203
1780.571788215797 2972.938938431882
1781.2861162834415 3177.5169179786276
1782.0002718633277 3140.4608644054033
1782.7142549994132 3117.810249878969
1783.4280657356376 3213.477559242331
1784.141704115922 3012.2687201939993
1784.855170184177 3132.6278476620837
1785.5684639842839 3065.525956860155
1786.2815855601148 2807.383689348789
1786.9945349555237 3118.46551047799
1787.707312214343 2910.2765112976567
1788.4199173803918 3434.540499032473
1789.132350497468 2904.7485421349693
1789.8446116093583 3003.448404395579
1790.556700759822 2969.271937496881
1791.2686179926077 3067.7735812306523
1791.9803633514493 2883.065098431842
1792.6919368800554 2816.15769234485
1793.4033386221236 3133.5780563746566
1794.1145686213295 3229.3063971174424
1794.8256269213307 3297.3636193529906
1795.536513565774 3125.5521561824085
1796.247228598284 2767.256381586093
1796.9577720624693 2957.2580090965903
1797.6681440019165 3090.100327540153
1798.3783444602013 2995.314082168393
1799.0883734808776 3122.4756761802532
1799.7982311074884 3115.399789798983
1800.5079173835475 3151.826207771266
1801.2174323525633 3174.0845921489536
1801.9267760580187 2939.355893435333
1802.635948543386 3146.286793240489
1803.3449498521113 2860.528861334821
1804.0537800276325 3138.670310053371
1804.7624391133668 2966.734578238358
1805.47092715271 2789.6455971393457
1806.1792441890484 2827.111618982111
1806.8873902657433 3122.7028817126943
1807.5953654261448 3023.6221145704853
1808.3031697135812 2855.4904612827995
1809.0108031713662 2812.643832755609
1809.71826584279 2975.162531087367
1810.425557771141 3023.7403179534845
1811.1326789996747 2963.9281342083227
1811.839629571632 2903.8844984055763
1812.5464095302468 2996.218998946007
1813.2530189187182 2983.3964233261554
1813.959457780249 3069.7943283314244
1814.6657261580076 3136.1881674012375
1815.371824095153 3067.338587616675
1816.0777516348262 3138.8859243696693
1816.78350882015 2512.487009075488
1817.4890956942272 2645.0863900785143
1818.1945123001533 2958.684373513011
1818.8997586809928 2915.953458175085
1819.6048348798067 2758.396617634739
1820.3097409396287 2991.2694174047183
1821.0144769034796 3392.8661630800316
1821.7190428143622 2930.375125375125
1822.423438715261 3065.0130771048407
1823.1276646491478 2914.0627533886036
1823.8317206589727 2982.1106457205888
1824.5356067876692 2860.1971737964445
1825.2393230781581 2962.5391676046775
1825.942869573335 2709.3226724243914
1826.646246316086 2789.776859789278
1827.3494533492758 2990.5426508111186
1828.052490715756 2939.110729007798
1828.7553584583547 3004.673552990963
1829.458056619891 3090.558531960336
1830.1605852431585 2800.286538451888
1830.8629443709433 2748.2748503682374
1831.5651340460063 2845.4897330247445
1832.2671543110919 2760.86994493374
1832.9690052089318 3039.00235528325
1833.6706867822395 2702.4537793610007
1834.3721990737104 2978.007942866772
1835.0735421260233 3028.697025357239
1835.774715981841 2765.251200966684
1836.4757206838058 3193.9530616790707
1837.1765562745459 2771.159236637689
1837.8772227966747 2760.8675707938637
1838.5777202927839 2868.0191072551825
1839.2780488054523 2827.7832705487317
1839.9782083772352 2799.748333416763
1840.6781990506806 3253.01268993424
1841.378020868313 2706.9690053694203
1842.0776738726418 2890.4391021305096
1842.777158106157 2715.230607827685
1843.4764736113375 2636.863920328448
1844.1756204306403 2924.085726384152
1844.8745986065078 2875.2283732611804
1845.5734081813607 2684.8363290703746
1846.2720491976124 2850.2334615541904
1846.970521697649 2698.886571898513
1847.6688257238511 2905.193956946646
1848.3669613185684 2795.58447314772
1849.0649285241452 2632.6146069452566
1849.7627273829057 2947.8320482713616
1850.460357937156 2755.3302735192783
1851.1578202291857 2544.566385509594
1851.8551143012664 2917.4209482778033
1852.5522401956569 2718.1862636798364
1853.2491979545957 3097.2794300875325
1853.9459876203055 2703.6861826612535
1854.6426092349902 2740.224178284311
1855.3390628408451 2734.060917992224
1856.0353484800362 3021.486520591018
1856.7314661947203 2943.4433662084125
1857.4274160270397 2611.340833065792
1858.123198019115 2789.8170937260106
1858.8188122130487 2660.4835850906306
1859.5142586509319 2786.428289432504
1860.209537374838 2808.535708303274
1860.9046484268183 2792.4773395023008
1861.599591848917 3056.75664053493
1862.294367683151 2643.771133778927
1862.988975971528 2616.1348990428532
1863.6834167560355 2797.228366005302
1864.3776900786452 2921.0961268328297
1865.0717959813119 2791.6067099756638
1865.7657345059724 2593.961947429455
1866.4595056945564 2854.1615022808846
1867.1531095889586 2869.4880642036187
1867.846546231076 2631.506691507954
1868.5398156627743 3004.5906701125887
1869.2329179259123 2725.2983667905223
1869.9258530623283 3057.0812280030527
1870.618621113843 2551.9301094543694
1871.3112221222636 2623.331482773355
1872.0036561293764 2743.9485083737864
1872.695923176956 2783.8236470195156
1873.3880233067594 2886.18386553646
1874.0799565605212 2663.0066687942713
1874.7717229799673 2650.9600940909413
1875.4633226068036 2936.9427207368835
1876.1547554827175 2853.728716951407
1876.8460216493859 2597.310296608656
1877.5371211484617 2699.29691142794
1878.2280540215852 2881.034192832611
1878.9188203103804 2623.9500751675787
1879.6094200564548 2618.917923182288
1880.299853301396 2650.191750320918
1880.9901200867826 2984.9240019279255
1881.6802204541673 2884.1542678223723
1882.3701544450942 2838.280849939205
1883.059922101087 2525.5329447767367
1883.7495234636517 2808.4894488266655
1884.4389585742792 2544.167317792947
1885.1282274744517 2520.0343530922282
1885.8173302056166 2671.5067186147276
1886.506266809225 2823.1853975875324
1887.195037326701 2456.363084520045
1887.8836417994517 2659.9998061539723
1888.5720802688702 2904.2223476469244
1889.260352776333 2780.225573657007
1889.9484593632042 2885.3449285843667
1890.63640007082 2616.0922024895453
1891.3241749405151 2493.5461214528905
1892.0117840135954 2846.584198007904
1892.6992273313572 2635.142180653997
1893.3865049350788 2545.612065699265
1894.0736168660223 3098.382562101331
1894.7605631654333 2862.1299855930365
1895.4473438745408 2404.591605840372
1896.133959034556 3069.0465054032566
1896.820408686679 2765.964284612632
1897.506692872088 3016.8089236600613
1898.192811631945 2777.3246661102285
1898.8787650073991 2614.4295223498148
1899.5645530395832 2964.287700774632
1900.2501757696118 2778.01482610035
1900.9356332385796 2479.3537666928923
1901.620925487574 3098.7526414629947
1902.3060525576602 2831.1521376396568
1902.9910144898859 2796.6685226421164
1903.6758113252872 2584.9897606525124
1904.3604431048789 2797.1090397463267
1905.0449098696663 2907.7077945282153
1905.7292116606295 2588.9345431495008
1906.4133485187394 2803.6580849046436
1907.0973204849488 2438.2972043797336
1907.7811276001976 2593.7365533728926
1908.4647699053967 2677.957647429491
1909.1482474414588 2098.3167603824772
1909.8315602492694 2476.642318874833
1910.5147083696957 2829.800482471478
1911.1976918436012 2691.4922123015467
1911.880510711815 2422.154160731312
1912.5631650151681 2829.156832798023
1913.2456547944657 2527.0807140474108
1913.927980090495 2707.775041742943
1914.6101409440362 2545.4234766950294
1915.2921373958416 2735.6508621594244
1915.9739694866603 2619.3646948601336
1916.655637257214 2957.0724974682366
1917.3371407482136 2705.7026936715865
1918.0184800003572 2834.638534995274
1918.6996550543154 2849.6754325184475
1919.3806659507554 2725.4706421977767
1920.0615127303208 2671.501834784411
1920.7421954336423 2853.2301198981827
1921.4227141013343 2889.164052710403
1922.103068773993 2701.954154641415
1922.783259492202 2821.553489405578
1923.4632862965227 2688.218436980784
1924.1431492275078 2512.0120573122017
1924.8228483256917 2486.68682205789
1925.5023836315922 2633.9887453998003
1926.1817551857057 2304.665205479757
1926.8609630285227 3012.7279534335516
1927.5400072005123 2835.788752958681
1928.218887742125 2541.717617997868
1928.8976046938005 2523.5733779303982
1929.5761580959588 2807.4844876321977
1930.2545479890086 2721.413420601923
1930.9327744133352 2358.0515796432746
1931.6108374093164 2713.6707424936276
1932.2887370173066 2925.067010025504
1932.9664732776473 2306.0294127889306
1933.6440462306673 2725.0006002664945
1934.3214559166754 2628.7254621989878
1934.9987023759659 2986.326418510337
1935.675785648813 2824.628917529254
1936.3527057754836 2340.2176571806976
1937.029462796223 2394.409216543977
1937.70605675126 2448.7726863895573
1938.3824876808085 2482.86600354556
1939.058755625072 2538.039946644568
1939.7348606242267 2586.7061438680475
1940.4108027184448 2612.5957563738802
1941.0865819478713 2815.324063740442
1941.7621983526478 2581.30038586437
1942.4376519728921 2437.702610390282
1943.1129428487038 2606.3211454958337
1943.7880710201734 2683.10524793053
1944.4630365273733 2734.995244024675
1945.1378394103576 2405.0151980824066
1945.8124797091714 2366.518876135873
1946.4869574638324 2327.863361267705
1947.161272714353 2548.101582666587
1947.8354255007234 2666.329523027434
1948.5094158629272 2412.6157504420057
1949.1832438409183 2755.3031040267733
1949.8569094746435 2765.518058003227
1950.530412804037 2918.2042675104462
1951.2037538690092 2943.116394288887
1951.8769327094578 2702.02332052074
1952.5499493652678 2496.3935376637924
1953.222803876306 2850.451542588609
1953.895496282421 2754.3452319816743
1954.5680266234522 2640.420935757831
1955.2403949392155 2744.524148166521
1955.9126012695142 2328.909960070901
1956.5846456541403 2532.377144173267
1957.2565281328643 2571.12072152503
1957.9282487454457 2730.1787169533313
1958.5998075316202 2688.1471410137906
1959.27120453112 2526.7823687740383
1959.9424397836501 2620.8485814844207
1960.613513328908 2818.012662281709
1961.2844252065697 2853.6237704989917
1961.9551754563017 2418.9941144461363
1962.6257641177453 2444.342265342607
1963.29619123054 2345.742901140957
1963.966456834296 2413.134011303708
1964.6365609686181 2245.277474589216
1965.306503673086 2665.0795700486888
1965.976284987275 2519.688486476657
1966.645904950734 2526.8795682525542
1967.315363603002 2258.812298317419
1967.9846609836077 2580.4574007189162
1968.6537971320486 2459.030270674484
1969.3227720878222 2629.686312354054
1969.9915858904042 2593.9687113790505
1970.660238579252 2646.216047633918
1971.3287301938108 2547.4312456461666
1971.997060773514 2482.4267958417217
1972.665230357772 2470.0980600706234
1973.3332389859843 2499.627489927435
1974.0010866975335 2327.2455421467894
1974.6687735317864 2562.3753980311712
1975.3362995280932 2642.0424661501256
1976.003664725793 2622.3660907554026
1976.6708691642052 2390.673571200542
1977.3379128826364 2605.2354059235645
1978.004795920373 2865.7032247190778
1978.6715183166925 2961.9852595510247
1979.3380801108524 2317.746100120573
1980.0044813420973 2634.309523679301
1980.6707220496555 2136.0140379567306
1981.3368022727373 2650.952619419145
1982.0027220505417 2606.1356301653586
1982.66848142225 2129.232272408875
1983.3340804270283 2375.629193972868
1983.999519104027 2565.461882670833
1984.6647974923835 2713.5639907157883
1985.329915631215 2686.152669479472
1985.99487355963 2494.715510647958
1986.6596713167146 2804.9919980228815
1987.3243089415428 2430.760883856712
1987.9887864731754 2755.464768909736
1988.6531039506553 2313.84050521231
1989.3172614130071 2360.7572128087695
1989.9812588992481 2407.792080831114
1990.645096448372 2197.487158150658
1991.3087740993633 2426.294305250728
1991.9722918911848 2542.0406223318514
1992.635649862792 2587.0202606668745
1993.2988480531185 2715.4006641971673
1993.9618865010852 3063.667596410239
1994.6247652455968 2445.164407331255
1995.287484325545 2370.4112017342904
1995.9500437798033 2449.587100986692
1996.6124436472292 2425.9299923036933
1997.2746839666706 2597.5036562725877
1997.936764776954 2396.9977036749433
1998.598686116895 2524.885441619529
1999.2604480252903 2766.885837283039
1999.9220505409212 2651.940281952071
2000.5834937025593 2326.851562333272
2001.2447775489582 2428.028538535092
2001.9059021188514 2615.743392550422
2002.5668674509616 2295.2684870641897
2003.2276735839987 2438.399987207654
2003.8883205566508 2770.550236399463
2004.5488084075987 2383.9225813901658
2005.2091371755014 2483.7847446093824
2005.8693068990033 2287.9651505900374
2006.5293176167397 2669.858531035854
2007.1891693673224 2302.228231814305
2007.848862189354 2372.9787644754815
2008.5083961214223 2470.0470918872907
2009.1677712020955 2327.311190281218
2009.8269874699254 2404.060811013009
2010.4860449634598 2338.3372048191836
2011.1449437212177 2272.579160397415
2011.8036837817108 2742.9872634422836
2012.4622651834325 2717.6527178524725
2013.1206879648653 2668.242810558112
2013.7789521644736 2802.4907225514307
2014.4370578207036 2304.1354466155253
2015.0950049719922 2393.9907986004314
2015.7527936567585 2691.8353507303536
2016.4104239134067 2471.847524970335
2017.067895780323 2297.1484315293965
2017.725209295886 2884.019970267439
2018.3823644984514 2727.302032608864
2019.0393614263648 2629.051681505039
2019.6962001179545 2422.01301238247
2020.3528806115355 2629.7714036324487
2021.0094029454067 2511.76383673483
2021.6657671578487 2204.4494573866573
2022.321973287133 2516.638613462429
2022.9780213715148 2456.0521705740475
2023.6339114492293 2399.7140785199094
2024.2896435585026 2401.3588720916614
2024.9452177375442 2431.110962860944
2025.600634024544 2616.2868799118382
2026.2558924576842 2580.80034920651
2026.9109930751292 2889.1774548873154
2027.565935915025 2889.281030799474
2028.2207210155066 2889.3489829701075
2028.8753484146964 2854.011061727163
2029.529818150695 2264.158074591409
2030.1841302615903 2673.502888193781
2030.8382847854573 2450.331421669901
2031.4922817603601 2586.133790691264
2032.1461212243357 2453.6494374580807
2032.7998032154192 2272.2794301676627
2033.4533277716218 2456.859132682662
2034.1066949309443 2300.924261544484
2034.7599047313688 2182.9962681331
2035.4129572108704 2565.472257955967
2036.0658524074006 2448.463409758449
2036.7185903589016 2442.6217103479785
2037.3711711032956 2564.8384254618095
2038.023594678496 2571.5346611361883
2038.675861122394 2248.063271039465
2039.3279704728757 2755.0149295595625
2039.9799227678031 2349.556027948315
2040.6317180450278 2460.0785728309306
2041.2833563423865 2424.374346724644
2041.9348376977014 2808.8520795258555
2042.5861621487784 2727.7203243152676
2043.2373297334088 2497.9631390717313
2043.8883404893695 2498.4363613812206
2044.5391944544208 2526.5905466069535
2045.1898916663158 2665.210707876125
2045.8404321627804 2818.352139506086
2046.4908159815368 2341.1675897507075
2047.1410431602853 2282.1294627386487
2047.7911137367173 2280.031782149022
2048.441027748504 2681.5242094097057
2049.090785233302 2295.7024980295473
2049.7403862287592 2353.9732529250746
2050.389830772503 2748.081011074704
2051.0391189021466 2234.849955413365
2051.688250655294 2602.5002470178874
2052.337226069527 2232.8863290272157
2052.986045182417 2577.6952253933664
2053.634708031521 2602.1898198010163
2054.283214654375 2626.8987608695215
2054.931565088511 2182.3755016519835
2055.579759371436 2214.771365074958
2056.2277975406523 2615.569855106831
2056.8756796336384 2649.1629869820144
2057.5234056878617 2061.129971230181
2058.1709757407752 2354.219587959006
2058.8183898298194 2761.610855522348
2059.465647992416 2707.8261725790735
2060.1127502659747 2700.270170924413
2060.759696687888 2150.9639900321463
2061.4064872955405 2500.2625891877447
2062.053122126292 2208.2096208482058
2062.699601217497 2518.748919452026
2063.345924606485 2248.982410736759
2063.992092330587 2451.662720003949
2064.638104427102 2295.986478867904
2065.283960933324 2789.635687577634
2065.92966188653 2548.8861081317245
2066.5752073239855 2705.6447508231286
2067.2205972829397 2244.163273198976
2067.86583180062 2540.8414761690915
2068.5109109142522 2237.0723075504147
2069.15583466104 2403.165155991833
2069.8006030781708 2251.6813270730254
2070.445216202821 2293.7371906276157
2071.089674072153 2644.7172142893237
2071.7339767233116 2519.3345879021485
2072.3781241934303 2430.366532407063
2073.0221165196253 2569.658813734113
2073.6659537390024 2288.902063315535
2074.3096358886505 2648.9834357196687
2074.953163005637 2332.705560385259
2075.596535127028 2082.4595517546986
2076.2397522898664 2205.144627478275
2076.882814531182 2451.715714255232
2077.5257218879924 2574.798465052844
2078.1684743973 2147.4465531996498
2078.8110720960885 2244.040800539074
2079.453515021336 2383.1945631800327
2080.095803209997 2522.444571813879
2080.7379366990135 2306.5084764590297
2081.37991552532 2634.37083328334
2082.0217397258275 2549.372510801186
2082.6634093374414 2179.9125367008683
2083.3049243970418 2506.009248660895
2083.9462849415067 2638.987634024911
2084.587491007689 2400.887648184832
2085.2285426324324 2459.3300789644813
2085.869439852564 2422.102979384722
2086.510182704902 2206.788499483442
2087.1507712262483 2441.372121823014
2087.791205453381 2139.936428538814
2088.4314854230743 2544.0474894387066
2089.0716111720867 2351.1847923156843
2089.7115827371617 1997.7580392314987
2090.351400155023 2078.5227737866885
2090.991063462385 2159.536717640877
2091.6305726959527 2101.0803805327296
2092.2699278924047 2494.9213995860314
2092.9091290884153 2305.019894637173
2093.548176320641 2332.0585839870973
2094.187069625721 2402.4489345763413
2094.8258090402887 2108.8677081175224
2095.464394600951 2583.5465613643423
2096.102826344313 2450.28178356859
2096.741104306955 2628.0344060709676
2097.379228525453 2192.3093002041633
2098.017199036358 2093.4986237857734
2098.6550158762147 2568.4343206793296
2099.2926790815527 2537.0258000608337
2099.9301886888825 2333.0543751571436
2100.5675447347076 2434.865099210064
2101.2047472555114 2542.7949158008782
2101.841796287761 2287.178803009097
2102.47869186792 2411.8033313294613
2103.1154340324265 2284.97255835986
2103.752022817709 2466.969949934656
2104.388458260184 2248.319642201782
2105.024740396251 2409.2737706964053
2105.660869262292 2369.0433116289323
2106.296844894685 2564.0043527213184
2106.93266732978 2303.986227178164
2107.5683366039284 2203.801549349521
2108.2038527534532 2315.5454208269766
2108.8392158146726 2509.2032770479786
2109.4744258238843 2180.7816693934974
2110.1094828173755 2264.165298103275
2110.744386831422 2305.6440839310853
2111.3791379022787 2347.268711846968
2112.01373606619 2549.6481183712667
2112.648181359389 2491.34725845534
2113.28247381809 2338.396214895697
2113.916613478492 2448.0534967520316
2114.550600376786 2372.136672944151
2115.1844345491445 2338.4393787065537
2115.818116031729 2296.010083465971
2116.451644860679 2298.4147692198244
2117.085021072133 2203.1716844871507
2117.718244702204 2186.949042902574
2118.3513157869984 2170.5860915638905
2118.984234362604 2125.978037424459
2119.617000465092 2344.2403972367847
2120.249614130529 2702.3729713526855
2120.8820753949585 2355.2919605893935
2121.5143842944162 2159.7936023735356
2122.14654086492 2302.872404118323
2122.7785451424734 2528.7638681442777
2123.4103971630702 2064.162946159251
2124.042096962681 2461.985465126788
2124.6736445772767 2545.3617035413395
2125.305040042802 2229.0175299126595
2125.936283395191 2288.928067266589
2126.567374670365 2454.117355913323
2127.198313904233 2196.798566025412
2127.8291011326855 2323.941867063477
2128.4597363916037 2451.075011628959
2129.0902197168507 2398.51503690712
2129.720551144279 2132.8777212727236
2130.3507307097225 2729.559394293436
2130.980758449008 2543.1761466609037
2131.6106343979427 2113.3276480869363
2132.2403585923203 2511.1146390661515
2132.8699310679276 2452.470912051057
2133.499351860526 2556.039281139446
2134.1286210058715 2215.009047062842
2134.7577385397053 1864.950438367331
2135.3867044977487 2433.726966910304
2136.0155189157176 2794.359624439582
2136.644181829308 2657.292762505155
2137.2726932742025 2164.314270520259
2137.901053286074 2631.3211218552433
2138.5292619005777 2057.433230692979
2139.1573191533535 2196.171081417757
2139.7852250800315 2354.066468452765
2140.4129797162295 2327.2890889962023
2141.0405830975433 1927.6201573419683
2141.6680352595613 2001.9573630499422
2142.2953362378576 2076.459778157582
2142.9224860679915 2160.601254130122
2143.549484785508 2189.2719048402423
2144.1763324259373 2143.300080674687
2144.803029024799 2297.3698708947913
2145.429574617594 2071.1582936626082
2146.0559692398165 2341.9492797322846
2146.682212926942 2083.3145064462
2147.308305714432 2375.769950240841
2147.9342476377333 2520.930657628722
2148.5600387322847 2746.369656299687
2149.185679033506 2390.2324146540527
2149.8111685768017 2311.5542950121844
2150.4365073975678 1984.323911418501
2151.061695531187 2171.0947706486922
2151.686733013021 2610.073424052153
2152.311619878423 2509.1804973593903
2152.9363561627342 2286.501860213415
2153.560941901278 1954.360471867412
2154.1853771293663 2415.3174253511233
2154.809661882293 2386.443149632354
2155.433796195348 2641.07101931321
2156.0577801037944 2544.8292577703696
2156.681613642895 2448.235823296066
2157.3052968478896 2063.3058498171818
2157.928829754006 2311.1042512663225
2158.552212396462 2452.3320720249844
2159.1754448104566 2283.4993417768937
2159.7985270311783 2000.0357099518758
2160.4214590938027 1777.026867424369
2161.0442410334927 1788.7218777129933
2161.6668728853874 2282.307472917865
2162.289354684628 2162.8515130811384
2162.911686466332 2211.4060947181692
2163.533868265602 2440.0134709551776
2164.1559001175337 2508.2149598988203
2164.7777820572046 2315.6926009868985
2165.399514119681 2307.125357063648
2166.021096340013 2082.852738092933
2166.6425287532384 2482.379810643163
2167.263811394385 2445.459361672009
2167.8849442984574 2408.6737820023473
2168.505927500455 2216.897942429609
2169.126761035366 2355.214052895018
2169.7474449381552 2122.892490106645
2170.367979243778 1816.8342890597773
2170.9883639871823 2399.90854324419
2171.608599203293 2157.8071578314984
2172.2286849270276 2794.1867738601045
2172.8486211932886 2733.426117887325
2173.4684080369625 2195.418147097754
2174.0880454929265 1927.731534301852
2174.7075335960417 1877.2939924858463
2175.3268723811543 1943.119464391944
2175.9460618831 2009.1386897812522
2176.565102136701 2205.315511818577
2177.1839931767627 2234.763908767374
2177.802735038078 2264.3222296819836
2178.421327755432 2204.761964381976
2179.0397713635866 2034.3652678532592
2179.658065897298 2097.0206181839517
2180.276211391305 2322.759322008248
2180.8942078803357 2081.9998258786336
2181.5120553991 2281.2582739562204
2182.129753982299 1888.2341936484852
2182.7473036646206 2182.9910175423856
2183.3647044807367 2217.7474233919625
2183.9819564653044 1990.29106360318
2184.599059652968 2303.919815242754
2185.216014078367 2286.533277819199
2185.832819776113 2384.517792559943
2186.4494767808137 2482.598458777553
2187.065985127063 2255.1690628487277
2187.682344849436 2124.60179421464
2188.298555982501 2374.6451657656858
2188.9146185608097 2179.824862716199
2189.530532618901 2333.7000605457415
2190.1462981912937 2309.7588588796316
2190.761915312507 2129.3973666237225
2191.377384017036 2305.574542965077
2191.9927043393654 2220.4932126883386
2192.6078763139667 1771.0791548371799
2193.2228999753006 1927.85093394808
2193.837775357808 2084.9732800161173
2194.452502495922 1835.3125009571072
2195.0670814240602 2213.88026907317
2195.6815121766285 1860.9754474226022
2196.2957947880186 1834.7108042155348
2196.9099292926057 1808.3995261153032
2197.523915724758 2280.6401180171342
2198.137754118825 2190.813156312534
2198.7514445091456 2608.1143340810613
2199.3649869300443 2525.545615984935
2199.9783814158327 2442.8901168103253
2200.5916280008096 2675.499018762032
2201.2047267192593 2533.409965651164
2201.8176776054515 2289.7654412320053
2202.430480693649 2113.5665278102647
2203.0431360180955 2265.055412779415
2203.6556436130195 2403.072858927461
2204.268003512645 1661.9192959172894
2204.8802157511727 2175.163785445309
2205.492280362796 2766.8522074027414
2206.1041973816937 2203.909528041544
2206.715966842032 2292.6737939786367
2207.3275887779655 2468.631142149697
2207.93906322363 2244.135681737548
2208.550390213153 2379.101427755808
2209.1615697806465 2353.328687440712
2209.7726019602105 1973.178947996632
2210.3834867859277 1836.2486243520148
2210.9942242918787 2136.6148644194627
2211.6048145121167 2157.375533106126
2212.2152574806914 2852.169346642925
2212.825553231638 2133.746544096858
2213.435701798975 2979.2762245626773
2214.045703216707 2143.161819369812
2214.655557518832 1609.3344044745797
2215.2652647393297 1946.7662766186118
2215.874824912169 2108.4455014713235
2216.4842380713 2270.7285082821927
2217.09350425067 1976.2179024830232
2217.7026234842033 2394.6464744986706
2218.311595805819 2441.8699158639147
2218.9204212494133 2006.4554481551247
2219.52909984888 2451.89344037477
2220.137631638092 2411.5753454733417
2220.7460166509154 2371.0208943933017
2221.354254921198 1938.833911391234
2221.9623464827764 2279.3463199689645
2222.5702913694713 2025.7588808717119
2223.178089615096 1953.5941902089507
2223.7857412534486 1881.2956940665986
2224.39324631831 1783.641126411129
2225.000604843457 2077.940355984938
2225.607816862641 2540.0635800209957
2226.214882409611 2423.674197088869
2226.8218015180973 2317.0589714565317
2227.4285742218217 2145.0345104889757
2228.0352005544864 2084.0876744195325
2228.6416805497847 1875.288890682031
2229.248014241399 1982.0256965313718
2229.8542016629945 1801.894808474611
2230.460242848223 2021.860208112846
2231.0661378307304 1975.143002821162
2231.671886644139 1928.4262712764655
2232.277489322065 1835.1997341516326
2232.8829458981127 1663.3764207753943
2233.48825640587 2004.8503309386329
2234.0934208789095 2230.3297038337446
2234.6984393507955 2456.144796342376
2235.3033118550793 2195.4798717098274
2235.9080384252975 1898.0500258337274
2236.5126190949723 1791.4817397232546
2237.1170538976166 2139.1685782001305
2237.721342866729 1847.0161523942163
2238.32548603579 2050.475757880052
2238.9294834382763 2219.0929566380787
2239.533335107646 2119.720579539974
2240.1370410773434 2092.045882491548
2240.740601380803 1985.04707433183
2241.3440160514474 2271.6423501080126
2241.9472851226783 2376.410828722842
2242.550408627896 2153.2256812566366
2243.1533866004793 2127.8000531997545
2243.756219073799 2102.3669184232463
2244.3589060812064 1968.4734347083795
2244.961447656049 1902.3050942325249
2245.5638438316564 2059.2511005771926
2246.166094641343 2090.7888301558014
2246.7682001184166 1980.2715508157573
2247.3701602961664 2044.4895098089132
2247.971975207871 2142.964390488797
2248.5736448867974 2399.031172196191
2249.175169366197 2048.9209163903975
2249.7765486793123 2119.158719781254
2250.3777828593684 2347.223074543575
2250.9788719395783 2266.9952486334705
2251.579815953146 2155.207595868068
2252.1806149332606 1899.9180988848493
2252.781268913097 2054.87901655284
2253.381777925817 1767.7635235774549
2253.9821420045737 2191.913799582175
2254.5823611825035 2473.0183460728877
2255.1824354927303 2139.3154689212447
2255.782364968365 1926.5637185549417
2256.38214964251 1713.5775377942748
2256.9817895482483 1801.8530461049868
2257.5812847186553 1930.8570643448397
2258.180635186791 1894.863214883198
2258.779840985704 2003.229753034621
2259.37890214843 2113.3397384133577
2259.97781870799 2564.115748975313
2260.5765906973957 2301.060506463459
2261.175218149645 2150.7033630770648
2261.773701097718 2338.371423719647
2262.3720395745895 1898.9552214202408
2262.970233613216 2092.650593308281
2263.568283246548 2024.6353713561352
2264.1661885075137 1918.5534181549126
2264.763949429038 1791.0292421320366
2265.3615660440246 2520.5972042681324
2265.959038385374 1913.4763490166679
2266.5563664859637 2487.7157799185916
2267.153550378669 1916.341522928356
2267.7505900963424 2295.3943186621987
2268.3474856718312 2017.189666662694
2268.9442371379664 2043.5601288096582
2269.5408445275643 1955.6086358897096
2270.1373078734377 1858.364271992506
2270.7336272083758 1760.9177203335753
2271.32980256516 2000.1289041519271
2271.925833976562 2083.43844924719
2272.5217214753357 2001.1537754218261
2273.117465094223 1918.6642437123028
2273.7130648659586 1937.4595643074317
2274.308520823257 1999.3711417905433
2274.903832998827 2275.518835131213
2275.4990014253563 1853.6896025917554
2276.094026135528 2321.5553518717115
2276.6889071620117 1925.121593461372
2277.2836445374614 2149.4458737849536
2277.878238294519 2214.64705852784
2278.472688465812 1925.2171664343666
2279.066995083962 1635.285160672617
2279.6611581815705 1968.3706681016477
2280.255177791232 1955.8782803207123
2280.8490539455233 2153.1427895308602
2281.442786677013 2350.8630258367207
2282.0363760182554 2283.0112399619597
2282.6298220017943 1981.5480671592893
2283.223124660155 2462.3271977687505
2283.816284025859 2009.2610953212672
2284.4093001314086 2406.9612037200695
2285.002173009292 1870.00283485818
2285.5949026919952 2227.7879482018825
2286.1874892119777 1924.5510839907008
2286.7799326016993 2240.6961362662014
2287.3722328936 1829.7059525578538
2287.964390120109 1759.1366588559958
2288.556404313642 2165.420871388874
2289.1482755066027 2536.0355171214096
2289.7400037313873 2146.9226228826233
2290.3315890203703 1848.697564026482
2290.9230314059205 2183.4904611653
2291.5143309203904 1933.9090666943725
2292.1054875961236 1908.6994537823005
2292.6965014654506 2494.9437154393117
2293.287372560684 1917.1441360120727
2293.878100914131 1919.1581874433057
2294.468686558086 1921.2383356032667
2295.059129524827 2136.500451026881
2295.649429846617 2377.6948081386226
2296.239587555716 2000.8472173507998
2296.8296026843636 2148.087677609161
2297.419475264791 2710.775875029914
2298.0092053292137 2601.310381340665
2298.598792909839 2491.488416666001
2299.1882380388597 2109.1171743470904
2299.777540748455 2113.0080730692866
2300.3667010707904 2116.7689151629847
2300.9557190380256 2408.391246448347
2301.544594682302 2179.3585001816073
2302.1333280357503 1950.0454991226227
2302.721919130485 2106.986789438116
2303.3103679986198 2532.7569518949126
2303.898674672242 2405.816825424513
2304.486839183437 1860.2738130884045
2305.0748615642697 2136.0489086300618
2305.6627418468015 2099.5486460239567
2306.2504800630704 1927.4235570838573
2306.8380762451143 1991.0796786649985
2307.425530424949 2093.751715237964
2308.012842634582 2196.64310025741
2308.6000129060103 2606.451370606909
2309.187041271214 2256.884287685293
2309.773927762164 2558.775304596557
2310.3606724108213 2265.4392856178742
2310.9472752491274 1810.0454720117566
2311.5337363090184 2233.443472765578
2312.120055622414 2031.9178450427298
2312.706233221221 2042.636934188077
2313.2922691373424 1750.2351606830216
2313.8781634026564 1841.7926928098864
2314.463916049037 1933.5456530739143
2315.049527108342 2343.697622380844
2315.6349966124235 2492.9978602476795
2316.2203245931123 2344.2490350131493
2316.8055110822315 1914.5609239206678
2317.3905561115935 1991.0488586682047
2317.9754597129977 1736.911059218083
2318.560221918229 1726.4432504130225
2319.1448427590603 1715.989311651727
2319.729322267256 1855.7733607048945
2320.313660474563 1934.5091816963802
2320.8978574127195 2062.636633063975
2321.481913113452 2191.206054986994
2322.0658276084705 1887.2674057848114
2322.6496009294806 1971.8070759556479
2323.233233108165 2001.3839381121306
2323.8167241762058 2213.6356902516623
2324.4000741652617 2169.684133728905
2324.983283106987 2459.775108172197
2325.5663510330232 2341.638214760086
2326.1492779749933 1985.5373494619803
2326.7320639645204 2462.74628584065
2327.3147090332004 1820.4269646122582
2327.897213212629 1978.74077084669
2328.4795765343843 2137.1219500512257
2329.0617990300307 2053.927278426213
2329.643880731124 2464.5068884894795
2330.22582166921 2136.1580395376254
2330.807621875816 1905.7264226340874
2331.3892813824623 1675.0898305685187
2331.9708002206517 1844.5895664779855
2332.5521784218818 1922.826276985083
2333.133416017634 2001.3079694079977
2333.7145130393765 1935.3470910588985
2334.295469518571 2365.0647118513343
2334.876285486658 2423.9302023796886
2335.456960975076 2358.3170140410175
2336.037496015242 2292.5980102626895
2336.6178906385667 2077.887261912784
2337.198144876451 2123.147899120402
2337.778258760278 2238.8564541192986
2338.3582323214214 1702.2307604964549
2338.938065591243 2111.6710142954043
2339.517758601087 2511.6470517338903
2340.0973113822965 2274.8470291716435
2340.676723966193 2058.1613720586133
2341.255996384094 2080.988804659757
2341.835128667295 2378.6711128922752
2342.4141208470883 2185.5750054045693
2342.992972954751 2269.2090118045708
2343.5716850215467 2228.162032866676
2344.1502570787306 1338.3414603972237
2344.7286891575386 1924.9775950477565
2345.3069812892045 2547.316557157459
2345.885133504944 2291.83212875646
2346.4631458359618 2009.6743847325256
2347.04101831345 1679.958350146627
2347.6187509685915 1937.291910584366
2348.196343832553 1804.1372472324063
2348.7737969364935 2128.16127461372
2349.351110311558 1905.9268366089068
2349.9282839888765 1879.2169599494532
2350.5053179995757 1681.1513498928987
2351.0822123747585 1670.1692449861227
2351.658967145526 1677.6545945433754
2352.2355823429643 1685.2506014352566
2352.812057998144 2086.932589337256
2353.3883941421263 1946.6873463248685
2353.9645908059647 2054.1876772562
2354.540648020693 1975.4010627632579
2355.116565817336 2141.442961546127
2355.6923442269126 2307.874862313426
2356.2679832804224 2204.4428030018676
2356.8434830088518 2037.0787573955652
2357.41884344318 1920.604068727295
2357.994064614377 1866.6987446758776
