#exp_cfg={"servo_angle": 0.0, "laser_lim": 100.0, "servo_angle_to": 18.0, "laser_wup": 0.0, "bt_dev": "EnSpectr-25AE3", "laser_wdn_max": 0.0, "frames": 10.0, "servo_used": 0, "servo_calib_use": 0, "laser_wdn_min": 0.0, "servo_pix_from": 90.0, "cooler_tout": 300.0, "servo_angle_from": 0.0, "servo_calib": "[-1.9174921013161362e-09, 3.9322238269163779e-05, -0.27385609119055809, 653.59552119713567]", "laser_autoctl": 0, "servo_pix_to": 3682.0, "laser_pw": 100.0, "cooler_on": 0, "laser_volt": 4.0, "cooler_autoctl": 0, "cooler_curr": 70.0, "cooler_startup": 10.0, "laser_fixed_pw": 0, "gain": 1.3, "offset": 2.53059635486, "servo_calib_degree": 3.0, "laser_curr": 55.0, "shutter": 8200.0, "servo_calib_step": 1.0, "laser_fixed_curr": 0, "exp": 2000.0, "ccd_volt": 4.7, "bt_addr": "00:06:66:62:5A:E3", "servo_delay": 500.0, "laser_autooff": 1}
#proc_cfg={"flat_auto_wnd": 200.0, "flat_auto_fr": 200.0, "flat_auto_shift": 5.0, "yconv": 1, "flatten": 1, "flatten_strength": 100.0, "xfrom": 300.0, "auto_max_frame": 2000.0, "auto_signal": 48000.0, "flat_auto_tol": 0.1, "autoclip": 1, "xrel_range": 0.0, "flat_auto_to": 4000.0, "intensity_adj": 1.0, "xrel": 7852.0, "rmhot": 1, "flat_auto_slit": 4.999999999999997, "auto_ini_exp": 300.0, "auto_off": 0, "xto": 2860.0, "flat_auto_ref": "", "flat_auto_rank": 1, "autobackg": 0, "xrel_adj": 0.0, "auto_black_lvl": 1, "base_wnd": 100.0, "sub_baseline": 0, "xconv": 2, "auto_max_exp": 1000.0, "auto_total_exp": 10000.0, "auto_exp": 0, "rmripple": 0, "black_lvl": 8275.1625, "shutter_clip_adj": 0.0, "auto_bckg": 0, "flat_auto_thr": 0.9, "subbackg": 1}
316.8218498245369 13902.17840509531
317.89969571804795 13741.286537269993
318.977263876126 13716.847759015067
320.05455438786703 13604.44438335482
321.1315673423287 13533.500580042495
322.2083028285215 13650.963930507063
323.2847609354267 13596.072617145575
324.3609417519747 13535.007183551128
325.43684536705587 13530.422863067197
326.5124718695279 13562.530600084187
327.58782134820103 13426.664249803474
328.66289389184385 13481.189820426802
329.7376895891921 13358.126509917198
330.8122085289342 13420.659605687839
331.88645079971866 13433.794533796046
332.9604164901575 13292.520988977489
334.03410568881554 13251.71213418256
335.1075184842266 13386.809952139336
336.18065496487543 13163.374176238305
337.2535152192122 13197.687254292574
338.32609933564163 13183.658110688548
339.39840740253203 12996.316546875334
340.4704395082099 12993.265339639252
341.5421957409617 12995.996384516919
342.6136761890357 13057.434020345041
343.6848809406365 12963.657323478401
344.75581008392874 12841.598495586126
345.82646370703696 12803.502217187079
346.8968418980512 12740.741935392505
347.96694474501055 12757.091599839398
349.0367723359268 12734.590964594956
350.106324758759 12616.798301910942
351.1756021014353 12590.196800199878
352.2446044518383 12593.91708908204
353.31333189781435 12659.933129656049
354.38178452716966 12546.210466321132
355.449962427665 12505.03022112258
356.51786568702846 12457.6063712419
357.58549439294256 12628.307124849398
358.6528486330535 12613.634317811275
359.71992849496564 12517.634161929582
360.7867340662433 12508.361374492784
361.8532654344144 12553.385674395167
362.9195226869597 12637.152323231883
363.9855059113288 12493.481139310641
365.05121519492604 12356.768374926478
366.11665062511565 12501.291649413106
367.1818122892273 12489.853615983691
368.2467002745434 12483.84044562343
369.31131466831175 12539.31073430365
370.375655557742 12477.426731300415
371.4397230299983 12470.77109900476
372.5035171722102 12404.80122569325
373.5670380714637 12413.670766944164
374.6302858148101 12514.316315176222
375.6932604892554 12395.213018958813
376.7559621817709 12424.240355391854
377.81839097928605 12354.034914973106
378.8805469686886 12359.427153300285
379.94243023683157 12429.862170467357
381.0040408705263 12254.863192551842
382.0653789565458 12232.691639362545
383.1264445816196 12304.293791380045
384.1872378324406 12246.469803342476
385.2477587956637 12283.596760983852
386.3080075579037 12154.259639165506
387.3679842057336 12096.316457271025
388.4276888256918 12175.113626308465
389.48712150426945 12051.011104095936
390.54628232792857 12184.05442754269
391.6051713830857 12048.816545051028
392.66378875611736 12122.55927467257
393.7221345333637 12056.30166254307
394.7802088011249 12026.631921150187
395.838011645661 12013.214893702852
396.89554315319765 11946.5398623568
397.9528034099112 11921.12240405476
399.00979250194723 11844.620675134709
400.06651051541485 11868.5058375506
401.1229575363741 11919.595856963087
402.17913365085224 11770.164895727123
403.23503894483656 11932.242930132417
404.2906735042761 11798.22101912688
405.3460374150818 11751.968043879544
406.401130763119 11813.619212791535
407.455953634224 11817.735115299596
408.5105061141876 11748.66208302775
409.56478828876243 11627.218607160958
410.6188002436629 11666.713752655503
411.6725420645689 11673.401968007794
412.72601383711117 11636.469835843433
413.77921564689314 11786.385732895387
414.8321475794728 11668.80738826466
415.88480972036814 11542.196252169355
416.93720215506437 11556.52069234716
417.9893249690049 11489.52814705732
419.04117824759123 11416.966677040175
420.09276207619223 11416.636112017231
421.144076540133 11496.47626399433
422.1951217247042 11451.386825515077
423.24589771515275 11441.101998599403
424.2964045966928 11439.719510342944
425.34664245449494 11462.25244658117
426.3966113736933 11377.90169370162
427.4463114393875 11350.925622025321
428.49574273662984 11334.36527173212
429.5449053504417 11255.274198737161
430.5937993658026 11345.072524037027
431.6424248676558 11287.409062632214
432.6907819409007 11217.625651817194
433.73887067040596 11262.69370856811
434.7866911409965 11335.60207399118
435.8342434374608 11238.334261533539
436.88152764455117 11176.268607377566
437.9285438469724 11175.97065490701
438.9752921294057 11210.93140745142
440.02177257648145 11203.675646641592
441.06798527279716 11094.774783651043
442.1139303029122 11244.568973966278
443.1596077513459 11438.828961330115
444.2050177025794 11200.697877937748
445.25016024105753 11221.355943544131
446.2950354511886 11282.408949589893
447.33964341733736 11275.087584565383
448.383984223834 11183.281227202177
449.4280579549686 11158.00383483336
450.471864694995 11263.352882354298
451.5154045281306 11275.92726775589
452.5586775385509 11189.51822516453
453.60168381039693 11266.606241140458
454.64442342776783 11405.476597949793
455.6868964747264 11279.157769371388
456.7291030353008 11260.916416791904
457.77104319347563 11479.597619220065
458.8127170332027 11461.01846176634
459.854124638392 11428.47117755079
460.895266092919 11597.648599437536
461.93614148061897 11646.80098082206
462.97675088529104 11743.351174581981
464.01709439069236 11856.216133256043
465.0571720805492 11849.172505283857
466.0969840385442 11884.067977862052
467.1365303483253 12065.697433626508
468.17581109350067 12049.41019197505
469.2148263576437 12057.432871718796
470.2535762242878 12158.947526789847
471.29206077693016 12190.241742542155
472.33028009902773 12283.279675951466
473.3682342740012 12186.644125460654
474.40592338523857 12121.60927682685
475.4433475160804 12070.938548057482
476.4805067498364 12102.135078472247
477.51740116978 11951.487094277834
478.5540308591426 12027.519653684503
479.59039590112116 12070.698855327211
480.6264963788726 11954.089009242998
481.6623323755193 12024.378331274487
482.6979039741436 12005.63223495454
483.7332112577915 12075.30736970538
484.76825430947247 12183.543694917375
485.80303321215797 12024.623009709063
486.837548048783 12050.861542568473
487.8717989022425 12145.546319911611
488.90578585539697 12122.31890657604
489.9395089910686 12199.261326950074
490.97296839203955 12024.85444621712
492.00616414106116 11923.930494470329
493.0390963208429 11907.602734511045
494.0717650140559 11915.659169913186
495.10417030333883 11772.887443737029
496.1363122712901 11788.520626358793
497.16819100046814 11606.561095592251
498.1998065734024 11511.300188373138
499.2311590725767 11485.190393292309
500.26224858044407 11416.179758031083
501.2930751794156 11399.064909026474
502.3236389518679 11376.714672388398
503.35393998014115 11274.569579527008
504.38397834653733 11228.79938317873
505.4137541333221 11339.34332686566
506.4432674227228 11166.136892146169
507.4725182969323 11092.367571462795
508.5015068381035 11079.484929764889
509.53023312835467 11141.064275794308
510.55869724976765 11022.276506953305
511.58689928438434 10934.821115887707
512.6148393142121 10936.339786565848
513.6425174212218 10997.677630701894
514.6699336873462 10887.258857288769
515.6970881944835 11064.09613386763
516.7239810244901 11002.794793700868
517.7506122591931 10929.24130834239
518.7769819803761 10926.706012759842
519.8030902697901 10981.411589090758
520.8289372091476 10935.49269690394
521.8545228801249 11009.46067024745
522.8798473643619 11038.824693638611
523.9049107434621 10958.874354637808
524.9297130989908 10981.817814414399
525.9542545124805 10967.570349665239
526.9785350654201 10941.539783303375
528.0025548392696 10898.46857912638
529.0263139154504 10856.274429305053
530.0498123753423 10996.572328353195
531.073050300296 10865.883870374695
532.0960277716204 10826.426809961127
533.1187448705896 10865.894708525226
534.1412016784416 10948.23147346693
535.1633982763833 10814.276035587049
536.1853347455726 10816.899245048684
537.2070111671401 10747.37289141434
538.2284276221817 10690.102416663081
539.2495841917516 10525.499551272482
540.2704809568677 10457.90028051125
541.2911179985167 10586.619642071351
542.3114953976419 10413.343080931718
543.3316132351592 10397.378056350262
544.3514715919409 10306.31595421272
545.3710705488247 10268.020692685042
546.3904101866156 10249.177793440773
547.4094905860784 10205.505596323494
548.4283118279418 10171.271511085752
549.4468739929034 10244.233446684051
550.4651771616191 10155.967561207239
551.4832214147063 10101.1431864445
552.501006832761 10162.425009015542
553.5185334963226 10091.043628698051
554.5358014859103 10091.21897449094
555.5528108820035 10107.906233438687
556.5695617650363 10066.372872824788
557.5860542154242 10109.46298429924
558.6022883135283 10100.887347393702
559.6182641396881 9988.128702438666
560.6339817741991 10065.354013316603
561.6494412973225 10063.005607709913
562.6646427892883 10073.379675655327
563.6795863302796 9962.131892420579
564.694272000459 10020.586191696146
565.7086998799423 10143.175135619178
566.7228700488104 9956.98774627894
567.7367825871115 9948.114307327374
568.7504375748576 9953.986721041056
569.7638350920224 10000.296062513535
570.7769752185486 10004.812410592807
571.7898580343353 9939.782743530948
572.802483619258 9882.991980617488
573.8148520531431 10087.459284069606
574.8269634157932 10024.415685702066
575.8388177869692 9940.957008434521
576.8504152463938 9930.647835205004
577.8617558737587 10063.261062238067
578.8728397487175 9970.77684436028
579.883666950891 10000.528248799515
580.8942375598654 10090.6094680618
581.9045516551851 10166.4030493431
582.9146093163617 10394.999155155087
583.924410622878 10137.101467460709
584.9339556541727 10197.210305550287
585.9432444896538 10274.394859692922
586.9522772086875 10295.463109041517
587.9610538906127 10281.610658451622
588.9695746147318 10222.959143791491
589.9778394603054 10320.725801478613
590.985848506567 10209.733789713377
591.9936018327098 10179.509326550942
593.0010995178891 9981.117151025366
594.0083416412344 10065.79602879835
595.0153282818283 9907.538560552392
596.0220595187293 9860.987648741799
597.0285354309508 9803.541917003013
598.0347560974806 9855.665506631794
599.0407215972609 9773.046366255605
600.0464320092051 9807.86274206244
601.0518874121954 9814.557355512192
602.0570878850685 9797.820967105643
603.062033506636 9768.050919985208
604.0667243556636 9804.574933965381
605.0711605108936 9684.179544474657
606.0753420510264 9924.415536413104
607.0792690547278 9696.490966722062
608.082941600629 9720.645959506128
609.0863597673306 9787.510111571828
610.0895236333909 9852.189338157588
611.0924332773357 9999.973158514427
612.0950887776617 9899.51453909714
613.0974902128219 9904.979750716764
614.0996376612384 10069.760374795964
615.1015312013005 10125.293616078428
616.1031709113595 10171.1458399539
617.1045568697336 10077.162869802385
618.1056891547069 10189.873790962203
619.1065678445229 10265.1176305562
620.1071930173985 10522.255344815494
621.1075647515099 10462.301626331995
622.1076831250048 10435.547827983773
623.1075482159849 10634.81860799627
624.1071601025305 10658.071521327403
625.1065188626781 10755.130419079524
626.105624574433 11006.262104161393
627.1044773157682 11132.772857568929
628.1030771646128 10999.620383824065
629.1014241988742 11153.236842488423
630.0995184964158 11305.408206656957
631.0973601350688 11331.283257842078
632.0949491926294 11506.850981690366
633.0922857468631 11269.023255808077
634.089369875499 11403.606241690411
635.0862016562278 11331.674407860715
636.0827811667077 11157.273909841944
637.0791084845641 11144.892683455104
638.0751836873878 11087.464350189342
639.0710068527369 11102.420742556233
640.0665780581294 10925.245914398804
641.0618973810506 10810.752227897508
642.0569648989604 10855.46130863973
643.0517806892676 10549.435838316786
644.0463448293649 10615.116684672932
645.040657396592 10461.011028228922
646.0347184682723 10353.410841279188
647.0285281216875 10179.47735816716
648.0220864340772 10185.211618843616
649.0153934826558 10042.986800233704
650.0084493446047 9995.187912932613
651.0012540970674 9992.949886149056
651.9938078171526 9841.225651918194
652.9861105819346 9841.072918875869
653.9781624684565 9862.638345057176
654.9699635537254 9624.31440371674
655.9615139147136 9775.01524219794
656.9528136283589 9581.008604997356
657.9438627715699 9704.982471527666
658.9346614212154 9582.24389421375
659.925209654135 9445.378941685798
660.9155075471263 9500.34394868906
661.9055551769616 9443.436074228415
662.895352620375 9516.589397435051
663.8848999540678 9492.411120396182
664.8741972547068 9327.094061648955
665.863244598926 9323.090666353926
666.8520420633213 9392.622982125908
667.8405897244611 9292.79711125547
668.8288876588758 9212.490962388589
669.8169359430613 9359.457955052196
670.8047346534822 9412.592958351315
671.7922838665672 9205.867027634937
672.7795836587156 9367.26064791557
673.766634106285 9351.367944895745
674.7534352856092 9238.159122439129
675.7399872729766 9232.180968474415
676.7262901446538 9225.325302572392
677.712343976862 9239.707022171116
678.6981488457986 9316.36708672626
679.6837048276229 9108.637740346716
680.6690119984596 9237.090200232771
681.6540704344043 9120.555367764422
682.6388802115107 9122.805785391953
683.6234414058108 9114.006178744221
684.6077540932874 8959.070687034608
685.591818349907 8992.445838726037
686.575634251587 9032.459063512657
687.5592018742263 8987.976209243434
688.5425212936734 8794.928619439606
689.5255925857564 9055.912256965143
690.5084158262707 8913.986539806278
691.4909910909646 8870.714191581328
692.4733184555644 8784.10784707574
693.4553979957618 8850.719311846256
694.4372297872123 8914.665357903772
695.4188139055404 8790.912735814965
696.4001504263324 8641.281674117594
697.3812394251509 8872.907456782073
698.3620809775111 8825.529856654131
699.3426751589104 8735.363646685399
700.3230220448004 8680.802800580746
701.3031217106054 8730.214474632101
702.2829742317172 8871.335487989614
703.2625796834873 8595.331658584731
704.2419381412474 8677.603517267375
705.22104968028 8738.72047281182
706.1999143758458 8657.919441422257
707.178532303169 8702.102604971244
708.1569035374378 8702.10462099906
709.1350281538107 8747.25921314408
710.1129062274158 8684.236633602644
711.0905378333373 8730.744626137548
712.0679230466376 8677.868178799112
713.0450619423427 8838.893868316318
714.0219545954424 8921.322126942305
714.9986010808989 8733.780083522866
715.9750014736292 8804.17699189561
716.9511558485392 8903.705929999333
717.9270642804786 8950.039706870639
718.9027268442787 8967.480362079255
719.8781436147328 8925.915400775566
720.8533146666014 8890.018167260256
721.828240074612 8913.437602324615
722.8029199134635 8883.725348022577
723.7773542578125 8809.446716739685
724.751543182294 8806.829419299385
725.7254867615029 8848.362057625764
726.6991850700015 8600.221525070245
727.6726381823228 8724.501630295534
728.6458461729599 8669.27065040194
729.6188091163858 8575.768872045273
730.5915270870246 8702.386024501224
731.5640001592856 8515.767502154855
732.536228407529 8559.273792248718
733.5082119060917 8662.732930700724
734.4799507292755 8489.652437506771
735.4514449513481 8475.046623628063
736.4226946465496 8521.349052807414
737.3936998890786 8596.613538443253
738.3644607531078 8498.630272348051
739.3349773127793 8486.798930622232
740.3052496421951 8557.071862155264
741.27527781543 8344.332718755973
742.2450619065221 8356.610521716368
743.2146019894826 8395.072711332858
744.183898138288 8436.643867754594
745.1529504268801 8349.08135849149
746.1217589291682 8216.049740843697
747.0903237190341 8266.117011239377
748.058644870318 8327.644477660127
749.0267224568397 8237.07817529013
749.994556552374 8131.307501807171
750.9621472306771 8201.213241484209
751.9294945654583 8190.975915068196
752.8965986304011 8206.097248658878
753.8634594991636 8150.761881149467
754.8300772453586 8247.646717230058
755.7964519425768 8203.142643434614
756.762583664371 8270.28531272192
757.7284724842611 8217.771282477737
758.6941184757416 8182.814132466412
759.6595217122667 8147.291582244856
760.6246822672638 8229.797283810607
761.5896002141235 8081.896634194753
762.5542756262093 8213.625642121044
763.5187085768503 8200.979454019176
764.4828991393406 8045.138013707046
765.4468473869474 8122.754371773926
766.4105533929032 8164.580641281119
767.3740172304078 8024.872973759081
768.3372389726283 8150.696293825223
769.3002186926988 7944.715756627617
770.2629564637282 7955.6207575145645
771.2254523587872 8090.2512860264715
772.1877064509154 7893.295084507879
773.1497188131179 7827.2328882862885
774.1114895183728 7867.071484884624
775.0730186396268 7801.919053374285
776.0343062497905 7765.102905894838
776.9953524217381 7761.678072805878
777.9561572283274 7854.691424043218
778.9167207423689 7758.194489483399
779.8770430366476 7687.605570880146
780.8371241839159 7741.105141929564
781.7969642568951 7737.500416863799
782.7565633282757 7918.831092647223
783.7159214707099 7724.846720972497
784.6750387568281 7743.111353307826
785.6339152592227 7717.96980053352
786.5925510504512 7646.428857033619
787.5509462030477 7753.655415025571
788.5091007895098 7721.6384051050745
789.4670148823006 7647.566035609982
790.4246885538596 7719.804135916334
791.3821218765861 7744.289432551547
792.3393149228505 7555.093808755717
793.2962677649975 7701.476249330595
794.2529804753303 7806.861040009988
795.20945312613 7736.417761628715
796.1656857896378 7639.988110443465
797.1216785380675 7590.760956068436
798.0774314435985 7735.786322351501
799.0329445783846 7883.3995518355705
799.9882180145414 7804.598682247658
800.9432518241574 7725.269472353095
801.89804607929 7793.943012589288
802.852600851962 7845.393126535013
803.8069162141637 7858.553320619174
804.760992237856 7892.030924763052
805.714828994971 8028.29086519201
806.6684265574077 8030.557512218215
807.6217849970271 7929.612404606114
808.574904385674 7901.621688281113
809.527784795142 8060.985297719155
810.4804262972102 8064.8638864372315
811.4328289636178 7836.777140417641
812.3849928660748 7680.272037496393
813.3369180762638 7696.95240241109
814.2886046658241 7788.913119417122
815.2400527063783 7591.875141215738
816.1912622695108 7622.121655898161
817.1422334267718 7638.577090943725
818.0929662496856 7571.0314260119585
819.0434608097457 7473.019406441174
819.9937171784059 7436.950986831672
820.9437354271013 7437.513373905315
821.8935156272255 7574.9837524511895
822.8430578501484 7321.530857875028
823.7923621672016 7209.025510298896
824.7414286496896 7275.094368667627
825.6902573688876 7342.411270975148
826.6388483960363 7324.839546282967
827.5872018023492 7233.493573092031
828.5353176590033 7363.317866815174
829.4831960371503 7216.5058289154285
830.4308370079016 7194.455482882736
831.3782406423525 7216.088615638508
832.3254070115545 7216.516211333548
833.2723361865319 7121.543592636607
834.2190282382799 6994.8150977023715
835.1654832377644 7089.715194001312
836.1117012559116 7010.058522767946
837.0576823636256 7246.0326044755275
838.003426631778 7005.394583305769
838.9489341312074 7020.113615321931
839.8942049327197 7140.049173626973
840.8392391070975 7210.719727514147
841.7840367250865 7074.870883474565
842.7285978573982 7018.463756631885
843.672922574724 7109.668362595791
844.6170109477152 6982.657730369468
845.560863046996 7059.774935218658
846.5044789431595 6996.288611462468
847.4478587067697 6996.876312326337
848.3910024083561 7183.607024341943
849.333910118421 7047.523784410818
850.2765819074339 7076.159619863778
851.2190178458332 7126.865926385801
852.161218004032 7115.317710266757
853.1031824524016 7114.28648469431
854.0449112612987 6979.028284075319
854.9864045010327 7136.611278180646
855.9276622418947 6990.90806999123
856.8686845541379 7020.370423639766
857.8094715079915 7001.794026431856
858.7500231736467 7158.476366083678
859.690339621271 7024.75859942503
860.6304209209939 7016.056344496804
861.5702671429244 6878.906471786501
862.5098783571284 7072.16552308422
863.4492546336569 7043.881964054551
864.3883960425155 7012.567025537588
865.3273026536863 6972.492134357017
866.2659745371238 6992.734551699502
867.2044117627465 7125.225959835496
868.1426144004472 6955.7894944636155
869.0805825200823 7028.820235330936
870.0183161914847 7058.444657212475
870.9558154844526 7162.971581946382
871.8930804687552 7107.82769408807
872.8301112141307 6978.276398758224
873.7669077902865 7170.6115509292285
874.7034702669062 7258.062979247901
875.6397987136315 7153.865524411599
876.5758932000863 7149.494724454817
877.5117537958522 7268.384507812194
878.4473805704911 7142.317262340184
879.3827735935283 7166.27962315488
880.3179329344603 7257.686868962975
881.2528586627541 7344.6201245442735
882.1875508478479 7328.139566435233
883.1220095591489 7241.193695144664
884.0562348660296 7133.260315259824
884.9902268378391 7399.75375320437
885.9239855438955 7248.993088342536
886.8575110534839 7120.385109233951
887.7908034358588 7175.999791495257
888.7238627602474 7181.834845857896
889.6566890958475 7137.174652027318
890.5892825118208 7008.930194304672
891.5216430773125 7035.556848752302
892.4537708614189 7118.777546788634
893.3856659332196 7003.517882935065
894.3173283617652 6960.864009408838
895.2487582160684 7034.1548697821545
896.179955565116 6910.2716056331
897.110920477864 6817.721270736151
898.0416530232451 6911.603145141644
898.9721532701478 6806.197721305126
899.9024212874428 6905.271044913972
900.8324571439662 6829.803765589725
901.7622609085302 6766.06205710798
902.6918326499072 6715.924708739129
903.6211724368477 6807.202934778414
904.5502803380696 6886.3495451381195
905.4791564222614 6882.096252280566
906.4078007580792 6793.6417286213855
907.3362134141571 6752.627388376153
908.2643944590909 6878.550485431593
909.1923439614493 6705.678480946486
910.1200619897754 6710.97217891285
911.0475486125779 6882.986697987263
911.9748038983344 6779.943035075514
912.9018279155007 6693.028924426912
913.8286207324982 6612.209802795621
914.7551824177117 6697.419845902387
915.6815130395116 6593.686328844748
916.6076126662283 6589.199791057368
917.533481366163 6617.36330108462
918.4591192075914 6658.75535156483
919.3845262587565 6712.640524702301
920.3097025878706 6557.657675895245
921.2346482631237 6556.896735775097
922.1593633526682 6648.299440056819
923.0838479246304 6664.456819035315
924.0081020471061 6702.527414803268
924.9321257881656 6543.00338879781
925.8559192158464 6592.878850188373
926.7794823981512 6558.099758885806
927.7028154030686 6485.270382080157
928.6259182985414 6435.467958695232
929.5487911524906 6629.766863395048
930.4714340328119 6626.701174870204
931.3938470073608 6431.597888020542
932.3160301439748 6490.044997008596
933.2379835104548 6526.010822947097
934.1597071745709 6629.1433431960195
935.0812012040769 6535.888735431922
936.002465666681 6613.982788270148
936.9235006300696 6678.563426578819
937.8443061619055 6561.616870800249
938.7648823298077 6407.631212213876
939.6852292013809 6417.43239607266
940.6053468441951 6569.008314315943
941.5252353257874 6429.109404781468
942.4448947136698 6534.575146293039
943.364325075323 6470.847516047758
944.2835264782043 6480.275156260695
945.2024989897309 6456.486545940408
946.1212426773054 6432.994375097938
947.0397576082851 6506.489119022075
947.9580438500125 6553.200476969634
948.8761014697939 6541.589959683092
949.7939305349064 6531.247407636751
950.7115311125999 6434.239177286966
951.6289032700952 6403.722820513213
952.5460470745875 6565.770886364317
953.4629625932339 6447.909406631906
954.3796498931715 6563.2928662234435
955.2961090415029 6521.375895996338
956.2123401053068 6471.039729746984
957.1283431516276 6529.075112592216
958.0441182474842 6388.680307868818
958.9596654598663 6603.638456647294
959.8749848557309 6433.647381941366
960.7900765020167 6386.326336534732
961.7049404656209 6349.240839246455
962.6195768134185 6475.915760482799
963.5339856122537 6491.223487284801
964.4481669289453 6463.5910818129505
965.3621208302793 6485.857348461408
966.2758473830145 6420.221350135193
967.1893466538822 6573.277667929872
968.1026187095813 6457.233426599848
969.0156636167867 6420.548692337244
969.9284814421426 6512.471134211437
970.8410722522622 6451.107388038319
971.753436113735 6453.012010853209
972.6655730931161 6338.787842443503
973.5774832569368 6497.0227870317485
974.4891666716958 6370.519468836506
975.4006234038698 6322.554088060666
976.3118535198955 6368.673908513029
977.2228570861935 6461.12293560219
978.1336341691494 6476.325290969278
979.0441848351202 6322.977996513645
979.9545091504333 6449.002270849479
980.864607181391 6440.105498984782
981.7744789942699 6463.892711206647
982.6841246553086 6436.076996070806
983.5935442307236 6424.783293973778
984.5027377867027 6470.894194436798
985.4117053894024 6493.138140714547
986.3204471049557 6418.47027860354
987.2289629994648 6555.858294165686
988.1372531390007 6554.403040872142
989.0453175896091 6426.869311819239
989.9531564173067 6491.419166646632
990.860769688079 6393.368093471124
991.7681574678918 6409.818547583761
992.6753198226706 6453.419452752173
993.582256818323 6420.157451301298
994.4889685207218 6459.419844463584
995.3954549957143 6583.121869567776
996.301716309119 6531.085009099067
997.2077525267232 6514.197232666663
998.1135637142943 6454.035296387195
999.0191499375615 6565.5130628219285
999.924511262232 6576.017925532964
1000.8296477539861 6570.125625251426
1001.7345594784656 6507.730511648205
1002.6392465012996 6457.920019525271
1003.5437088880753 6554.2757921985685
1004.4479467043584 6519.550671099436
1005.3519600156869 6425.6000109771885
1006.2557488875718 6595.2746801827325
1007.1593133854858 6507.068729577962
1008.0626535748888 6408.051614035884
1008.9657695212009 6354.194260405952
1009.8686612898182 6619.921486648297
1010.7713289461135 6581.788805293871
1011.6737725554212 6466.7955489121405
1012.5759921830577 6425.347840257639
1013.4779878943027 6484.283980821208
1014.379759754418 6485.511791479086
1015.2813078286254 6383.91649545598
1016.18263218213 6373.393102289004
1017.0837328801026 6351.556451750235
1017.9846099876886 6449.865181572072
1018.8852635700023 6303.086679281065
1019.7856936921362 6331.149325991153
1020.6859004191447 6443.557537333488
1021.5858838160675 6294.677805153772
1022.4856439479063 6268.1500094063795
1023.3851808796389 6209.645164923079
1024.2844946762143 6404.246882445037
1025.183585402554 6338.017763360472
1026.082453123554 6147.1604342910005
1026.9810979040776 6229.771365084573
1027.8795198089647 6167.073452051974
1028.777718903024 6242.28780161865
1029.6756952510368 6213.626973603214
1030.5734489177648 6162.441003180303
1031.4709799679313 6192.556929091441
1032.3682884662358 6374.642109024689
1033.2653744773506 6092.528014331191
1034.1622380659192 6091.878533383275
1035.058879296559 6256.60274185952
1035.9552982338591 6268.823700594943
1036.8514949423825 6177.313128263748
1037.7474694866614 6192.412891287378
1038.6432219312028 6113.5491700686525
1039.5387523404825 6237.785407266412
1040.4340607789582 6134.482278083928
1041.3291473110476 6154.421812058851
1042.2240120011465 6316.209771746318
1043.1186549136273 6316.337686156816
1044.0130761128294 6168.4792942331405
1044.9072756630649 6118.222611440257
1045.8012536286205 6318.786563909989
1046.6950100737577 6268.762610330212
1047.588545062701 6375.549970693906
1048.481858659663 6317.933925794369
1049.3749509288118 6459.080617549345
1050.2678219343034 6283.579639362597
1051.1604717402515 6326.021729777368
1052.0529004107575 6267.214358884592
1052.9451080098825 6375.864520428182
1053.8370946016694 6387.789142866888
1054.7288602501267 6388.841949899448
1055.6204050192446 6315.860417334693
1056.511728972977 6417.713638062677
1057.402832175254 6282.117145093688
1058.2937146899785 6223.124367380013
1059.1843765810263 6248.599403098457
1060.0748179122456 6403.90941941406
1060.9650387474576 6205.447198468094
1061.855039150456 6256.654680504873
1062.7448191850071 6279.220551541071
1063.6343789148505 6301.728423609921
1064.5237184037014 6276.506018379595
1065.412837715241 6183.265786016958
1066.3017369131267 6159.297602630472
1067.190416060992 6132.602665975155
1068.0788752224398 6055.923250503957
1068.9671144610438 6086.304486703962
1069.8551338403558 6155.753449799933
1070.7429334239023 6204.746158024973
1071.6305132751695 6002.258603210344
1072.517873457633 6082.807412981273
1073.4050140347335 6078.744337356839
1074.2919350698776 6045.110631745704
1075.1786366264623 6071.915802809535
1076.0651187678395 5996.744239514877
1076.95138155735 5906.8769223228255
1077.8374250582929 5974.611501102644
1078.7232493339507 6074.098183391626
1079.608854447577 5979.152000312004
1080.4942404623907 5956.785200230805
1081.3794074415982 6019.657397884825
1082.2643554483657 6021.169025012308
1083.149084545841 5967.808819267781
1084.033594797138 5914.102327028993
1084.9178862653516 5982.01936378145
1085.8019590135427 6055.110010268294
1086.6858131047484 5839.938988495618
1087.5694486019802 6037.55746482681
1088.4528655682225 5979.955404418389
1089.3360640664287 6054.0542465586095
1090.2190441595321 6004.794324054941
1091.1018059104317 6004.510989969518
1091.98434938201 6104.097041893236
1092.866674637111 6088.094140503146
1093.748781738559 5992.956680591842
1094.6306707491512 5846.623971594346
1095.5123417316554 6060.495460027866
1096.3937947488157 5961.962168961825
1097.2750298633455 5945.874693405714
1098.156047137938 5965.796216518561
1099.0368466352556 5989.34931835198
1099.9174284179317 6089.813605754776
1100.7977925485757 5834.421059348924
1101.6779390897755 5854.282583804377
1102.5578681040806 5924.734587652256
1103.4375796540226 6004.852918686907
1104.3170738021054 5966.660359458045
1105.1963506108077 5790.992710648656
1106.0754101425773 5877.761219346649
1106.9542524598382 5939.865303730979
1107.8328776249855 5983.242002635977
1108.7112857003904 5882.780799333066
1109.5894767483987 5898.091347206866
1110.4674508313292 6036.007795953636
1111.3452080114657 5946.668461261701
1112.2227483510815 5990.961502742148
1113.1000719124077 6018.208004461882
1113.9771787576592 6105.441136486762
1114.854068949022 6001.0987308946915
1115.7307425486542 6115.132280674948
1116.6071996186893 6193.883369448546
1117.483440221229 6383.621506965578
1118.3594644183577 6094.506730511386
1119.235272272128 6168.687047249035
1120.1108638445658 6289.906687290482
1120.9862391976712 6389.039564218679
1121.8613983934229 6318.565114805003
1122.7363414937627 6453.534943162709
1123.6110685606182 6395.111606006419
1124.485579655884 6592.131900986693
1125.359874841426 6472.542361142624
1126.2339541790916 6468.620531062422
1127.1078177306936 6641.647815419184
1127.9814655580267 6470.008975758031
1128.854897722851 6585.812133385322
1129.7281142869106 6477.0949506411625
1130.6011153119125 6545.914366147257
1131.473900859548 6686.968862892301
1132.3464709914697 6483.865566591544
1133.2188257693178 6470.350800998948
1134.0909652546961 6404.160959731931
1134.96288950919 6288.171610163049
1135.8345985943506 6491.8962951139865
1136.7060925717087 6271.651965721821
1137.57737150277 6339.29738936211
1138.4484354490069 6390.887064507981
1139.3192844718778 6214.131162741572
1140.1899186327992 6015.5621799305245
1141.060337993178 6232.602330279059
1141.930542614382 6076.929905877192
1142.8005325577597 5996.661856886815
1143.670307884635 5871.567832746367
1144.5398686563003 6018.179950981169
1145.409214934025 5969.739109899941
1146.2783467790541 5741.970036568286
1147.1472642526023 5913.863770320729
1148.0159674158622 5956.707164711832
1148.8844563300026 5752.649697660575
1149.7527310561618 5642.554562657328
1150.6207916554504 5556.016841560499
1151.4886381889592 5683.660226359908
1152.3562707177498 5748.8201823935
1153.2236893028585 5629.674642422151
1154.090894005296 5535.529569469015
1154.9578848860474 5662.251120804338
1155.8246620060709 5609.271698299044
1156.6912254262988 5436.742320511116
1157.5575752076438 5484.729949025254
1158.42371141098 5663.485302221326
1159.2896340971656 5675.285885955878
1160.1553433270346 5550.185301474961
1161.0208391613887 5608.4985814909505
1161.8861216610057 5646.341512130685
1162.75119088664 5676.485804393846
1163.6160468990201 5583.541517703416
1164.4806897588442 5546.328319683316
1165.3451195267917 5649.25716216292
1166.2093362635114 5616.243540804566
1167.0733400296285 5532.562448623209
1167.9371308857444 5550.378447807475
1168.8007088924278 5490.241507416062
1169.6640741102328 5552.3189334310355
1170.5272265996773 5429.957220682978
1171.390166421259 5487.259870669445
1172.252893635452 5586.357569197257
1173.1154083026995 5730.111773602663
1173.977710483421 5659.660703500978
1174.8398002380145 5522.858545909642
1175.7016776268483 5607.257713909674
1176.563342710264 5706.867141190886
1177.4247955485826 5550.208200985923
1178.2860362020947 5667.097910194404
1179.147064731069 5563.398143460921
1180.0078811957483 5703.2116653671965
1180.8684856563486 5652.374278934823
1181.7288781730604 5656.984859951307
1182.589058806052 5691.990919556675
1183.4490276154593 5833.071303953338
1184.3087846614017 5754.730393877746
1185.1683300039676 5779.912110265484
1186.027663703222 5946.929697215493
1186.8867858192025 5807.591964046874
1187.7456964119228 5838.341310683106
1188.6043955413716 5848.231510740165
1189.4628832675116 5895.936171144711
1190.3211596502842 6015.805481507422
1191.179224749596 6038.34027733176
1192.0370786253388 5911.572565853904
1192.8947213373758 6135.7345767208435
1193.7521529455407 6247.515959613667
1194.6093735096438 6020.427716946475
1195.466383089477 6026.518237849314
1196.3231817447977 6099.506866857771
1197.1797695353398 6142.8087525462015
1198.0361465208189 5989.259047563749
1198.8923127609214 5939.813518681649
1199.7482683153048 6217.589562649001
1200.6040132436028 6309.140721012582
1201.459547605431 6109.880525247612
1202.3148714603722 6160.519606765747
1203.1699848679855 6199.8434741561305
1204.0248878878065 6266.941902677415
1204.8795805793507 6027.212929634884
1205.7340630020935 6181.358567491734
1206.5883352155033 6255.89745287597
1207.4423972790064 6256.656952361513
1208.2962492520237 6059.4206294242185
1209.1498911939307 6118.945384860295
1210.0033231640937 6102.353531591944
1210.8565452218427 6130.68421931897
1211.7095574264913 5954.267163597321
1212.5623598373222 5918.844251489563
1213.4149525135963 5936.528278080681
1214.2673355145507 6007.424604164378
1215.1195088993936 5823.659404267531
1215.9714727273113 5858.377253475418
1216.8232270574663 5980.150154671061
1217.6747719489904 5739.30889920178
1218.5261074609934 5718.834054707157
1219.3772336525653 5805.815700503427
1220.2281505827668 5901.400144446445
1221.0788583106296 5953.720659171986
1221.9293568951707 5703.670314921861
1222.7796463953746 5632.79709833334
1223.629726870202 5733.80237517978
1224.4795983785934 5724.8869512442925
1225.3292609794553 5732.0810029052345
1226.1787147316809 5549.008961926454
1227.0279596941327 5540.049115567614
1227.8769959256424 5546.980261596554
1228.7258234850306 5572.703797997356
1229.5744424310833 5353.815422035052
1230.422852822563 5647.545024969502
1231.2710547182105 5721.749679624047
1232.119048176739 5508.69140159921
1232.9668332568417 5314.141950094619
1233.8144100171812 5519.3613969401795
1234.6617785163999 5479.052785005012
1235.508938813111 5204.798814137179
1236.3558909659114 5376.37191147505
1237.2026350333617 5457.869054880151
1238.049171074008 5527.47734037919
1238.8954991463652 5330.403879898562
1239.741619308932 5355.227356248839
1240.587531620169 5436.753710429975
1241.4332361385277 5517.048999680566
1242.2787329224248 5321.751703533488
1243.1240220302534 5268.99005414835
1243.9691035203869 5311.040537298368
1244.813977451171 5568.691161721584
1245.6586438809263 5381.139285361911
1246.5031028679496 5157.377111661429
1247.3473544705157 5399.832010405067
1248.1913987468706 5255.535336778068
1249.0352357552383 5250.782330120497
1249.8788655538228 5239.484766086263
1250.7222882007918 5403.752983350164
1251.565503754302 5331.601629913517
1252.4085122724755 5092.886554312593
1253.2513138134182 5390.027310491767
1254.0939084352049 5325.558105942562
1254.9362961958905 5256.950355237582
1255.7784771535007 5222.407758008563
1256.6204513660432 5195.09083790051
1257.4622188915 5463.214045629624
1258.3037797878242 5198.219647370837
1259.1451341129468 5164.630617722409
1259.9862819247755 5354.789753653758
1260.8272232811978 5299.111099917829
1261.6679582400666 5421.034676115292
1262.5084868592203 5146.612687714402
1263.34880919647 5153.440836225664
1264.1889253095997 5366.181203081677
1265.0288352563712 5367.272561897061
1265.8685390945266 5174.829791003712
1266.7080368817751 5293.011359626818
1267.5473286758115 5474.693681507226
1268.386414534294 5320.849028138783
1269.2252945148703 5040.5268467681635
1270.0639686751547 5168.94159525999
1270.9024370727402 5215.475563426482
1271.7406997651997 5196.159103748062
1272.5787568100714 5080.938800147795
1273.4166082648808 5131.263278980246
1274.2542541871244 5223.982792940438
1275.091694634275 5477.171645351069
1275.9289296637817 5031.675183916024
1276.7659593330663 5217.916770350552
1277.6027836995308 5161.542007603015
1278.4394028205552 5292.051402961659
1279.2758167534867 5204.635619002015
1280.112025555658 5141.16799421327
1280.9480292843746 5283.27122239172
1281.7838279969128 5023.880621009918
1282.6194217505326 5159.758716183552
1283.4548106024686 4972.2765238900765
1284.289994609926 5215.54333075091
1285.1249738300921 5150.7125458885885
1285.959748320127 5148.3036046326615
1286.7943181371702 5187.010870771769
1287.6286833383328 5238.580983666566
1288.4628439807038 5264.835423363432
1289.2968001213521 5131.417200768397
1290.1305518173194 5171.780357060254
1290.9640991256183 5276.451105683672
1291.7974421032523 5090.848512539167
1292.630580807183 5106.46322219921
1293.463515294361 5255.4511991360505
1294.29624562171 5347.517817584341
1295.12877184613 5197.096698734136
1295.961094024493 5252.234142126024
1296.79321221365 5294.614216171269
1297.6251264704333 5309.377815109454
1298.4568368516466 5525.625346198242
1299.2883434140658 5293.406422069555
1300.1196462144526 5206.574156707451
1300.9507453095375 5459.646793923919
1301.7816407560313 5285.442415943943
1302.6123326106172 5367.5586961714125
1303.4428209299622 5278.104386842824
1304.2731057707024 5585.1038600590855
1305.1031871894502 5390.407107738233
1305.933065242798 5423.928125495856
1306.7627399873181 5393.964150090915
1307.5922114795467 5706.944329957143
1308.4214797760123 5846.666081643075
1309.2505449332057 5485.462508148779
1310.0794070076026 5437.403908307288
1310.9080660556538 5637.022087352867
1311.736522133786 5601.248352352324
1312.5647752983987 5445.6520533169405
1313.3928256058734 5301.7852318828245
1314.2206731125661 5637.332182549349
1315.048317874809 5620.7329374569445
1315.8757599489109 5431.233825559654
1316.7029993911547 5595.083050182167
1317.5300362578055 5581.524219574505
1318.356870605101 5474.047459403176
1319.183502489257 5464.576253417418
1320.0099319664623 5562.461434439943
1320.836159092889 5555.843217012266
1321.66218392468 5529.609805713606
1322.4880065179532 5365.031980062886
1323.3136269288134 5452.129094050388
1324.1390452133292 5669.60463087326
1324.9642614275563 5692.745261768362
1325.7892756275214 5562.6765440992995
1326.6140878692295 5377.761993911031
1327.4386982086617 5899.310692995634
1328.2631067017755 5547.566534733031
1329.0873134045069 5496.414258114657
1329.911318372764 5439.257922520093
1330.735121662441 5511.192539252255
1331.558723329399 5462.13636984836
1332.3821234294774 5420.490682332352
1333.2053220185007 5455.566527330515
1334.0283191522612 5410.601960191099
1334.851114886529 5586.819668523144
1335.6737092770582 5305.206774572151
1336.4961023795695 5495.6358896837755
1337.3182942497697 5333.182306631224
1338.1402849433325 5459.8653930605
1338.962074515921 5169.240277073281
1339.7836630231632 5249.883715552068
1340.6050505206676 5575.213833520127
1341.426237064028 5513.460829329479
1342.2472227088037 5347.287015489943
1343.0680075105338 5120.372686077451
1343.888591524741 5298.188157121675
1344.7089748069138 5465.391682700327
1345.5291574125276 5246.810768443201
1346.3491393970307 5049.139589525254
1347.168920815846 5268.910498257834
1347.9885017243778 5283.308031199517
1348.8078821780036 5189.039331556922
1349.6270622320844 5146.56596574518
1350.4460419419447 5089.913003267595
1351.2648213629054 5244.605820397603
1352.0834005502438 4967.911234461825
1352.90177955923 5025.23045209817
1353.7199584451064 5189.20317236343
1354.5379372630887 5169.653419365968
1355.355716068374 4969.854089771327
1356.1732949161305 4911.180255195138
1356.9906738615155 5134.327482830844
1357.8078529596478 5067.125034451941
1358.6248322656375 5282.765948647192
1359.441611834567 4943.328331794541
1360.2581917214866 5212.083200804144
1361.0745719814367 4976.7749444218625
1361.890752669433 4927.981761341276
1362.7067338404577 4836.833009510721
1363.5225155494845 5133.286648846139
1364.3380978514506 5168.660321090627
1365.1534808012839 4720.170977555576
1365.9686644538815 4667.635114715934
1366.783648864117 5075.121040531365
1367.5984340868417 5124.828806508891
1368.413020176893 4958.560681181823
1369.2274071890715 4725.497824963523
1370.0415951781652 5019.412314132415
1370.8555841989346 4912.166275849745
1371.6693743061223 4758.836562069518
1372.48296555444 4582.804197201438
1373.2963579985844 4894.258286559494
1374.1095516932255 4792.551006381997
1374.9225466930166 4584.099751130589
1375.7353430525782 4883.263324794288
1376.5479408265164 4707.273974240413
1377.36034006941 4853.680230976779
1378.1725408358216 4844.802609632239
1378.9845431802805 4632.2231927288485
1379.796347157304 5123.969984874069
1380.6079528213813 4888.282305944433
1381.4193602269788 4743.359248519504
1382.230569428546 4809.947156243888
1383.0415804805016 4835.85633793678
1383.852393437246 4823.141052445744
1384.6630083531563 4811.49112114866
1385.4734252825892 4724.579606230654
1386.2836442798798 4784.797564647306
1387.0936653993322 4817.5707445445705
1387.9034886952395 4793.251216023256
1388.713114221864 4784.407508309821
1389.5225420334482 4869.194581569699
1390.331772184214 4786.9122437361975
1391.1408047283585 4572.390176246388
1391.9496397200564 4687.159668448694
1392.758277213461 4777.141656084042
1393.5667172627054 4887.09267569713
1394.3749599218918 4646.000312533472
1395.1830052451114 4615.877828623302
1395.9908532864265 4588.370643994289
1396.7985040998774 4794.357258093688
1397.6059577394808 4630.010082728976
1398.4132142592352 4645.201913193292
1399.2202737131156 4588.523096701306
1400.027136155073 4882.334939214066
1400.8338016390353 4597.620719253113
1401.6402702189134 4623.068723346494
1402.446541948586 4803.088209437565
1403.2526168819204 4533.320450159949
1404.058495072757 4580.855355849432
1404.8641765749107 4657.073389284369
1405.6696614421799 4734.698969661953
1406.4749497283356 5006.491306436603
1407.280041487129 4651.401313368195
1408.084936772295 4391.026191448497
1408.8896356375335 4830.15115975809
1409.6941381365323 4826.906352846045
1410.498444322955 4581.649167413752
1411.3025542504402 4728.958947732304
1412.106467972606 4806.440475681332
1412.9101855430508 4712.3220682418005
1413.7137070153458 4481.785128607809
1414.5170324430437 4595.227149135774
1415.320161879672 4804.109654279049
1416.1230953787435 4918.989420037208
1416.925832993742 4680.751565081964
1417.7283747781275 4558.963054589027
1418.5307207853439 4724.261239584802
1419.3328710688093 4680.116603252432
1420.134825681922 4466.539786883474
1420.9365846780584 4589.160128480559
1421.7381481105713 4840.396291583421
1422.539516032788 4665.96664887931
1423.3406884980232 4501.40902066356
1424.1416655595604 4509.717076529784
1424.942447270665 4644.565494288537
1425.7430336845828 4707.178566498985
1426.5434248545298 4451.578758575061
1427.3436208337116 4691.672264017963
1428.143621675301 4667.530178753519
1428.9434274324558 4842.133873741473
1429.7430381583108 4544.420182251196
1430.5424539059713 4586.262989201329
1431.3416747285337 4966.51821341866
1432.1407006790632 4733.36936498232
1432.9395318106053 4616.845297794765
1433.7381681761835 4489.313783702621
1434.5366098288014 4716.3445555177905
1435.3348568214424 4704.178339878256
1436.1329092070573 4571.963478317138
1436.9307670385879 4633.525327545315
1437.7284303689503 4815.83988112599
1438.5258992510335 4783.071233465432
1439.3231737377118 4696.466932926292
1440.1202538818306 4526.899421546363
1440.9171397362225 4708.7060690482585
1441.7138313536925 4668.972422614845
1442.5103287870243 4495.838229528937
1443.3066320889775 4423.913576310175
1444.1027413122956 4817.45542291287
1444.8986565096966 4592.202916120699
1445.694377733882 4609.638530228905
1446.4899050375207 4444.594575983087
1447.2852384732687 4562.424232707589
1448.0803780937622 4634.865296884616
1448.8753239516063 4409.485740214819
1449.6700760993954 4293.420462389525
1450.464634589689 4365.860289374931
1451.2589994750397 4646.291169194879
1452.0531708079689 4296.314626724313
1452.8471486409799 4296.562830023249
1453.6409330265524 4524.826191636053
1454.4345240171442 4368.556206707225
1455.2279216651987 4261.772793934433
1456.0211260231263 4200.571080204203
1456.8141371433194 4458.955216864197
1457.6069550781594 4422.827243518204
1458.3995798799897 4197.663000231924
1459.1920116011424 4222.894900498298
1459.98425029393 4156.980684460926
1460.7762960106338 4101.378932424877
1461.5681488035225 4149.7371117158655
1462.3598087248392 4195.154496966278
1463.1512758268036 4429.2643980954235
1463.942550161617 4130.3424840742755
1464.7336317814625 4176.841806438784
1465.524520738496 4246.164975012216
1466.3152170848552 4087.2446880100315
1467.1057208726506 4168.276197052822
1467.8960321539817 4094.96659544391
1468.6861509809169 4019.0780483432595
1469.4760774055085 4103.323217806157
1470.265811479785 4128.2748136362125
1471.055353255755 3956.1511161069043
1471.844702785409 3899.849735051467
1472.6338601207044 3992.4786817633767
1473.4228253135934 4237.8858447012635
1474.2115984159936 3892.5352727053846
1475.0001794798063 3679.2481759934867
1475.7885685569145 4027.3592100473993
1476.576765699172 4006.70067917997
1477.3647709584238 3986.679002687324
1478.1525843864802 4103.253714719345
1478.9402060351367 4065.366815468752
1479.7276359561693 4009.499717625743
1480.514874201328 3832.931594037035
1481.3019208223468 3834.3287269289203
1482.0887758709323 3714.5035014866057
1482.8754393987747 4080.424956675253
1483.6619114575406 3783.1751611124164
1484.4481920988783 3831.869609351951
1485.2342813744108 3905.598053466504
1486.0201793357446 4114.000717165117
1486.8058860344572 3788.7086400467356
1487.591401522117 3842.1234382424145
1488.3767258502594 3817.343043697132
1489.1618590704056 3853.745312212099
1489.9468012340494 3603.7652864161455
1490.7315523926754 3965.9704088137987
1491.5161125977356 3982.254560881063
1492.3004819006637 3937.7391057315276
1493.084660352877 3720.883107940732
1493.8686480057622 3993.7781787833956
1494.6524449106964 4124.370895664616
1495.4360511190262 4078.403171373251
1496.219466682087 3898.6037658420037
1497.0026916511779 3931.3250229427686
1497.7857260775945 3964.081509461397
1498.5685700125996 4006.4376415244797
1499.3512235074395 3720.219897229063
1500.133686613337 3801.458993486641
1500.9159593814966 3778.5850983193914
1501.698041863101 4247.549797597768
1502.4799341093094 3686.937844482257
1503.2616361712662 3646.3980488505076
1504.043148100087 3940.2055912633355
1504.8244699468742 3980.2781416285607
1505.6056017626997 3658.8129362867344
1506.3865435986281 3605.7410867473673
1507.1672955056893 3891.1756968842215
1507.9478575348967 3709.845056036948
1508.7282297372512 3970.0728009550794
1509.5084121637192 3867.5980258183167
1510.2884048652577 3794.379025252222
1511.0682078927948 3679.4344142425643
1511.8478212972423 3781.123329513384
1512.6272451294917 3714.944487403124
1513.4064794404076 3879.73659126508
1514.1855242808433 3876.6286056656086
1514.9643797016215 3717.0566495641533
1515.743045753552 3816.4103433643577
1516.5215224874191 3868.460265095569
1517.2998099539836 3590.1893213921385
1518.077908203999 3796.106084211881
1518.8558172881785 3710.0210202262997
1519.633537257234 3842.4093993941
1520.4110681618404 3804.9351277946685
1521.1884100526604 3787.717898431609
1521.9655629803365 3772.37988223789
1522.7425269954856 3911.1722169024265
1523.5193021487103 4154.820426360465
1524.2958884905856 3605.3703062610575
1525.0722860716687 3804.8596123081834
1525.848494942502 3767.7431809265495
1526.624515153595 3750.766463796227
1527.4003467554485 3736.185767340364
1528.175989798534 3880.1925521737226
1528.9514443333064 3901.3082587857257
1529.726710410203 3943.3374102069856
1530.5017880796331 3692.7425392112114
1531.276677391992 3698.208482055339
1532.0513783976457 3971.955460127504
1532.825891146953 3813.2407180024143
1533.6002156902414 3875.9825807276925
1534.3743520778207 3783.648865984925
1535.1483003599806 3875.486102414647
1535.9220605869923 3853.692279594828
1536.6956328091019 3824.6106016111116
1537.4690170765407 3731.2842436983906
1538.242213439511 3960.4471959123775
1539.015221948208 3829.6350779701024
1539.78804265279 3803.0364472780843
1540.560675603405 3696.8304420144896
1541.3331208501804 4102.266975691886
1542.1053784432224 4033.1267765341463
1542.8774484326168 3843.440007522671
1543.649330868422 3904.5568199097374
1544.4210258006842 3850.931007816497
1545.1925332794308 3907.8106699557306
1545.9638533546604 3821.951808985044
1546.7349860763552 3715.611357031075
1547.5059314944829 4199.389191739242
1548.27668965898 3947.1713232021734
1549.0472606197673 3842.5290029838966
1549.817644426752 3658.0164913540175
1550.5878411298072 4076.68573614849
1551.3578507787988 3901.963231564344
1552.1276734235635 3803.641083860989
1552.8973091139233 3894.7027874635423
1553.6667578996767 4060.9603106894183
1554.436019830604 3826.8292471263653
1555.20509495646 3892.179689619547
1555.9739833269869 3788.698358826879
1556.7426849919011 3848.022320213374
1557.511200000903 4110.991725815265
1558.2795284036674 4007.269453363094
1559.0476702498509 3886.7720919231847
1559.8156255890954 4200.585215577065
1560.5833944710157 4357.537929349755
1561.3509769452048 3898.2820291295
1562.1183730612447 3942.096509172835
1562.8855828686865 3999.061280781751
1563.6526064170703 4235.391822162316
1564.4194437559127 4133.313913189189
1565.1860949347047 3922.663128186202
1565.9525600029283 4339.560531218401
1566.7188390100328 4342.825498393404
1567.4849320054564 4004.686350377392
1568.250839038612 3957.189034421111
1569.0165601588997 4040.1821692033213
1569.7820954156887 4295.071377708762
1570.5474448583373 4053.599472265815
1571.31260853618 3983.2516820136902
1572.0775864985299 3834.9284149479345
1572.8423787946813 4059.806319652216
1573.6069854739108 3945.0688971740624
1574.371406585471 4081.9100267253284
1575.1356421785986 4102.582394222686
1575.899692302506 3943.4913291770376
1576.6635570063845 4096.246195366264
1577.4272363394157 4043.1357197721836
1578.190730350747 3962.8923575028393
1578.9540390895163 4102.63079524131
1579.7171626048384 3742.57134689971
1580.480100945806 3798.602905465231
1581.2428541614918 3898.650877168277
1582.0054223009538 4061.6610737212422
1582.767805413223 3916.2500048016373
1583.5300035473156 3972.734103605659
1584.292016752228 4142.0788895369315
1585.0538450769309 4092.2392768396835
1585.8154885703807 3813.1356809662866
1586.5769472815136 3690.257197876588
1587.3382212592405 4001.844573395499
1588.099310552463 4086.3285516459027
1588.8602152100484 3802.832804770802
1589.6209352808564 4089.6526597792313
1590.3814708137234 3841.9925293731676
1591.14182185746 3809.6721813434306
1591.9019884608679 3813.472445252433
1592.6619706727215 3586.802583337029
1593.4217685417734 3942.2065996671395
1594.1813821167616 4122.655656207096
1594.9408114464022 3658.16361913554
1595.7000565793933 3780.5238421283298
1596.459117564409 3882.568351943635
1597.2179944501113 3668.229889831347
1597.9766872851324 3722.2157779238346
1598.735196118092 3889.5923800305345
1599.4935209975883 3848.153920776071
1600.2516619721973 3939.4260352049178
1601.0096190904787 3750.4302557998876
1601.7673924009723 3717.87814135012
1602.524981952196 3657.3395969969743
1603.2823877926476 3754.200887222173
1604.0396099708087 3615.3984524700986
1604.7966485351371 3530.8012789710424
1605.5535035340745 3729.191545145431
1606.3101750160404 3911.020552483025
1607.0666630294363 3595.7674728074185
1607.822967622642 3590.56073655797
1608.5790888440224 3758.2929865384876
1609.3350267419137 3887.266131165668
1610.0907813646445 3747.2734703388255
1610.8463527605145 3746.770355045638
1611.601740977805 3830.4233987733182
1612.356946064785 3661.5910451641817
1613.1119680696902 3426.3296967221877
1613.8668070407512 3576.1869444790536
1614.6214630261748 3593.5020278634993
1615.375936074137 3813.3175260269722
1616.1302262328118 3577.1790041076283
1616.8843335503425 3730.5631207939705
1617.638258074854 3568.507829028726
1618.391999854457 3709.6743985857997
1619.1455589372363 3704.587894522323
1619.8989353712623 3641.926168997413
1620.65212920458 3416.981794106413
1621.4051404852235 3507.551372674724
1622.1579692611976 3555.6881618524667
1622.9106155804966 3411.8365442603026
1623.663079491087 3524.84216487335
1624.4153610409248 3658.5134784804263
1625.1674602779385 3470.598044901481
1625.9193772500403 3407.181735405595
1626.6711120051277 3727.6049509845434
1627.4226645910676 3665.5558242901106
1628.174035055721 3457.2937073857756
1628.9252234469168 3632.815759014013
1629.676229812474 3560.08563829798
1630.4270542001905 3980.6206913819246
1631.1776966578382 3660.288187475597
1631.9281572331747 3546.3491950411867
1632.678435973945 3773.7947719647636
1633.4285329278573 3592.15496946266
1634.1784481426203 3300.0389052056744
1634.9281816659113 3459.922607853884
1635.677733545388 3759.8056525088746
1636.4271038286934 3498.513588484742
1637.176292563452 3605.679655923923
1637.9252997972635 3594.2603106834677
1638.674125577716 3646.661708177015
1639.4227699523672 3975.360461937612
1640.171232968767 3332.3070812102123
1640.9195146744423 3566.2449674824265
1641.6676151168977 3731.9221125720856
1642.4155343436178 3771.9139185132035
1643.1632724020765 3466.9291841502454
1643.9108293397167 3493.650964881427
1644.658205203974 3523.4595992258983
1645.4054000422566 4042.3920112366513
1646.1524139019566 3522.1239619463486
1646.8992468304423 3506.2717034711764
1647.6458988750728 3520.7190713022014
1648.3923700831765 3587.0397047178312
1649.1386605020743 3518.910269046991
1649.8847701790564 3721.9426643326187
1650.6306991614038 3604.6400761834093
1651.3764474963682 3747.7527456137823
1652.1220152311944 3358.012059310392
1652.867402413096 3713.8180635872786
1653.6126090892776 3635.3233721927354
1654.3576353069184 3793.6342648958366
1655.1024811131829 3567.1726149759816
1655.8471465552066 3493.5014934427954
1656.5916316801213 3876.1802844507197
1657.3359365350298 3652.4431291593514
1658.0800611670165 3539.4852608356255
1658.824005623148 3597.796940712195
1659.5677699504722 3448.513329264045
1660.3113541960192 3683.112057227753
1661.054758406799 3503.480566182881
1661.7979826297997 3335.9379009755635
1662.5410269119966 3360.686144885754
1663.283891300338 3617.180408149207
1664.0265758417645 3445.124024117859
1664.7690805831826 3490.022846353602
1665.5114055714948 3640.1733099351563
1666.2535508535748 3874.6154843006393
1666.9955164762814 3239.8743951974125
1667.7373024864555 3436.949263104549
1668.478908930916 3539.678582327592
1669.220335856462 3373.148188877903
1669.9615833098778 3346.929750578707
1670.7026513379296 3268.6891639145265
1671.44353998736 3420.913192027081
1672.1842493048916 3354.8839043440626
1672.9247793372379 3313.9278059678118
1673.6651301310812 3428.676127782814
1674.4053017330934 3300.5236991397533
1675.1452941899242 3568.205039749897
1675.885107548207 2919.5720348590085
1676.6247418545518 3017.10853344165
1677.3641971555535 3118.327397991938
1678.1034734977893 3333.607149510256
1678.8425709278108 3286.9452780593806
1679.5814894921605 3367.154134413603
1680.320229237359 3403.40074990455
1681.0587902098978 3406.420229258149
1681.7971724562685 3171.7114753408837
1682.5353760229264 3038.945762120448
1683.2734009563173 3249.1758461888026
1684.0112473028657 2968.3937939570524
1684.7489151089794 3230.8816411485864
1685.4864044210462 3318.9911816109206
1686.2237152854377 2871.7381197872296
1686.960847748498 3315.2192868459992
1687.6978018565642 2971.140358056299
1688.434577655944 2954.8837207715283
1689.1711751929379 2853.8449925270147
1689.9075945138156 3114.1985320830972
1690.6438356648396 3069.1067154011625
1691.3798986922448 2707.486175689886
1692.1157836422499 2931.7995323832615
1692.851490561059 2914.4285816261227
1693.587019494853 2985.736391475511
1694.3223704897991 2708.242679198835
1695.0575435920364 2735.3165861665702
1695.792538847696 3213.5616158877156
1696.527356302886 2839.600314621621
1697.2619960036936 2692.5655418175943
1697.9964579961907 2731.1724017748193
1698.730742326432 2608.1818224278736
1699.4648490404488 2722.3027465401674
1700.1987781842563 2781.6702053585714
1700.9325298038548 2901.9941149001916
1701.6661039452174 3073.847124459721
1702.3995006543082 2873.989512448151
1703.1327199770658 2962.5524625016506
1703.865761959416 2727.3418916236374
1704.598626647261 3037.551312647386
1705.3313140864866 2603.631567613663
1706.0638243229587 2695.000650440985
1706.7961574025303 2878.731905344932
1707.528313371029 2758.748497551684
1708.260292274268 2669.468896908168
1708.9920941580403 2732.8617756413314
1709.7237190681226 2782.8351599226758
1710.4551670502697 2816.4017105314088
1711.18643815022 2492.964765986745
1711.9175324136959 3112.2560363948655
1712.6484498863938 2824.9575705650886
1713.379190614005 2441.7698864567114
1714.109754642188 2707.0181681705762
1714.8401420165883 2638.575908730128
1715.570352782839 3053.4943065598327
1716.3003869865497 2803.2080510929286
1717.0302446733076 2530.171527249854
1717.7599258886876 2762.0907802940696
1718.4894306782444 3020.4841722637307
1719.2187590875183 2571.2464535704685
1719.9479111620203 2959.142040975085
1720.6768869472544 2616.766242928138
1721.4056864887025 2909.531764873639
1722.1343098318284 2942.7756382776524
1722.8627570220742 2691.8132548118
1723.591028104871 2554.4964308371004
1724.3191231256242 2427.386058459382
1725.0470421297232 2641.303882045636
1725.7747851625427 2832.7737716696492
1726.5023522694337 2814.95617891669
1727.2297434957363 2716.3101036591943
1727.9569588867635 2449.352121696351
1728.6839984878152 2749.1873464776136
1729.4108623441734 2312.3220656478916
1730.1375505011038 2801.514843130988
1730.8640630038426 2523.3668170710494
1731.5903998976264 2469.716304882
1732.316561227657 2738.0207508676876
1733.0425470391274 2428.8965624788243
1733.7683573772065 2637.4453288207055
1734.4939922870508 2633.791536442944
1735.2194518137949 2718.2836074206343
1735.9447360025606 2673.3697383812596
1736.669844898439 2644.9299157749274
1737.3947785465189 2478.1194716278596
1738.1195369918605 2423.807010176753
1738.8441202795093 2604.613897569724
1739.5685284544943 2681.4712756469576
1740.292761561821 2587.5868115565
1741.0168196464838 2721.6842351287073
1741.7407027534518 2653.5797024484677
1742.464410927687 2650.584423681138
1743.187944214118 2598.55524167275
1743.9113026576688 2603.4126319915495
1744.634486303241 2522.388157251595
1745.3574951957125 2579.0651804630043
1746.0803293799509 2746.075704670152
1746.8029889008048 2620.780326845047
1747.5254738031017 2623.3580064060307
1748.2477841316504 2449.2077648250533
1748.969919931249 2594.6257521698567
1749.6918812466665 2565.51307906879
1750.4136681226646 2716.760411124968
1751.1352806039777 2577.6977476084776
1751.856718735331 2289.453325688776
1752.5779825614281 2359.5267752532272
1753.2990721269507 2662.343520730834
1754.0199874765676 2642.021186914037
1754.7407286549314 2343.371638198826
1755.4612957066693 2475.3930763285434
1756.1816886763954 2361.4581277302705
1756.9019076087097 2649.591852365117
1757.6219525481865 2628.1149725117334
1758.3418235393856 2563.248532153226
1759.061520626854 2551.327918978871
1759.7810438551096 2767.2310032222053
1760.5003932686614 2334.2053380585885
1761.2195689119999 2625.4310335656055
1761.938570829594 2510.591718978556
1762.657399065898 2617.166374368064
1763.376053665348 2273.146568091527
1764.0945346723602 2261.3692784542955
1764.812842131334 2691.081417849228
1765.5309760866512 2299.672211045684
1766.2489365826787 2401.045177815549
1766.9667236637597 2519.2874540906273
1767.684337374223 2224.9080312995056
1768.401777758383 2195.6000400931093
1769.1190448605284 2425.852204206482
1769.836138724937 2339.8227067004955
1770.5530593958665 2554.2193162911713
1771.2698069175603 2701.618239967631
1771.9863813342326 2494.8016194101815
1772.702782690094 2412.3344231864153
1773.4190110293293 2554.1477061001497
1774.1350663961111 2617.087965178612
1774.8509488345844 2326.4420867806816
1775.5666583888924 2414.4400094664124
1776.2821951031437 2643.8750451716332
1776.9975590214362 2465.7733754759
1777.7127501878585 2714.7407728948006
1778.4277686464684 2576.600875179868
1779.1426144413108 2664.3911997308865
1779.8572876164162 2675.4963670966085
1780.571788215797 2254.8796795518856
1781.2861162834415 2456.351611811825
1782.0002718633277 2437.8828539348265
1782.7142549994132 2551.4160224172983
1783.4280657356376 2511.9476279378723
1784.141704115922 2383.517432103562
1784.855170184177 2464.605038274678
1785.5684639842839 2426.889444161284
1786.2815855601148 2086.6256376670003
1786.9945349555237 2529.8878258743393
1787.707312214343 2330.1645310342965
1788.4199173803918 2756.7086502387438
1789.132350497468 2292.8143085163856
1789.8446116093583 2381.973543216052
1790.556700759822 2362.5754780774487
1791.2686179926077 2378.219978327839
1791.9803633514493 2450.1496600020128
1792.6919368800554 2279.1860304952365
1793.4033386221236 2453.958344387325
1794.1145686213295 2567.7529535471867
1794.8256269213307 2706.2895986637977
1795.536513565774 2563.3428286246135
1796.247228598284 2142.147395067404
1796.9577720624693 2360.225416984134
1797.6681440019165 2416.8703736629045
1798.3783444602013 2423.39027620893
1799.0883734808776 2514.608774760443
1799.7982311074884 2526.7597296791105
1800.5079173835475 2495.89795748421
1801.2174323525633 2530.850075034772
1801.9267760580187 2337.775600566722
1802.635948543386 2503.8069209410805
1803.3449498521113 2193.656151019841
1804.0537800276325 2761.81887327759
1804.7624391133668 2411.6393972583846
1805.47092715271 2185.3216293581245
1806.1792441890484 2281.254153190704
1806.8873902657433 2563.201548480727
1807.5953654261448 2296.0330470008257
1808.3031697135812 2310.146042429208
1809.0108031713662 2378.3106447856076
1809.71826584279 2280.9631401062693
1810.425557771141 2380.697960737841
1811.1326789996747 2776.141361095442
1811.839629571632 2407.619091902806
1812.5464095302468 2383.8001950181833
1813.2530189187182 2400.7323601536114
1813.959457780249 2312.4521616215306
1814.6657261580076 2472.881160698345
1815.371824095153 2344.4479838769403
1816.0777516348262 2561.0810527195313
1816.78350882015 1925.2141372704966
1817.4890956942272 2145.345688373593
1818.1945123001533 2381.6773667378748
1818.8997586809928 2232.2758125833925
1819.6048348798067 2208.3930167801086
1820.3097409396287 2362.1654974387266
1821.0144769034796 2723.1835891364967
1821.7190428143622 2344.3001003001
1822.423438715261 2517.3201773308383
1823.1276646491478 2374.580898264034
1823.8317206589727 2486.150938132567
1824.5356067876692 2421.2453648889505
1825.2393230781581 2348.685378767278
1825.942869573335 2101.221027443446
1826.646246316086 2131.940004056631
1827.3494533492758 2408.243804990693
1828.052490715756 2503.8718908398487
1828.7553584583547 2397.6810116063625
1829.458056619891 2464.872313976025
1830.1605852431585 2273.736483203048
1830.8629443709433 2187.8396483634756
1831.5651340460063 2233.421126252345
1832.2671543110919 2267.3663521204594
1832.9690052089318 2427.153465623527
1833.6706867822395 2129.049367622278
1834.3721990737104 2416.0190638064814
1835.0735421260233 2500.8898707577346
1835.774715981841 2307.98078856763
1836.4757206838058 2538.7275400989356
1837.1765562745459 2236.271787203824
1837.8772227966747 2215.663824876767
1838.5777202927839 2366.814468836481
1839.2780488054523 2304.9141646310595
1839.9782083772352 2205.3922369572656
1840.6781990506806 2542.1753334813084
1841.378020868313 2359.963049065983
1842.0776738726418 2360.795538859647
1842.777158106157 2236.4342033106323
1843.4764736113375 2131.4564445871374
1844.1756204306403 2368.0057800093823
1844.8745986065078 2318.0219635568365
1845.5734081813607 2083.436888465957
1846.2720491976124 2208.3289612330254
1846.970521697649 2141.2850442000827
1847.6688257238511 2381.7370467864584
1848.3669613185684 2207.7877184950767
1849.0649285241452 2123.008431263191
1849.7627273829057 2334.2910231397514
1850.460357937156 2286.9968412399294
1851.1578202291857 2046.333751792809
1851.8551143012664 2303.971991619216
1852.5522401956569 2330.38128689392
1853.2491979545957 2539.817565501019
1853.9459876203055 2188.2702669390023
1854.6426092349902 2047.938310472963
1855.3390628408451 2157.762971286005
1856.0353484800362 2442.2087532900578
1856.7314661947203 2337.8323353734077
1857.4274160270397 2130.547379714851
1858.123198019115 2269.729337416795
1858.8188122130487 2116.6170665372265
1859.5142586509319 2221.3476694541473
1860.209537374838 2275.085654879237
1860.9046484268183 2190.089009387752
1861.599591848917 2431.3420290678087
1862.294367683151 2176.871953656009
1862.988975971528 2219.316132189052
1863.6834167560355 2257.444799935387
1864.3776900786452 2489.7579192549406
1865.0717959813119 2274.582001855061
1865.7657345059724 2092.2581125874704
1866.4595056945564 2268.321936775171
1867.1531095889586 2449.0984303467467
1867.846546231076 2115.517490514251
1868.5398156627743 2412.0691870539795
1869.2329179259123 2160.279470686334
1869.9258530623283 2372.418133197275
1870.618621113843 2101.69911383193
1871.3112221222636 2129.7324693818105
1872.0036561293764 2223.6154635646335
1872.695923176956 2391.423996093805
1873.3880233067594 2458.3058292791925
1874.0799565605212 2008.5748293358108
1874.7717229799673 2233.0017981588103
1875.4633226068036 2476.335501039711
1876.1547554827175 2437.7495159935843
1876.8460216493859 2190.7061410780248
1877.5371211484617 2185.4213068888007
1878.2280540215852 2365.858952632916
1878.9188203103804 2099.5141470567246
1879.6094200564548 2265.937907531067
1880.299853301396 2250.837160976764
1880.9901200867826 2405.1521320455904
1881.6802204541673 2232.9151088126255
1882.3701544450942 2345.6205603543985
1883.059922101087 2051.1931414259575
1883.7495234636517 2431.6994922770177
1884.4389585742792 2155.543881718395
1885.1282274744517 1986.8012989971126
1885.8173302056166 2135.243777100939
1886.506266809225 2283.8876714716453
1887.195037326701 2023.8391682994384
1887.8836417994517 2107.45025053534
1888.5720802688702 2502.377801613001
1889.260352776333 2356.6067720789756
1889.9484593632042 2390.6584030532404
1890.63640007082 2117.4288569789273
1891.3241749405151 2045.6013547660652
1892.0117840135954 2289.6547880151084
1892.6992273313572 2217.8968301513473
1893.3865049350788 2000.3445349926274
1894.0736168660223 2122.541937770312
1894.7605631654333 2244.8563911308074
1895.4473438745408 1934.6680208335504
1896.133959034556 2461.7302743749906
1896.820408686679 2287.3080261556165
1897.506692872088 2567.6650522182003
1898.192811631945 2122.8433965698287
1898.8787650073991 2201.8270631013934
1899.5645530395832 2302.6865000086264
1900.2501757696118 2398.369205354643
1900.9356332385796 2018.8093462785375
1901.620925487574 2498.2209406920038
1902.3060525576602 2279.9839861719997
1902.9910144898859 2175.93719548415
1903.6758113252872 2099.995198933289
1904.3604431048789 2364.382260438395
1905.0449098696663 2376.098239661867
1905.7292116606295 2073.15442793791
1906.4133485187394 2202.3809250310524
1907.0973204849488 1766.8870005445547
1907.7811276001976 1960.9602398358493
1908.4647699053967 2239.656867222252
1909.1482474414588 2168.5262064907106
1909.8315602492694 2097.151713159028
1910.5147083696957 2480.288570923807
1911.1976918436012 2147.676886049608
1911.880510711815 1944.164769069483
1912.5631650151681 2028.9581257205966
1913.2456547944657 2113.820221208888
1913.927980090495 2153.1246825038716
1914.6101409440362 2138.960916583773
1915.2921373958416 2253.167360591946
1915.9739694866603 2203.9931924291186
1916.655637257214 2390.630245436348
1917.3371407482136 2196.2176789580744
1918.0184800003572 2526.7031068630135
1918.6996550543154 2304.2123183386607
1919.3806659507554 2361.4445597413337
1920.0615127303208 2254.338913372613
1920.7421954336423 2273.2968043066307
1921.4227141013343 2722.424550924736
1922.103068773993 2332.446714280014
1922.783259492202 2314.1726956440134
1923.4632862965227 2180.545322364539
1924.1431492275078 2054.3142052291096
1924.8228483256917 1983.012020569647
1925.5023836315922 2084.2477168326122
1926.1817551857057 2242.654445021484
1926.8609630285227 2401.401588679512
1927.5400072005123 2270.6878271614914
1928.218887742125 2112.7271044560384
1928.8976046938005 2035.1568169989182
1929.5761580959588 2308.2472081085643
1930.2545479890086 2171.8741205657448
1930.9327744133352 1934.745286906854
1931.6108374093164 2128.973401548081
1932.2887370173066 2449.890071476788
1932.9664732776473 2380.1208416639065
1933.6440462306673 2310.1046687722283
1934.3214559166754 2070.655181037752
1934.9987023759659 2451.319881583606
1935.675785648813 2283.3823034043467
1936.3527057754836 1849.6081009831082
1937.029462796223 1930.8086906343276
1937.70605675126 2012.2278090365894
1938.3824876808085 2079.1320038310305
1939.058755625072 2187.1794188798767
1939.7348606242267 1931.3150937562175
1940.4108027184448 2177.8889342093307
1941.0865819478713 2314.1809716331413
1941.7621983526478 2057.5782094082765
1942.4376519728921 2089.6133075535686
1943.1129428487038 2121.6848045603574
1943.7880710201734 2247.8498184258906
1944.4630365273733 2351.1626037699107
1945.1378394103576 2016.934976508476
1945.8124797091714 1954.455840637505
1946.4869574638324 1891.7843075654323
1947.161272714353 2090.385140866685
1947.8354255007234 2267.095276104089
1948.5094158629272 2080.676454298416
1949.1832438409183 2259.5770907745837
1949.8569094746435 2333.252680460676
1950.530412804037 2423.528698221797
1951.2037538690092 2356.821079456501
1951.8769327094578 2127.833504839804
1952.5499493652678 1965.4385008137538
1953.222803876306 2086.1617251500334
1953.895496282421 2206.9797141802237
1954.5680266234522 2315.6867166133597
1955.2403949392155 2277.2868650358396
1955.9126012695142 1974.4933936944049
1956.5846456541403 2145.534473232077
1957.2565281328643 2032.6811372280674
1957.9282487454457 2313.509976358512
1958.5998075316202 2264.333277305635
1959.27120453112 2106.5591651955215
1959.9424397836501 2176.7873829821324
1960.613513328908 2261.8589992411326
1961.2844252065697 2299.9666868764944
1961.9551754563017 1967.0010731007465
1962.6257641177453 2016.577764007751
1963.29619123054 1976.668865489061
1963.966456834296 1968.0835130278033
1964.6365609686181 1919.0574014982656
1965.306503673086 2202.7729890506125
1965.976284987275 1889.627802005371
1966.645904950734 2152.816856812666
1967.315363603002 1900.3538338162653
1967.9846609836077 2118.2408240301447
1968.6537971320486 2105.219623083773
1969.3227720878222 2151.3427248518533
1969.9915858904042 1967.3146646571215
1970.660238579252 2196.2154329666205
1971.3287301938108 1942.0649603039383
1971.997060773514 2043.8933666532394
1972.665230357772 2122.333684603608
1973.3332389859843 1991.185668802967
1974.0010866975335 1827.3067922953949
1974.6687735317864 1992.5659987109398
1975.3362995280932 2086.6296543295152
1976.003664725793 2097.296696828841
1976.6708691642052 1838.3581832768875
1977.3379128826364 2013.7385701894207
1978.004795920373 2260.9005137889194
1978.6715183166925 2011.641961816537
1979.3380801108524 2286.409210935275
1980.0044813420973 2103.2585562587765
1980.6707220496555 1730.369109392276
1981.3368022727373 2179.090918564615
1982.0027220505417 2139.88631438149
1982.66848142225 1662.5657883412284
1983.3340804270283 1841.4177548855691
1983.999519104027 2071.8170692885706
1984.6647974923835 2075.923176848235
1985.329915631215 2157.3597198680104
1985.99487355963 2061.9311654041867
1986.6596713167146 2271.166073878466
1987.3243089415428 1917.6135433497045
1987.9887864731754 2326.5596745380417
1988.6531039506553 1854.3012241493216
1989.3172614130071 2471.9058760645576
1989.9812588992481 1980.8140754700357
1990.645096448372 1780.2459624482788
1991.3087740993633 1961.0842205354747
1991.9722918911848 1940.5934690328825
1992.635649862792 2070.224874428223
1993.2988480531185 2215.373977745453
1993.9618865010852 2371.043800535297
1994.6247652455968 2015.3481157093997
1995.287484325545 1956.424789893869
1995.9500437798033 1992.3010999569142
1996.6124436472292 1924.2048672482229
1997.2746839666706 2180.014628167092
1997.936764776954 2080.3189676937654
1998.598686116895 1924.002795242274
1999.2604480252903 2331.4803982611616
1999.9220505409212 2251.9828839890224
2000.5834937025593 1897.671435166833
2001.2447775489582 1992.235141746599
2001.9059021188514 2003.3837448642266
2002.5668674509616 1951.4840636248045
2003.2276735839987 2099.5094015903405
2003.8883205566508 2253.8188361793304
2004.5488084075987 1911.2711016882936
2005.2091371755014 2020.1147682187925
2005.8693068990033 1861.2068468295115
2006.5293176167397 1880.8292868512744
2007.1891693673224 1900.6549515020604
2007.848862189354 1741.7190767539673
2008.5083961214223 1973.129521037715
2009.1677712020955 1827.74286994133
2009.8269874699254 1838.2961007047804
2010.4860449634598 1783.3152035415758
2011.1449437212177 1728.2953098104874
2011.8036837817108 2226.166051136286
2012.4622651834325 2184.3806770422575
2013.1206879648653 2182.3989277329665
2013.7789521644736 2334.8074064762195
2014.4370578207036 1720.0671128332676
2015.0950049719922 1961.7415457778793
2015.7527936567585 2168.23431752719
2016.4104239134067 2050.9937479843593
2017.067895780323 2569.0617333649625
2017.725209295886 2467.799013192137
2018.3823644984514 2366.1942231915114
2019.0393614263648 2172.9192141762733
2019.6962001179545 2004.6171099603612
2020.3528806115355 2228.852245911583
2021.0094029454067 2128.4304018951943
2021.6657671578487 1886.8010192087088
2022.321973287133 1912.9955942018732
2022.9780213715148 1730.5023224681877
2023.6339114492293 2160.0443528401033
2024.2896435585026 1977.5975589532093
2024.9452177375442 1987.287097978122
2025.600634024544 2237.4692894459117
2026.2558924576842 2192.6984009208986
2026.9109930751292 2208.3728935225163
2027.565935915025 1967.3141422360682
2028.2207210155066 2286.516622090771
2028.8753484146964 2465.417645494569
2029.529818150695 2371.488981605286
2030.1841302615903 2277.102691991766
2030.8382847854573 1903.6817408777556
2031.4922817603601 2172.1691595379716
2032.1461212243357 2064.3431754034505
2032.7998032154192 1744.353975467572
2033.4533277716218 1996.4424551413108
2034.1066949309443 1778.5518958427233
2034.7599047313688 1774.5478589300958
2035.4129572108704 2261.252740088484
2036.0658524074006 2088.9479508405557
2036.7185903589016 2037.6420709014133
2037.3711711032956 2146.293305955892
2038.023594678496 2098.5191218631435
2038.675861122394 1798.8926730866692
2039.3279704728757 1811.368900302244
2039.9799227678031 1824.0402552927965
2040.6317180450278 2005.9923332035482
2041.2833563423865 1865.319771623244
2041.9348376977014 2266.8733722787156
2042.5861621487784 2063.7243277093803
2043.2373297334088 1959.1376034817863
2043.8883404893695 2131.972993556443
2044.5391944544208 2002.2854880197224
2045.1898916663158 2236.5775861936854
2045.8404321627804 2364.7671461060318
2046.4908159815368 1941.00209031007
2047.1410431602853 1909.7212218333912
2047.7911137367173 1870.4288746544657
2048.441027748504 2238.0728993144285
2049.090785233302 1922.7270990552613
2049.7403862287592 1932.566090644612
2050.389830772503 1867.754612864769
2051.0391189021466 1802.9348495049348
2051.688250655294 2032.0901963865072
2052.337226069527 1929.8301641675887
2052.986045182417 2237.290040346332
2053.634708031521 2138.1843791628517
2054.283214654375 2039.0647249299666
2054.931565088511 1631.2634537827148
2055.579759371436 1763.6861235378133
2056.2277975406523 2036.3963535533453
2056.8756796336384 2230.174620768742
2057.5234056878617 1744.8764243902024
2058.1709757407752 1987.9982163989657
2058.8183898298194 2248.025283329515
2059.465647992416 2180.5353871491557
2060.1127502659747 2328.1341202515277
2060.759696687888 1767.457684476713
2061.4064872955405 2065.7145570999573
2062.053122126292 1860.305561049497
2062.699601217497 1654.932899055378
2063.345924606485 1748.3816491145685
2063.992092330587 1991.7322400980634
2064.638104427102 1915.3198503397762
2065.283960933324 2330.4793214498236
2065.92966188653 2053.1924636311023
2066.5752073239855 2254.0529775355285
2067.2205972829397 1810.563106790854
2067.86583180062 2030.8535725264578
2068.5109109142522 2052.255532467814
2069.15583466104 1974.6662740077954
2069.8006030781708 1848.0371100402729
2070.445216202821 1853.447319165986
2071.089674072153 2116.4576947473865
2071.7339767233116 2304.4424108425687
2072.3781241934303 1997.4599450103174
2073.0221165196253 2024.6791175150374
2073.6659537390024 1833.8625942776914
2074.3096358886505 2077.13553812167
2074.953163005637 1986.9051680590553
2075.596535127028 1711.273632269802
2076.2397522898664 1833.7209680071785
2076.882814531182 1901.3451656619436
2077.5257218879924 1990.8316799824267
2078.1684743973 1721.398318658988
2078.8110720960885 1750.0118073698577
2079.453515021336 2312.6382804463647
2080.095803209997 2115.1677683871644
2080.7379366990135 1964.5453673444615
2081.37991552532 2227.8165920307874
2082.0217397258275 2091.9772621996353
2082.6634093374414 1678.5276156617824
2083.3049243970418 1965.1755427535888
2083.9462849415067 2092.0535381425534
2084.587491007689 2123.5155114069394
2085.2285426324324 1857.3234818691358
2085.869439852564 2085.352742559803
2086.510182704902 1826.9557535928557
2087.1507712262483 1918.8358716103248
2087.791205453381 1780.2996753480754
2088.4314854230743 2089.036403724016
2089.0716111720867 2162.6925724684197
2089.7115827371617 2267.8469708152797
2090.351400155023 2373.254411731975
2090.991063462385 1841.4124326589304
2091.6305726959527 1706.950396101208
2092.2699278924047 2082.901993732017
2092.9091290884153 1794.5356291381515
2093.548176320641 1784.8035325771193
2094.187069625721 2023.0071717325834
2094.8258090402887 1698.5682098901398
2095.464394600951 2105.9856677943153
2096.102826344313 2044.944995750698
2096.741104306955 2082.4575469701613
2097.379228525453 1741.3816991463113
2098.017199036358 1603.2177433146262
2098.6550158762147 2166.009199680357
2099.2926790815527 2136.5204045973455
2099.9301886888825 1894.3193768481572
2100.5675447347076 1935.3582182934151
2101.2047472555114 2114.963808237046
2101.841796287761 1879.0370297557497
2102.47869186792 2108.7988059492545
2103.1154340324265 1923.453042597659
2103.752022817709 1975.4780299630343
2104.388458260184 1900.2901452003548
2105.024740396251 2139.4917008081943
2105.660869262292 1761.4070728206807
2106.296844894685 2120.462572246197
2106.93266732978 1948.3945146715682
2107.5683366039284 1696.9698341914027
2108.2038527534532 1974.6737659609385
2108.8392158146726 2188.3066327224365
2109.4744258238843 1735.7349127053021
2110.1094828173755 2074.7768741975087
2110.744386831422 2288.254075657729
2111.3791379022787 2017.4796815527873
2112.01373606619 2195.26823987418
2112.648181359389 2089.336638435198
2113.28247381809 2054.525403475465
2113.916613478492 2051.069800664995
2114.550600376786 2018.3683771070519
2115.1844345491445 1910.1267903892035
2115.818116031729 1734.6110953477641
2116.451644860679 1931.2925823694447
2117.085021072133 1839.3416726100575
2117.718244702204 1820.3347778901007
2118.3513157869984 1723.0339109822453
2118.984234362604 1717.1625532451271
2119.617000465092 1762.5959632441488
2120.249614130529 1810.5095427496685
2120.8820753949585 1858.5018793556624
2121.5143842944162 1861.2593718740532
2122.14654086492 1869.0557065171665
2122.7785451424734 2110.4899988484203
2123.4103971630702 2064.239820873271
2124.042096962681 2018.1091973496852
2124.6736445772767 2118.1675919741474
2125.305040042802 1903.7289903363737
2125.936283395191 1893.954862506147
2126.567374670365 2036.3409219049347
2127.198313904233 2051.2233762683413
2127.8291011326855 1960.4163345424836
2128.4597363916037 1869.1863412618804
2129.0902197168507 1962.824046142283
2129.720551144279 2166.5502357041632
2130.3507307097225 1853.0653826633013
2130.980758449008 2062.9481146802004
2131.6106343979427 1752.4966065985093
2132.2403585923203 2193.746420270141
2132.8699310679276 2307.161835017978
2133.499351860526 2123.490792806185
2134.1286210058715 1757.2670554894241
2134.7577385397053 1654.4356140155003
2135.3867044977487 2165.5707247872665
2136.0155189157176 2290.794607458068
2136.644181829308 2145.868577466982
2137.2726932742025 1962.0192185660767
2137.901053286074 1858.8785477322376
2138.5292619005777 1755.6470699244624
2139.1573191533535 1958.1890804961872
2139.7852250800315 2120.8995443366125
2140.4129797162295 2017.1359515401568
2141.0405830975433 1652.4483054484022
2141.6680352595613 1677.9780409423834
2142.2953362378576 1703.5757842605763
2142.9224860679915 1759.5599293584637
2143.549484785508 1858.6562010983482
2144.1763324259373 1864.262046473675
2144.803029024799 1767.1954099785653
2145.429574617594 1830.9194666720082
2146.0559692398165 2083.7422917727754
2146.682212926942 1812.2129159453514
2147.308305714432 2037.1232354959084
2147.9342476377333 2193.523645843362
2148.5600387322847 2203.7129083070786
2149.185679033506 2059.889323153171
2149.8111685768017 1876.5103320242229
2150.4365073975678 1689.2136080335174
2151.061695531187 1790.221941748016
2151.686733013021 2217.3368551826616
2152.311619878423 2135.2210914939787
2152.9363561627342 1946.7148347637362
2153.560941901278 1718.0240479654028
2154.1853771293663 2118.4829218140617
2154.809661882293 1905.8171735861165
2155.433796195348 2232.0538199028692
2156.0577801037944 2138.8035689773506
2156.681613642895 2045.2456157328081
2157.3052968478896 1741.1931549086435
2157.928829754006 2060.926954711483
2158.552212396462 2253.5421710974597
2159.1754448104566 1821.9058581108088
2159.7985270311783 1701.8222115040485
2160.4214590938027 1366.435425334343
2161.0442410334927 1433.300203377759
2161.6668728853874 1566.256205287295
2162.289354684628 1699.5160595112181
2162.911686466332 1852.4478303946985
2163.533868265602 2106.6331847952156
2164.1559001175337 2283.4209633959226
2164.7777820572046 2063.4740076434036
2165.399514119681 1908.0133601796642
2166.021096340013 1726.3049866225786
2166.6425287532384 2147.6522616190628
2167.263811394385 1617.2386319714712
2167.8849442984574 2095.4900175327143
2168.505927500455 1778.2124436207062
2169.126761035366 1959.1020832824738
2169.7474449381552 1781.1808925341625
2170.367979243778 1523.0946135830468
2170.9883639871823 2101.834643491106
2171.608599203293 1659.8390407829934
2172.2286849270276 2216.6881052628387
2172.8486211932886 2385.4457988025865
2173.4684080369625 1756.0709917368433
2174.0880454929265 1615.801665861632
2174.7075335960417 1559.6920755548886
2175.3268723811543 1570.2342853443386
2175.9460618831 1580.8259103943114
2176.565102136701 1800.318446459989
2177.1839931767627 1810.6475247597232
2177.802735038078 1821.0299066349987
2178.421327755432 1575.8402809688903
2179.0397713635866 1845.8330347089072
2179.658065897298 1772.1113016707054
2180.276211391305 1899.9003652167714
2180.8942078803357 1809.8238576375413
2181.5120553991 2044.9369607061228
2182.129753982299 1678.467641489142
2182.7473036646206 1739.41234389057
2183.3647044807367 2090.8294081381937
2183.9819564653044 2086.5805497157266
2184.599059652968 2082.3939213749877
2185.216014078367 1997.2918341662967
2185.832819776113 2113.1566123156963
2186.4494767808137 2229.175511166202
2187.065985127063 1791.683137069509
2187.682344849436 1687.7590754567852
2188.298555982501 1803.1675130029885
2188.9146185608097 1918.6598075660695
2189.530532618901 2075.041441925725
2190.1462981912937 1932.6293641002635
2190.761915312507 2040.3713296930418
2191.377384017036 1795.7115963442889
2191.9927043393654 1967.7520701692033
2192.6078763139667 2061.7540784730154
2193.2228999753006 2155.9974583401295
2193.837775357808 1724.846968690955
2194.452502495922 1567.8712320026884
2195.0670814240602 1906.4420832871087
2195.6815121766285 1532.6587566984028
2196.2957947880186 1561.6531294683498
2196.9099292926057 1590.7114688142779
2197.523915724758 1982.956022857007
2198.137754118825 1932.7414073914729
2198.7514445091456 2262.9214641665176
2199.3649869300443 2298.6320307765764
2199.9783814158327 2334.522540669611
2200.5916280008096 2380.257827400273
2201.2047267192593 1992.6571705090987
2201.8176776054515 1726.142871705084
2202.430480693649 1736.6739213524538
2203.0431360180955 2118.465913360269
2203.6556436130195 2112.901310916198
2204.268003512645 1573.4868930152686
2204.8802157511727 1748.7859658844723
2205.492280362796 1810.7255232959992
2206.1041973816937 1872.8899645928934
2206.715966842032 1881.249130800496
2207.3275887779655 1996.2468885436465
2207.93906322363 2049.5015717469973
2208.550390213153 2071.629642450681
2209.1615697806465 2103.3155847335247
2209.7726019602105 1666.5416334801587
2210.3834867859277 1691.6878147399798
2210.9942242918787 1766.0541351766672
2211.6048145121167 1836.0868257202778
2212.2152574806914 2496.829552844514
2212.825553231638 1713.218122207723
2213.435701798975 2554.296824240033
2214.045703216707 1850.9727951662996
2214.655557518832 1519.4793838165845
2215.2652647393297 1561.9496574681575
2215.874824912169 1401.7867445733373
2216.4842380713 1755.771931709965
2217.09350425067 1638.4461918818172
2217.7026234842033 2258.707399939785
2218.311595805819 2154.585858961947
2218.9204212494133 1768.8007375543555
2219.52909984888 2171.08226509882
2220.137631638092 2207.741194513369
2220.7460166509154 2244.3360563626206
2221.354254921198 1708.7906180914283
2221.9623464827764 1915.616072144237
2222.5702913694713 1990.6539869116514
2223.178089615096 2231.189868646572
2223.7857412534486 1804.388793831029
2224.39324631831 1552.526757045758
2225.000604843457 1757.224378407836
2225.607816862641 2097.8545918861046
2226.214882409611 2002.7739408218622
2226.8218015180973 2164.6719890836353
2227.4285742218217 1862.3863745360436
2228.0352005544864 1691.2919112808772
2228.6416805497847 1534.4013140184586
2229.248014241399 1780.0294730166174
2229.8542016629945 1660.6674188807283
2230.460242848223 1741.3358281375354
2231.0661378307304 1685.7504080279057
2231.671886644139 1630.1467948430864
2232.277489322065 1648.601572077435
2232.8829458981127 1443.222323023781
2233.48825640587 1832.5592159266737
2234.0934208789095 1956.0305377289624
2234.6984393507955 2079.697977228409
2235.3033118550793 1970.3655199527013
2235.9080384252975 1983.4754965194566
2236.5126190949723 1669.6774044785107
2237.1170538976166 1708.9972727875374
2237.721342866729 1390.1741482470347
2238.32548603579 1738.134676067287
2238.9294834382763 1973.8695919211125
2239.533335107646 1934.3973273506247
2240.1370410773434 1908.0441257905295
2240.740601380803 1592.441738946302
2241.3440160514474 1908.109787592243
2241.9472851226783 1956.7090515939035
2242.550408627896 1950.9727542956637
2243.1533866004793 1822.2768701337804
2243.756219073799 1693.3916455856638
2244.3589060812064 1718.4836712055726
2244.961447656049 1671.2891488216271
2245.5638438316564 2039.3893183949622
2246.166094641343 1902.2470396694152
2246.7682001184166 1716.0193761217172
2247.3701602961664 1679.1737832862077
2247.971975207871 1941.9948213457137
2248.5736448867974 2215.6899747699063
2249.175169366197 1868.3824673156826
2249.7765486793123 2000.9575202884741
2250.3777828593684 2002.5715401831778
2250.9788719395783 1956.3650191995323
2251.579815953146 2030.7772823065116
2252.1806149332606 2004.469087488743
2252.781268913097 1978.0741920547705
2253.381777925817 1740.2166301510456
2253.9821420045737 1958.0436328933058
2254.5823611825035 1966.7465853082783
2255.1824354927303 2069.804322141672
2255.782364968365 1857.0055843945688
2256.38214964251 1643.9701838726112
2256.9817895482483 1663.191271028798
2257.5812847186553 1918.1904768679676
2258.180635186791 1659.8246784417174
2258.779840985704 1828.1409878503139
2259.37890214843 1838.7664221526823
2259.97781870799 2290.8046412361787
2260.5765906973957 2108.92068203662
2261.175218149645 1901.0470984599094
2261.773701097718 2073.391867529705
2262.3720395745895 1683.6351084983678
2262.970233613216 1795.4565751993869
2263.568283246548 1855.9078711398233
2264.1661885075137 1695.1530769027563
2264.763949429038 1788.8495674101446
2265.3615660440246 2183.082420040348
2265.959038385374 1718.4560694338056
2266.5563664859637 2186.1888625205565
2267.153550378669 1575.0439774819579
2267.7505900963424 1962.9421557296894
2268.3474856718312 1803.2554059843974
2268.9442371379664 1847.714581791804
2269.5408445275643 1808.4061321003628
2270.1373078734377 1961.6014259070907
2270.7336272083758 1735.7740447568485
2271.32980256516 1774.3619255934123
2271.925833976562 1855.9051657155728
2272.5217214753357 1779.5279367770836
2273.117465094223 1702.9621095440161
2273.7130648659586 1678.4974294163676
2274.308520823257 1757.0843324303482
2274.903832998827 2073.0472417197075
2275.4990014253563 1523.0418757140683
2276.094026135528 2035.3520556983883
2276.6889071620117 1567.5948739374512
2277.2836445374614 1837.9922006649201
2277.878238294519 1980.3097589596077
2278.472688465812 1750.3206092101495
2279.066995083962 1519.9250572335902
2279.6611581815705 1566.0115484241996
2280.255177791232 1570.2900164574562
2280.8490539455233 1914.0341421340206
2281.442786677013 2258.460846147912
2282.0363760182554 2109.60936388732
2282.6298220017943 1630.408598810306
2283.223124660155 2246.4703590835966
2283.816284025859 1761.9449080603104
2284.4093001314086 2209.368276108752
2285.002173009292 2142.342838784344
2285.5949026919952 2075.1568160882043
2286.1874892119777 1845.4518874141545
2286.7799326016993 1993.517963844281
2287.3722328936 1684.425708619857
2287.964390120109 1396.6115422497662
2288.556404313642 1884.4466138869316
2289.1482755066027 2325.74166428208
2289.7400037313873 1871.7924038429333
2290.3315890203703 1631.7550407704794
2290.9230314059205 1738.8936921566024
2291.5143309203904 1846.2601298920677
2292.1054875961236 1732.358134227202
2292.6965014654506 2294.6790193184643
2293.287372560684 1702.4105161879056
2293.878100914131 1655.7909993696005
2294.468686558086 1609.1252385442358
2295.059129524827 1819.2712416263516
2295.649429846617 1791.0089894630892
2296.239587555716 1762.6345152303115
2296.8296026843636 2016.5436111823776
2297.419475264791 1859.5593076802518
2298.0092053292137 2298.46529719073
2298.598792909839 2140.390048979293
2299.1882380388597 1808.987048327308
2299.777540748455 1968.8960953856663
2300.3667010707904 2128.8945146864767
2300.9557190380256 2146.1845305375086
2301.544594682302 1806.2500776720372
2302.1333280357503 2227.189454600955
2302.721919130485 1966.4808302206166
2303.3103679986198 2511.150684995837
2303.898674672242 2134.7941132011683
2304.486839183437 1798.3753985967437
2305.0748615642697 1919.3512147913002
2305.6627418468015 1850.35393425465
2306.2504800630704 1805.5650775175582
2306.8380762451143 2056.677460859708
2307.425530424949 2016.1378944662508
2308.012842634582 1975.489575013582
2308.6000129060103 2062.1179527288873
2309.187041271214 2454.37562432757
2309.773927762164 1643.9757747382114
2310.3606724108213 2168.6499976614255
2310.9472752491274 1439.232238174523
2311.5337363090184 1963.3815810104963
2312.120055622414 1699.4110537494773
2312.706233221221 1886.455140662205
2313.2922691373424 1633.184152043346
2313.8781634026564 1702.4509197469993
2314.463916049037 1771.8607895968016
2315.049527108342 1959.813457157301
2315.6349966124235 2223.9100902164055
2316.2203245931123 2241.3307846954986
2316.8055110822315 1702.6112014266218
2317.3905561115935 1673.1294770450445
2317.9754597129977 1717.9945131348297
2318.560221918229 1647.0701176990747
2319.1448427590603 1576.0206127420195
2319.729322267256 1652.5728680761488
2320.313660474563 1757.6439250029282
2320.8978574127195 1868.9037342790903
2321.481913113452 1980.551212557745
2322.0658276084705 1986.6411743749504
2322.6496009294806 1954.3685449126679
2323.233233108165 1714.545746866947
2323.8167241762058 1882.8312460724198
2324.4000741652617 1794.8051632547456
2324.983283106987 2096.168961435512
2325.5663510330232 2134.018215920528
2326.1492779749933 1866.933406448059
2326.7320639645204 2003.5687735441709
2327.3147090332004 1698.2357992687932
2327.897213212629 1778.8093519848142
2328.4795765343843 1859.3583848393114
2329.0617990300307 1750.6394516319087
2329.643880731124 2350.451433517138
2330.22582166921 1717.3885580556023
2330.807621875816 2306.3915623146977
2331.3892813824623 1472.6297289799763
2331.9708002206517 1591.0446596973666
2332.5521784218818 1712.3396908817754
2333.133416017634 1833.9567587991526
2333.7145130393765 1866.5276589118741
2334.295469518571 2209.2820062802884
2334.876285486658 2063.3094242165994
2335.456960975076 2130.4783414776625
2336.037496015242 2197.834301091572
2336.6178906385667 1941.9427151535754
2337.198144876451 1915.0843308553626
2337.778258760278 1802.4064888499572
2338.3582323214214 1903.2698054809978
2338.938065591243 2004.319767881425
2339.517758601087 2216.557838434277
2340.0973113822965 2086.2726245851954
2340.676723966193 1864.214888986305
2341.255996384094 2094.04692037639
2341.835128667295 2250.009625292716
2342.4141208470883 2084.466073137325
2342.992972954751 1733.2717023810899
2343.5716850215467 1400.4165789412496
2344.1502570787306 1066.8552236378225
2344.7286891575386 1429.1582573576597
2345.3069812892045 1709.439238885857
2345.885133504944 1990.0606384931536
2346.4631458359618 1688.5313128017472
2347.04101831345 1759.3444678141507
2347.6187509685915 1933.0422686184065
2348.196343832553 1623.6908131857733
2348.7737969364935 1890.0018414624533
2349.351110311558 1630.938022735384
2349.9282839888765 1597.055859702436
2350.5053179995757 1437.270170257613
2351.0822123747585 1644.898458610817
2351.658967145526 1603.3135732228145
2352.2355823429643 1561.7524918171061
2352.812057998144 1989.644041129859
2353.3883941421263 1772.0113794869649
2353.9645908059647 1854.7146349245966
2354.540648020693 1726.426815755001
2355.116565817336 1560.8974772942302
2355.6923442269126 2056.589839561895
2356.2679832804224 1882.2371777471258
2356.8434830088518 1884.2564128619026
2357.41884344318 1840.1871385905247
2357.994064614377 2123.6895381032878
