#exp_cfg={"servo_angle": 0.0, "laser_lim": 100.0, "servo_angle_to": 18.0, "laser_wup": 0.0, "bt_dev": "EnSpectr-25AE3", "laser_wdn_max": 0.0, "frames": 10.0, "servo_used": 0, "servo_calib_use": 0, "laser_wdn_min": 0.0, "servo_pix_from": 90.0, "cooler_tout": 300.0, "servo_angle_from": 0.0, "servo_calib": "[-1.9174921013161362e-09, 3.9322238269163779e-05, -0.27385609119055809, 653.59552119713567]", "laser_autoctl": 0, "servo_pix_to": 3682.0, "laser_pw": 100.0, "cooler_on": 0, "laser_volt": 4.0, "cooler_autoctl": 0, "cooler_curr": 70.0, "cooler_startup": 10.0, "laser_fixed_pw": 0, "gain": 1.3, "offset": 2.53059635486, "servo_calib_degree": 3.0, "laser_curr": 55.0, "shutter": 8200.0, "servo_calib_step": 1.0, "laser_fixed_curr": 0, "exp": 2000.0, "ccd_volt": 4.7, "bt_addr": "00:06:66:62:5A:E3", "servo_delay": 500.0, "laser_autooff": 1}
#proc_cfg={"flat_auto_wnd": 200.0, "flat_auto_fr": 200.0, "flat_auto_shift": 5.0, "yconv": 1, "flatten": 1, "flatten_strength": 100.0, "xfrom": 300.0, "auto_max_frame": 2000.0, "auto_signal": 48000.0, "flat_auto_tol": 0.1, "autoclip": 1, "xrel_range": 0.0, "flat_auto_to": 4000.0, "intensity_adj": 1.0, "xrel": 7852.0, "rmhot": 1, "flat_auto_slit": 4.999999999999997, "auto_ini_exp": 300.0, "auto_off": 0, "xto": 2860.0, "flat_auto_ref": "", "flat_auto_rank": 1, "autobackg": 0, "xrel_adj": 0.0, "auto_black_lvl": 1, "base_wnd": 100.0, "sub_baseline": 0, "xconv": 2, "auto_max_exp": 1000.0, "auto_total_exp": 10000.0, "auto_exp": 0, "rmripple": 0, "black_lvl": 8275.4875, "shutter_clip_adj": 0.0, "auto_bckg": 0, "flat_auto_thr": 0.9, "subbackg": 1}
316.8218498245369 11453.158424731084
317.89969571804795 11255.480847222007
318.977263876126 11275.136245800939
320.05455438786703 11125.183843268402
321.1315673423287 11121.592444172598
322.2083028285215 11148.444871717624
323.2847609354267 11121.713028102637
324.3609417519747 11012.420501637656
325.43684536705587 10944.782628400655
326.5124718695279 10966.748358900611
327.58782134820103 10899.384913077
328.66289389184385 10937.682589626127
329.7376895891921 10694.149042843857
330.8122085289342 10779.316779781828
331.88645079971866 10805.556713377953
332.9604164901575 10734.300480926544
334.03410568881554 10613.368517278535
335.1075184842266 10816.143201401617
336.18065496487543 10592.611462483497
337.2535152192122 10649.506902777795
338.32609933564163 10716.771940338369
339.39840740253203 10620.564744313828
340.4704395082099 10600.246660285478
341.5421957409617 10477.13758293548
342.6136761890357 10608.639254485459
343.6848809406365 10514.464001698569
344.75581008392874 10454.02939537957
345.82646370703696 10484.600318233282
346.8968418980512 10406.855679147695
347.96694474501055 10502.03499281344
349.0367723359268 10390.984880720012
350.106324758759 10409.15541791778
351.1756021014353 10305.161182979855
352.2446044518383 10246.366878194878
353.31333189781435 10327.154366378923
354.38178452716966 10310.237193339595
355.449962427665 10287.166599148786
356.51786568702846 10221.231779448202
357.58549439294256 10382.676566218255
358.6528486330535 10358.009060093787
359.71992849496564 10284.895006945362
360.7867340662433 10289.18413055006
361.8532654344144 10304.73489369431
362.9195226869597 10379.96022068335
363.9855059113288 10201.765766349115
365.05121519492604 10146.836982967376
366.11665062511565 10325.632202139011
367.1818122892273 10325.09804536463
368.2467002745434 10364.304149567824
369.31131466831175 10305.02307782585
370.375655557742 10294.265534024416
371.4397230299983 10352.077901690165
372.5035171722102 10340.476837807753
373.5670380714637 10338.911979390943
374.6302858148101 10347.192845331036
375.6932604892554 10393.35465938198
376.7559621817709 10384.765452228461
377.81839097928605 10295.30217731816
378.8805469686886 10344.653218825391
379.94243023683157 10445.93563355361
381.0040408705263 10280.83560110836
382.0653789565458 10213.986933413582
383.1264445816196 10208.394363938434
384.1872378324406 10249.372023334388
385.2477587956637 10212.01524870742
386.3080075579037 10144.427879937726
387.3679842057336 9996.028825923222
388.4276888256918 10198.240596997312
389.48712150426945 10058.904421313864
390.54628232792857 10108.352097333855
391.6051713830857 9975.616987323094
392.66378875611736 10052.066684844298
393.7221345333637 9999.105859585517
394.7802088011249 9994.94529867895
395.838011645661 10025.517352478853
396.89554315319765 9921.579740139752
397.9528034099112 9910.495828232579
399.00979250194723 9828.196737996817
400.06651051541485 9868.095098157
401.1229575363741 9973.045095471774
402.17913365085224 9808.63025498913
403.23503894483656 9898.395253272367
404.2906735042761 9768.849794527856
405.3460374150818 9715.914069892175
406.401130763119 9717.403828627965
407.455953634224 9702.679481730429
408.5105061141876 9671.493764984434
409.56478828876243 9554.449566994104
410.6188002436629 9619.973182311016
411.6725420645689 9585.350822243365
412.72601383711117 9624.693105224105
413.77921564689314 9681.328344030742
414.8321475794728 9565.677177305013
415.88480972036814 9536.380103611278
416.93720215506437 9499.178637220899
417.9893249690049 9508.422287503026
419.04117824759123 9402.136422811087
420.09276207619223 9497.312526643638
421.144076540133 9470.938877473931
422.1951217247042 9379.102182561719
423.24589771515275 9405.43370157884
424.2964045966928 9454.913514490781
425.34664245449494 9436.510855002733
426.3966113736933 9410.822112059726
427.4463114393875 9337.85751287856
428.49574273662984 9335.178645090818
429.5449053504417 9292.19604361738
430.5937993658026 9308.941922133865
431.6424248676558 9223.944254632233
432.6907819409007 9178.523014928684
433.73887067040596 9281.05100550013
434.7866911409965 9319.48178532142
435.8342434374608 9159.763222996009
436.88152764455117 9172.943632172879
437.9285438469724 9112.013260292222
438.9752921294057 9093.865038578242
440.02177257648145 9100.085127391822
441.06798527279716 9037.910161451406
442.1139303029122 9221.894503784224
443.1596077513459 9307.117927822803
444.2050177025794 9069.832896307456
445.25016024105753 9123.628785946725
446.2950354511886 9112.590193539309
447.33964341733736 9112.55788044165
448.383984223834 9036.797355903549
449.4280579549686 8964.071103387929
450.471864694995 9017.536775548175
451.5154045281306 9071.99385702779
452.5586775385509 9000.709768283976
453.60168381039693 9058.210093925947
454.64442342776783 9107.496940382674
455.6868964747264 9068.137293341331
456.7291030353008 8961.634437351295
457.77104319347563 9094.85141355588
458.8127170332027 8970.085055738096
459.854124638392 9035.486394256626
460.895266092919 9008.962428563096
461.93614148061897 9071.269367068871
462.97675088529104 9101.972342707364
464.01709439069236 8990.683029980022
465.0571720805492 9034.038466582682
466.0969840385442 8987.014328226674
467.1365303483253 9135.857570376833
468.17581109350067 9035.908785400696
469.2148263576437 8934.214719049778
470.2535762242878 9004.335063215469
471.29206077693016 9018.024563279021
472.33028009902773 9185.654537248425
473.3682342740012 9094.102706664535
474.40592338523857 9085.741274751414
475.4433475160804 9115.00643579139
476.4805067498364 9172.128318798965
477.51740116978 9251.756895846203
478.5540308591426 9346.85289104807
479.59039590112116 9504.968139342986
480.6264963788726 9455.238236814239
481.6623323755193 9645.910278310806
482.6979039741436 9673.754627387394
483.7332112577915 9902.77139877455
484.76825430947247 10122.850477211781
485.80303321215797 10099.042743721178
486.837548048783 10200.638343362187
487.8717989022425 10455.08645005549
488.90578585539697 10431.35400561347
489.9395089910686 10500.467991981988
490.97296839203955 10470.231825361388
492.00616414106116 10386.981614934719
493.0390963208429 10471.343663844684
494.0717650140559 10415.638463349605
495.10417030333883 10302.87843142816
496.1363122712901 10221.330972076472
497.16819100046814 9996.503572548738
498.1998065734024 9849.647524060867
499.2311590725767 9886.465198010406
500.26224858044407 9704.965166855345
501.2930751794156 9490.726800435017
502.3236389518679 9527.153409164797
503.35393998014115 9303.831163045084
504.38397834653733 9222.179859784988
505.4137541333221 9189.135440151738
506.4432674227228 9063.004478669982
507.4725182969323 8943.622121589397
508.5015068381035 8954.596473820593
509.53023312835467 8938.982977316315
510.55869724976765 8883.375928513207
511.58689928438434 8804.827234461744
512.6148393142121 8808.764132577136
513.6425174212218 8933.831769708404
514.6699336873462 8819.600601421505
515.6970881944835 8856.280007149579
516.7239810244901 8782.546976996096
517.7506122591931 8849.507597871332
518.7769819803761 8802.432359686158
519.8030902697901 8891.862755062768
520.8289372091476 8885.934624954763
521.8545228801249 8958.922921319756
522.8798473643619 8802.367379329673
523.9049107434621 8812.801368346874
524.9297130989908 8902.429349452012
525.9542545124805 8906.294179119464
526.9785350654201 8763.304464118135
528.0025548392696 8886.349114958668
529.0263139154504 8763.840190134808
530.0498123753423 8863.557068755072
531.073050300296 8756.338529710618
532.0960277716204 8671.408468729092
533.1187448705896 8664.681484659235
534.1412016784416 8748.3102621152
535.1633982763833 8626.280237927796
536.1853347455726 8599.078662767914
537.2070111671401 8681.53763483159
538.2284276221817 8531.191029615222
539.2495841917516 8476.498250113767
540.2704809568677 8380.100232511752
541.2911179985167 8469.73062453519
542.3114953976419 8402.949185802343
543.3316132351592 8372.128145284772
544.3514715919409 8259.444640769034
545.3710705488247 8246.303610112032
546.3904101866156 8292.87045337681
547.4094905860784 8241.861788427435
548.4283118279418 8222.126241674672
549.4468739929034 8172.780965363165
550.4651771616191 8144.431440550441
551.4832214147063 8127.17051976107
552.501006832761 8148.38418420654
553.5185334963226 8078.69699166248
554.5358014859103 8154.078184994575
555.5528108820035 8079.13508592772
556.5695617650363 8102.084288154772
557.5860542154242 8112.546451621621
558.6022883135283 8118.352717525684
559.6182641396881 8049.848309892941
560.6339817741991 8118.684784566353
561.6494412973225 8045.506639723817
562.6646427892883 8188.28354056757
563.6795863302796 8099.919575522561
564.694272000459 8033.306036253921
565.7086998799423 8207.956054918479
566.7228700488104 8050.298706783777
567.7367825871115 8018.065364823485
568.7504375748576 8100.472985513375
569.7638350920224 8078.651547021525
570.7769752185486 8029.381839309577
571.7898580343353 8118.696179040902
572.802483619258 8054.927546117758
573.8148520531431 8238.947250186819
574.8269634157932 8199.019002061852
575.8388177869692 8161.410745613764
576.8504152463938 8262.629764328052
577.8617558737587 8413.363171261582
578.8728397487175 8298.472415177326
579.883666950891 8336.882534396642
580.8942375598654 8558.822959018562
581.9045516551851 8606.120069365521
582.9146093163617 8708.59105254528
583.924410622878 8614.561340153983
584.9339556541727 8734.75427846384
585.9432444896538 8823.607902396394
586.9522772086875 8689.144647099945
587.9610538906127 8826.24705201072
588.9695746147318 8761.709460886283
589.9778394603054 8796.2390074851
590.985848506567 8687.106378270335
591.9936018327098 8632.463985863966
593.0010995178891 8440.481128971294
594.0083416412344 8530.982885521751
595.0153282818283 8366.276693718257
596.0220595187293 8243.510303703933
597.0285354309508 8230.269921411515
598.0347560974806 8192.530497310805
599.0407215972609 8109.861976501081
600.0464320092051 8055.485801562015
601.0518874121954 8125.207754165046
602.0570878850685 8069.005748123706
603.062033506636 7994.2414554507
604.0667243556636 7964.833593506983
605.0711605108936 7920.893964127192
606.0753420510264 8212.615789346968
607.0792690547278 8025.052524951438
608.082941600629 7917.521635899192
609.0863597673306 8105.79402077213
610.0895236333909 8103.785866897799
611.0924332773357 8193.786885101334
612.0950887776617 8160.719903648098
613.0974902128219 8237.256466773102
614.0996376612384 8349.672073681422
615.1015312013005 8427.744673263067
616.1031709113595 8472.245273959268
617.1045568697336 8505.67832718752
618.1056891547069 8628.031161472467
619.1065678445229 8736.514357285614
620.1071930173985 9010.059110082459
621.1075647515099 9025.861162772831
622.1076831250048 9158.750785580214
623.1075482159849 9274.46737885637
624.1071601025305 9427.482917691133
625.1065188626781 9530.116383078586
626.105624574433 9767.292557083216
627.1044773157682 9902.736836420292
628.1030771646128 9995.143291627597
629.1014241988742 10120.81887443193
630.0995184964158 10270.866923437785
631.0973601350688 10385.03689436595
632.0949491926294 10579.658900727696
633.0922857468631 10258.366866279632
634.089369875499 10460.498815463441
635.0862016562278 10502.69782861565
636.0827811667077 10250.067660323835
637.0791084845641 10297.593616110562
638.0751836873878 10120.358002743906
639.0710068527369 10134.081127770103
640.0665780581294 9846.451225270283
641.0618973810506 9844.484137221003
642.0569648989604 9760.160569828913
643.0517806892676 9439.983287269704
644.0463448293649 9415.614978494405
645.040657396592 9159.30869459757
646.0347184682723 9045.9648702435
647.0285281216875 8857.449272901318
648.0220864340772 8727.183707784237
649.0153934826558 8597.804545975083
650.0084493446047 8522.82002792707
651.0012540970674 8463.998806850428
651.9938078171526 8307.934239019965
652.9861105819346 8283.73441440352
653.9781624684565 8266.904576757293
654.9699635537254 8097.1501589057025
655.9615139147136 8088.551712574612
656.9528136283589 7981.883593323304
657.9438627715699 8094.74503170566
658.9346614212154 7972.312339164925
659.925209654135 7794.392228366693
660.9155075471263 7818.868492456857
661.9055551769616 7795.734327954628
662.895352620375 7931.763136551493
663.8848999540678 7777.742658824478
664.8741972547068 7658.450431922999
665.863244598926 7647.1854532816815
666.8520420633213 7655.767846359925
667.8405897244611 7547.694951824762
668.8288876588758 7552.355339498974
669.8169359430613 7618.018699249134
670.8047346534822 7588.976884280128
671.7922838665672 7392.7055973725455
672.7795836587156 7567.992629093578
673.766634106285 7751.63886147312
674.7534352856092 7532.284631615492
675.7399872729766 7485.611804326991
676.7262901446538 7529.856502624641
677.712343976862 7514.562311258041
678.6981488457986 7569.192740753232
679.6837048276229 7460.317455871305
680.6690119984596 7537.583166730253
681.6540704344043 7512.770217341369
682.6388802115107 7419.218145078061
683.6234414058108 7456.256907049517
684.6077540932874 7468.143020230958
685.591818349907 7427.560850874633
686.575634251587 7481.601521677316
687.5592018742263 7399.673170605216
688.5425212936734 7252.8942021215535
689.5255925857564 7395.367666074315
690.5084158262707 7383.283701556562
691.4909910909646 7295.601083202152
692.4733184555644 7258.6687791882705
693.4553979957618 7333.020556660216
694.4372297872123 7286.975272917703
695.4188139055404 7256.911840274988
696.4001504263324 7127.478611632549
697.3812394251509 7322.306133574275
698.3620809775111 7278.539987952021
699.3426751589104 7174.819137843978
700.3230220448004 7145.794627240485
701.3031217106054 7158.630928511421
702.2829742317172 7288.382689983098
703.2625796834873 7047.354851271909
704.2419381412474 7029.30201267769
705.22104968028 7118.945273708674
706.1999143758458 7108.678364496782
707.178532303169 7048.943870587829
708.1569035374378 7129.263771745854
709.1350281538107 7189.901516231816
710.1129062274158 7099.167386035328
711.0905378333373 7231.775094795106
712.0679230466376 7185.824132799814
713.0450619423427 7361.048440062169
714.0219545954424 7419.393987694032
714.9986010808989 7310.645400628618
715.9750014736292 7280.802292658594
716.9511558485392 7428.628613629466
717.9270642804786 7514.0436487789175
718.9027268442787 7583.485088357816
719.8781436147328 7533.352352253234
720.8533146666014 7520.871683545347
721.828240074612 7569.6982593697085
722.8029199134635 7556.995235986668
723.7773542578125 7559.988217868379
724.751543182294 7464.082784730652
725.7254867615029 7544.959395858319
726.6991850700015 7294.4851197649605
727.6726381823228 7347.289481652258
728.6458461729599 7369.90391294697
729.6188091163858 7277.483231692114
730.5915270870246 7303.375386400267
731.5640001592856 7203.555336868092
732.536228407529 7224.115299426437
733.5082119060917 7283.089541543224
734.4799507292755 7238.75451334963
735.4514449513481 7133.4757467866275
736.4226946465496 7240.329121719684
737.3936998890786 7302.654867513142
738.3644607531078 7197.397190522684
739.3349773127793 7245.3801978323445
740.3052496421951 7273.077150631235
741.27527781543 7093.700698953687
742.2450619065221 7125.676656373069
743.2146019894826 7062.946596302392
744.183898138288 7172.053126783178
745.1529504268801 7079.581450208326
746.1217589291682 6944.763134903139
747.0903237190341 7079.3892801854645
748.058644870318 6976.955123916545
749.0267224568397 6920.074125480506
749.994556552374 6884.168186854547
750.9621472306771 6933.749429153109
751.9294945654583 6937.906152887166
752.8965986304011 6912.345925966678
753.8634594991636 6816.868639244538
754.8300772453586 6953.191948748221
755.7964519425768 6921.426321888735
756.762583664371 7055.995676817994
757.7284724842611 6991.793494304395
758.6941184757416 6948.008426623671
759.6595217122667 6961.014472091975
760.6246822672638 6978.428560597431
761.5896002141235 6868.3924098920525
762.5542756262093 6910.897829673964
763.5187085768503 6960.056513526489
764.4828991393406 6910.326637826579
765.4468473869474 6958.666637350941
766.4105533929032 7000.103333738084
767.3740172304078 6897.09463162576
768.3372389726283 6986.50549976702
769.3002186926988 6805.9247399101905
770.2629564637282 6823.078777423978
771.2254523587872 6750.614271725877
772.1877064509154 6659.665014679752
773.1497188131179 6569.744269248406
774.1114895183728 6622.443556399936
775.0730186396268 6576.878195524332
776.0343062497905 6552.653101978122
776.9953524217381 6499.193481255801
777.9561572283274 6559.058817547049
778.9167207423689 6512.626089157377
779.8770430366476 6431.441324744409
780.8371241839159 6511.942928670207
781.7969642568951 6483.949473464264
782.7565633282757 6662.368758709044
783.7159214707099 6419.553932355191
784.6750387568281 6497.172870308457
785.6339152592227 6471.633688907432
786.5925510504512 6411.55425937674
787.5509462030477 6503.696828959335
788.5091007895098 6503.614364543005
789.4670148823006 6485.196522283383
790.4246885538596 6453.217658030006
791.3821218765861 6466.0789414151495
792.3393149228505 6378.529162496272
793.2962677649975 6526.951210997692
794.2529804753303 6448.383139332367
795.20945312613 6512.13847813523
796.1656857896378 6432.5768729394995
797.1216785380675 6451.767092195636
798.0774314435985 6536.558743241118
799.0329445783846 6650.394875499509
799.9882180145414 6650.3209946481165
800.9432518241574 6613.109870643972
801.89804607929 6728.477283109254
802.852600851962 6771.971087637847
803.8069162141637 6784.395833096862
804.760992237856 6851.343922106268
805.714828994971 6894.0556045837175
806.6684265574077 6942.198041366723
807.6217849970271 6811.588148516767
808.574904385674 6813.381918635569
809.527784795142 6940.386006070819
810.4804262972102 7008.942172577244
811.4328289636178 6768.899644158728
812.3849928660748 6628.375992366734
813.3369180762638 6668.8445847394305
814.2886046658241 6697.238652561975
815.2400527063783 6583.602181272074
816.1912622695108 6569.768240372046
817.1422334267718 6539.664488472406
818.0929662496856 6436.3807776218055
819.0434608097457 6262.724454859211
819.9937171784059 6345.966127381299
820.9437354271013 6230.9584692456865
821.8935156272255 6368.9921904162775
822.8430578501484 6184.864081763462
823.7923621672016 6027.828070414651
824.7414286496896 6080.521766388798
825.6902573688876 6113.475156058182
826.6388483960363 6034.127863275573
827.5872018023492 5993.242104531393
828.5353176590033 6109.711917182552
829.4831960371503 5968.641715215126
830.4308370079016 5958.399552919117
831.3782406423525 6003.715199538323
832.3254070115545 6057.727613815408
833.2723361865319 5949.273905784797
834.2190282382799 5873.45858759853
835.1654832377644 5933.118803935691
836.1117012559116 5895.830301944856
837.0576823636256 6049.240030162655
838.003426631778 5820.870084790954
838.9489341312074 5859.206378856956
839.8942049327197 5999.719067453312
840.8392391070975 6039.645787017121
841.7840367250865 5931.192076052774
842.7285978573982 5872.973076810727
843.672922574724 5944.785327857849
844.6170109477152 5936.718440179685
845.560863046996 5874.546666615066
846.5044789431595 5846.960240627681
847.4478587067697 5895.285211875472
848.3910024083561 5986.552423993996
849.333910118421 5836.459866143242
850.2765819074339 5841.116715959778
851.2190178458332 5916.347302192848
852.161218004032 5932.8122556163235
853.1031824524016 5930.553306382909
854.0449112612987 5859.612872383848
854.9864045010327 5971.970340329942
855.9276622418947 5869.761216076744
856.8686845541379 5848.853986103257
857.8094715079915 5859.389660657774
858.7500231736467 6016.3470047260425
859.690339621271 5906.4407512787375
860.6304209209939 5969.39637373759
861.5702671429244 5833.205769818453
862.5098783571284 5917.073006071152
863.4492546336569 5990.338036547551
864.3883960425155 5923.033521617731
865.3273026536863 5905.126645594155
866.2659745371238 5897.553519725886
867.2044117627465 6104.604232987849
868.1426144004472 5962.907471296233
869.0805825200823 6033.860652001314
870.0183161914847 6098.310516930158
870.9558154844526 6138.993086034848
871.8930804687552 6173.914258999017
872.8301112141307 6032.173256145417
873.7669077902865 6144.260995140744
874.7034702669062 6313.2255502268445
875.6397987136315 6203.9647842139
876.5758932000863 6263.470031376037
877.5117537958522 6337.631746598687
878.4473805704911 6262.139413543146
879.3827735935283 6278.618360406938
880.3179329344603 6393.7406550940805
881.2528586627541 6524.718034095484
882.1875508478479 6474.097213911465
883.1220095591489 6368.128398892108
884.0562348660296 6314.073703832813
884.9902268378391 6454.417073196543
885.9239855438955 6267.492361456813
886.8575110534839 6252.367215037573
887.7908034358588 6313.616046228833
888.7238627602474 6334.515862846866
889.6566890958475 6327.313060554039
890.5892825118208 6119.341437074211
891.5216430773125 6176.699147032499
892.4537708614189 6132.82292595001
893.3856659332196 6075.551560758201
894.3173283617652 6054.2679025240905
895.2487582160684 5999.308661173602
896.179955565116 5975.631130820665
897.110920477864 5864.769563581633
898.0416530232451 5891.853423527924
898.9721532701478 5834.984241889481
899.9024212874428 5917.8595063797
900.8324571439662 5738.559807321792
901.7622609085302 5682.2678883482495
902.6918326499072 5675.453151431558
903.6211724368477 5675.720651763784
904.5502803380696 5850.157419137935
905.4791564222614 5838.456856257607
906.4078007580792 5619.710666080264
907.3362134141571 5705.608460962833
908.2643944590909 5827.755096973237
909.1923439614493 5576.50924636011
910.1200619897754 5575.731647897537
911.0475486125779 5802.921576343369
911.9748038983344 5680.380444529171
912.9018279155007 5649.658506582909
913.8286207324982 5531.229825268352
914.7551824177117 5603.672590950751
915.6815130395116 5549.482781100898
916.6076126662283 5439.735887111427
917.533481366163 5533.1147997205135
918.4591192075914 5603.560181205715
919.3845262587565 5639.725900312572
920.3097025878706 5450.816438550029
921.2346482631237 5511.781212435386
922.1593633526682 5565.253231010183
923.0838479246304 5625.085747153281
924.0081020471061 5619.864589776274
924.9321257881656 5402.0500412891215
925.8559192158464 5469.75861734235
926.7794823981512 5493.631300178961
927.7028154030686 5454.617595777454
928.6259182985414 5331.249004848674
929.5487911524906 5557.326607303548
930.4714340328119 5562.083950538807
931.3938470073608 5302.729718891955
932.3160301439748 5434.710186203704
933.2379835104548 5440.355805023664
934.1597071745709 5492.653601809388
935.0812012040769 5447.64243590845
936.002465666681 5507.6318736034345
936.9235006300696 5520.112125157854
937.8443061619055 5493.927389140987
938.7648823298077 5318.758347386477
939.6852292013809 5372.094370184026
940.6053468441951 5469.396927691244
941.5252353257874 5367.402421917498
942.4448947136698 5384.278202443137
943.364325075323 5412.373967642808
944.2835264782043 5466.340560923698
945.2024989897309 5431.819617853275
946.1212426773054 5414.572265681619
947.0397576082851 5449.038853891271
947.9580438500125 5527.204027093306
948.8761014697939 5556.349318962354
949.7939305349064 5471.362487008215
950.7115311125999 5408.689555816453
951.6289032700952 5356.081851050482
952.5460470745875 5530.639378859503
953.4629625932339 5372.807224209484
954.3796498931715 5461.913670119133
955.2961090415029 5495.215055855702
956.2123401053068 5442.479782283409
957.1283431516276 5430.273974552212
958.0441182474842 5372.095473347845
958.9596654598663 5488.536943250315
959.8749848557309 5405.494810903828
960.7900765020167 5376.465521890879
961.7049404656209 5363.592459763326
962.6195768134185 5344.143283660951
963.5339856122537 5494.141377973885
964.4481669289453 5438.058730251411
965.3621208302793 5392.9743794582955
966.2758473830145 5326.578682111859
967.1893466538822 5534.146948536212
968.1026187095813 5337.10775010847
969.0156636167867 5301.116916502966
969.9284814421426 5434.145272756398
970.8410722522622 5380.5165127336295
971.753436113735 5277.128757130093
972.6655730931161 5311.74655106852
973.5774832569368 5432.634099898359
974.4891666716958 5307.492789599327
975.4006234038698 5322.746428091512
976.3118535198955 5263.571566278122
977.2228570861935 5434.330746997569
978.1336341691494 5443.532898293071
979.0441848351202 5311.162176868076
979.9545091504333 5470.821009157939
980.864607181391 5489.983909624958
981.7744789942699 5426.284007938522
982.6841246553086 5392.059221053666
983.5935442307236 5365.545979248648
984.5027377867027 5445.355135005178
985.4117053894024 5503.811817014166
986.3204471049557 5421.323418984089
987.2289629994648 5507.811269932164
988.1372531390007 5599.827528280794
989.0453175896091 5541.859031545447
989.9531564173067 5521.094103579306
990.860769688079 5423.9603211040885
991.7681574678918 5412.59043560656
992.6753198226706 5521.958083877668
993.582256818323 5506.628928387277
994.4889685207218 5454.009506090837
995.3954549957143 5716.566983234566
996.301716309119 5624.870363745112
997.2077525267232 5557.557365293993
998.1135637142943 5550.009142092425
999.0191499375615 5725.279726185201
999.924511262232 5695.662742902745
1000.8296477539861 5612.70733374372
1001.7345594784656 5577.322328419724
1002.6392465012996 5592.559812586469
1003.5437088880753 5740.072378189536
1004.4479467043584 5613.93775306038
1005.3519600156869 5470.078083657325
1006.2557488875718 5731.219785060988
1007.1593133854858 5599.463558310316
1008.0626535748888 5535.811751361547
1008.9657695212009 5490.992596530721
1009.8686612898182 5713.283998997904
1010.7713289461135 5726.873690894247
1011.6737725554212 5561.766173946742
1012.5759921830577 5513.289591739664
1013.4779878943027 5619.735520891462
1014.379759754418 5605.571985110364
1015.2813078286254 5452.421372590461
1016.18263218213 5388.369750475433
1017.0837328801026 5497.949735770281
1017.9846099876886 5518.496297049196
1018.8852635700023 5433.130119734011
1019.7856936921362 5341.663287681191
1020.6859004191447 5521.824101946572
1021.5858838160675 5381.211308188995
1022.4856439479063 5329.781417193455
1023.3851808796389 5325.386558064899
1024.2844946762143 5433.315774460297
1025.183585402554 5438.762002743984
1026.082453123554 5252.656643818323
1026.9810979040776 5330.395770751981
1027.8795198089647 5212.2513841770615
1028.777718903024 5357.750360428135
1029.6756952510368 5219.104578847459
1030.5734489177648 5207.734413059243
1031.4709799679313 5214.606503103622
1032.3682884662358 5362.918529271761
1033.2653744773506 5141.000831601249
1034.1622380659192 5165.050298294359
1035.058879296559 5265.11860578238
1035.9552982338591 5402.061289414613
1036.8514949423825 5254.416502065946
1037.7474694866614 5288.262530833914
1038.6432219312028 5205.5329932417235
1039.5387523404825 5388.306295626381
1040.4340607789582 5272.1741951179665
1041.3291473110476 5250.127715672819
1042.2240120011465 5458.334875715205
1043.1186549136273 5449.59004109651
1044.0130761128294 5349.9433972566785
1044.9072756630649 5383.812275341914
1045.8012536286205 5517.4255996470265
1046.6950100737577 5509.0115372652435
1047.588545062701 5565.116896814002
1048.481858659663 5497.213728155561
1049.3749509288118 5616.578334130045
1050.2678219343034 5432.270606456034
1051.1604717402515 5536.7653136736935
1052.0529004107575 5471.508074701648
1052.9451080098825 5572.9457224525595
1053.8370946016694 5585.342994322664
1054.7288602501267 5579.198184060032
1055.6204050192446 5589.0436062328845
1056.511728972977 5604.106771728343
1057.402832175254 5544.201695411477
1058.2937146899785 5468.906289326023
1059.1843765810263 5488.897204660941
1060.0748179122456 5560.011235002522
1060.9650387474576 5537.957341316654
1061.855039150456 5492.986561433044
1062.7448191850071 5518.636661259401
1063.6343789148505 5493.186623635696
1064.5237184037014 5517.494672740764
1065.412837715241 5484.312952260983
1066.3017369131267 5444.19845512394
1067.190416060992 5456.4028102735165
1068.0788752224398 5403.96040404367
1068.9671144610438 5382.650324115841
1069.8551338403558 5511.2722799533285
1070.7429334239023 5477.149590843322
1071.6305132751695 5383.46930639052
1072.517873457633 5401.75897238331
1073.4050140347335 5395.126950324997
1074.2919350698776 5422.171779855244
1075.1786366264623 5429.663125712736
1076.0651187678395 5351.848672613724
1076.95138155735 5213.827146343575
1077.8374250582929 5271.465735933644
1078.7232493339507 5321.9031717273665
1079.608854447577 5243.649216877595
1080.4942404623907 5170.158096248675
1081.3794074415982 5283.201652791899
1082.2643554483657 5280.2915676083185
1083.149084545841 5171.708805196078
1084.033594797138 5131.077602142106
1084.9178862653516 5109.993974629639
1085.8019590135427 5253.266654363068
1086.6858131047484 5092.330626176884
1087.5694486019802 5096.121696799926
1088.4528655682225 5170.438471463078
1089.3360640664287 5236.114545550912
1090.2190441595321 5160.755310947969
1091.1018059104317 5107.225054775571
1091.98434938201 5205.821044078095
1092.866674637111 5234.488486862211
1093.748781738559 5108.046476128312
1094.6306707491512 4981.978581286798
1095.5123417316554 5189.282594980574
1096.3937947488157 5118.470319129772
1097.2750298633455 5044.736864895013
1098.156047137938 5067.752594013258
1099.0368466352556 5124.037959274462
1099.9174284179317 5205.326521033181
1100.7977925485757 4910.43848565504
1101.6779390897755 5061.923815452828
1102.5578681040806 5017.300476189799
1103.4375796540226 5123.846152706877
1104.3170738021054 4963.056067366364
1105.1963506108077 4879.249854263644
1106.0754101425773 4961.805184795319
1106.9542524598382 5137.294991748977
1107.8328776249855 4996.387988690409
1108.7112857003904 5009.894548000144
1109.5894767483987 5048.322534578132
1110.4674508313292 5152.753888712313
1111.3452080114657 5030.645819435177
1112.2227483510815 5239.385813557003
1113.1000719124077 5214.139090734164
1113.9771787576592 5310.890169618794
1114.854068949022 5185.350420791803
1115.7307425486542 5278.116784335438
1116.6071996186893 5456.683920710192
1117.483440221229 5523.355507875899
1118.3594644183577 5349.310570443899
1119.235272272128 5412.765359606031
1120.1108638445658 5561.9218983393675
1120.9862391976712 5853.408105707598
1121.8613983934229 5701.791695589022
1122.7363414937627 5773.810638287502
1123.6110685606182 5782.88173789463
1124.485579655884 5951.257231317728
1125.359874841426 5850.174626141104
1126.2339541790916 5931.811623149264
1127.1078177306936 6129.74123918081
1127.9814655580267 6006.5602366516505
1128.854897722851 5987.0995973261215
1129.7281142869106 6009.011346107521
1130.6011153119125 6046.006151785934
1131.473900859548 6217.614066146338
1132.3464709914697 6042.64889422426
1133.2188257693178 6080.517936514656
1134.0909652546961 5942.299017387607
1134.96288950919 5872.366664272594
1135.8345985943506 6032.537572423838
1136.7060925717087 5834.292367552333
1137.57737150277 5785.421364894957
1138.4484354490069 5924.6864136258055
1139.3192844718778 5747.380750698192
1140.1899186327992 5660.117066477856
1141.060337993178 5762.594330496811
1141.930542614382 5633.106537219767
1142.8005325577597 5509.529334147783
1143.670307884635 5425.784976163716
1144.5398686563003 5568.494210180275
1145.409214934025 5412.694893792985
1146.2783467790541 5243.243827230441
1147.1472642526023 5344.623163372458
1148.0159674158622 5374.639391355912
1148.8844563300026 5149.734967008077
1149.7527310561618 5036.122894987538
1150.6207916554504 5047.652354834126
1151.4886381889592 4999.153248719389
1152.3562707177498 5066.357686587273
1153.2236893028585 4981.530030157149
1154.090894005296 4927.298101961532
1154.9578848860474 4924.6045853513615
1155.8246620060709 4923.046828527108
1156.6912254262988 4753.12512769957
1157.5575752076438 4759.922955364211
1158.42371141098 4956.573455645486
1159.2896340971656 4953.063370331755
1160.1553433270346 4781.929535984891
1161.0208391613887 4853.364927210838
1161.8861216610057 4833.912710324336
1162.75119088664 4832.6658309420545
1163.6160468990201 4739.419046784615
1164.4806897588442 4739.923553918791
1165.3451195267917 4840.794659298586
1166.2093362635114 4773.560603332779
1167.0733400296285 4813.445148321701
1167.9371308857444 4754.135777932527
1168.8007088924278 4697.552232061576
1169.6640741102328 4703.867260888619
1170.5272265996773 4687.133347066028
1171.390166421259 4583.137860983489
1172.252893635452 4710.427093966094
1173.1154083026995 4915.203898052421
1173.977710483421 4825.082357426336
1174.8398002380145 4634.378254563397
1175.7016776268483 4797.548239731945
1176.563342710264 4702.3158174732835
1177.4247955485826 4672.511822374918
1178.2860362020947 4808.884824188771
1179.147064731069 4673.029615054604
1180.0078811957483 4818.06090808049
1180.8684856563486 4754.211211634931
1181.7288781730604 4775.446493594025
1182.589058806052 4892.534089023327
1183.4490276154593 4965.278795418111
1184.3087846614017 4741.163365407096
1185.1683300039676 4922.838461064903
1186.027663703222 5081.65870090274
1186.8867858192025 4981.857999247551
1187.7456964119228 5013.665601325321
1188.6043955413716 4994.827502288494
1189.4628832675116 5137.173095678862
1190.3211596502842 5232.819499072957
1191.179224749596 5193.7846953313865
1192.0370786253388 5112.718094331352
1192.8947213373758 5331.158534399156
1193.7521529455407 5404.1800057813225
1194.6093735096438 5147.508100796822
1195.466383089477 5184.775106142319
1196.3231817447977 5213.5084707846045
1197.1797695353398 5375.799192043714
1198.0361465208189 5200.467655767441
1198.8923127609214 5172.978608481726
1199.7482683153048 5429.841284415283
1200.6040132436028 5427.865591001145
1201.459547605431 5317.084677857312
1202.3148714603722 5324.249600779588
1203.1699848679855 5312.547637570685
1204.0248878878065 5355.668617618612
1204.8795805793507 5158.995232580211
1205.7340630020935 5293.147128494321
1206.5883352155033 5376.52821953795
1207.4423972790064 5295.7985134130295
1208.2962492520237 5151.297521724791
1209.1498911939307 5136.619195184196
1210.0033231640937 5160.197177511122
1210.8565452218427 5173.834994219108
1211.7095574264913 4845.553296930708
1212.5623598373222 4980.735545963768
1213.4149525135963 4904.904488373509
1214.2673355145507 5010.675392218278
1215.1195088993936 4875.772343735158
1215.9714727273113 4881.392144557472
1216.8232270574663 5063.402240850022
1217.6747719489904 4747.18566357213
1218.5261074609934 4814.509332271973
1219.3772336525653 4811.628706797219
1220.2281505827668 4900.12193213434
1221.0788583106296 5031.028656562752
1221.9293568951707 4711.255594412718
1222.7796463953746 4642.381387767955
1223.629726870202 4803.255466924353
1224.4795983785934 4787.854518838081
1225.3292609794553 4727.95735951168
1226.1787147316809 4658.36195741664
1227.0279596941327 4764.38222209503
1227.8769959256424 4685.643172359671
1228.7258234850306 4735.312960047792
1229.5744424310833 4587.084200125259
1230.422852822563 4848.843510555524
1231.2710547182105 4954.089080510816
1232.119048176739 4704.157531777571
1232.9668332568417 4562.252004538298
1233.8144100171812 4794.06838385237
1234.6617785163999 4731.797454175979
1235.508938813111 4607.275532903936
1236.3558909659114 4663.165069551524
1237.2026350333617 4902.891511798931
1238.049171074008 4916.942919893193
1238.8954991463652 4612.471786938344
1239.741619308932 4692.202789070059
1240.587531620169 4760.157386924735
1241.4332361385277 4827.026458934115
1242.2787329224248 4605.652216654778
1243.1240220302534 4584.945833207573
1243.9691035203869 4584.306630112195
1244.813977451171 4861.108695129098
1245.6586438809263 4682.512482727563
1246.5031028679496 4450.979961181751
1247.3473544705157 4784.420680945644
1248.1913987468706 4702.325688353504
1249.0352357552383 4476.4821399503435
1249.8788655538228 4596.393517769669
1250.7222882007918 4691.863006046557
1251.565503754302 4759.358763482813
1252.4085122724755 4441.409081537657
1253.2513138134182 4719.383729976975
1254.0939084352049 4716.050289569868
1254.9362961958905 4620.617479111918
1255.7784771535007 4566.165521564846
1256.6204513660432 4661.478363812287
1257.4622188915 4800.758098718563
1258.3037797878242 4654.433841861312
1259.1451341129468 4589.151444397701
1259.9862819247755 4714.558521143007
1260.8272232811978 4747.796172080397
1261.6679582400666 4899.308951426093
1262.5084868592203 4608.652316544127
1263.34880919647 4566.988479458007
1264.1889253095997 4699.809150809264
1265.0288352563712 4773.167247638471
1265.8685390945266 4639.39705554972
1266.7080368817751 4785.477401227104
1267.5473286758115 4833.612876432017
1268.386414534294 4681.876062084529
1269.2252945148703 4481.042097929033
1270.0639686751547 4600.661660283067
1270.9024370727402 4657.991196116105
1271.7406997651997 4560.7953608504795
1272.5787568100714 4477.3950755641945
1273.4166082648808 4560.578900322498
1274.2542541871244 4574.127899179851
1275.091694634275 4811.572005596089
1275.9289296637817 4449.221064616874
1276.7659593330663 4655.094319479831
1277.6027836995308 4532.3782333721065
1278.4394028205552 4716.456277742976
1279.2758167534867 4627.516742312031
1280.112025555658 4562.536597010026
1280.9480292843746 4647.80944901853
1281.7838279969128 4427.665932484056
1282.6194217505326 4483.262825047922
1283.4548106024686 4408.057996115585
1284.289994609926 4501.269246738112
1285.1249738300921 4675.637654723695
1285.959748320127 4487.822819789892
1286.7943181371702 4503.906878814627
1287.6286833383328 4538.66720307553
1288.4628439807038 4628.832487490903
1289.2968001213521 4468.325904177875
1290.1305518173194 4515.392260276921
1290.9640991256183 4671.95107000926
1291.7974421032523 4526.061968405611
1292.630580807183 4318.841282308464
1293.463515294361 4659.577821541572
1294.29624562171 4693.444363116154
1295.12877184613 4586.806803249822
1295.961094024493 4452.810760134979
1296.79321221365 4575.487689493362
1297.6251264704333 4613.32794075013
1298.4568368516466 4792.80028306753
1299.2883434140658 4561.3903087473245
1300.1196462144526 4494.211412073522
1300.9507453095375 4700.452472443568
1301.7816407560313 4650.241570968894
1302.6123326106172 4546.249232475082
1303.4428209299622 4543.126079738606
1304.2731057707024 4882.808347913482
1305.1031871894502 4670.487072617519
1305.933065242798 4727.793490506911
1306.7627399873181 4673.700855471152
1307.5922114795467 4977.024862301483
1308.4214797760123 4794.725470419135
1309.2505449332057 4706.168607930155
1310.0794070076026 4775.7956437062785
1310.9080660556538 4946.7751249195
1311.736522133786 4922.01333690461
1312.5647752983987 4660.858188391486
1313.3928256058734 4624.554251814685
1314.2206731125661 4872.028381097989
1315.048317874809 4846.3159467069545
1315.8757599489109 4773.705337814838
1316.7029993911547 4717.647363919743
1317.5300362578055 4920.00626497766
1318.356870605101 4694.327539174064
1319.183502489257 4780.824862485884
1320.0099319664623 4890.823467378715
1320.836159092889 4885.684741152474
1321.66218392468 4924.771118867483
1322.4880065179532 4793.649162936445
1323.3136269288134 4873.6297021656665
1324.1390452133292 4955.9016838885145
1324.9642614275563 5086.205361566883
1325.7892756275214 4859.339017761137
1326.6140878692295 4809.836132681567
1327.4386982086617 5248.241683835777
1328.2631067017755 4884.7033583056345
1329.0873134045069 4929.062859565221
1329.911318372764 4885.278368062585
1330.735121662441 4923.558420755631
1331.558723329399 4734.327275501724
1332.3821234294774 4787.007098312284
1333.2053220185007 4843.229905629352
1334.0283191522612 4747.116811900263
1334.851114886529 4888.547408453188
1335.6737092770582 4624.995269211672
1336.4961023795695 4773.3660810845995
1337.3182942497697 4757.508968793604
1338.1402849433325 4809.689971156602
1338.962074515921 4598.932137366539
1339.7836630231632 4683.78862695151
1340.6050505206676 4970.004186417162
1341.426237064028 4893.330364271081
1342.2472227088037 4655.388857998668
1343.0680075105338 4625.414527252011
1343.888591524741 4745.41781226171
1344.7089748069138 4869.218323569118
1345.5291574125276 4679.193231850208
1346.3491393970307 4547.460180929846
1347.168920815846 4770.9970938922925
1347.9885017243778 4853.571019175664
1348.8078821780036 4700.248328539912
1349.6270622320844 4670.418566238689
1350.4460419419447 4671.717735103177
1351.2648213629054 4663.59725381389
1352.0834005502438 4510.546219768533
1352.90177955923 4584.226868826262
1353.7199584451064 4701.414420068549
1354.5379372630887 4697.164884946868
1355.355716068374 4605.2155697455655
1356.1732949161305 4562.460686559535
1356.9906738615155 4644.428978205515
1357.8078529596478 4674.284263975092
1358.6248322656375 4710.646659348325
1359.441611834567 4630.095069262899
1360.2581917214866 4680.906487401129
1361.0745719814367 4609.775449267071
1361.890752669433 4565.885781643011
1362.7067338404577 4519.726836663455
1363.5225155494845 4748.854182372871
1364.3380978514506 4735.2754362254245
1365.1534808012839 4433.380045390383
1365.9686644538815 4364.721034169472
1366.783648864117 4784.133399540318
1367.5984340868417 4767.879676643775
1368.413020176893 4632.629240081703
1369.2274071890715 4420.557430453739
1370.0415951781652 4729.131047678786
1370.8555841989346 4571.724700296947
1371.6693743061223 4419.779264052451
1372.48296555444 4345.201706269972
1373.2963579985844 4531.911701910709
1374.1095516932255 4588.782004964146
1374.9225466930166 4286.92293996375
1375.7353430525782 4541.112177149869
1376.5479408265164 4462.06314779521
1377.36034006941 4575.216098346885
1378.1725408358216 4523.959841614917
1378.9845431802805 4348.080977985136
1379.796347157304 4720.355868253419
1380.6079528213813 4586.135417991793
1381.4193602269788 4305.519457907567
1382.230569428546 4367.024433835096
1383.0415804805016 4633.451799493154
1383.852393437246 4599.154408798929
1384.6630083531563 4449.927971998264
1385.4734252825892 4337.557312241194
1386.2836442798798 4487.855771784122
1387.0936653993322 4465.069667278803
1387.9034886952395 4474.9992987515825
1388.713114221864 4493.987633185183
1389.5225420334482 4508.068373181067
1390.331772184214 4407.82991208742
1391.1408047283585 4166.174897713755
1391.9496397200564 4368.144507321144
1392.758277213461 4576.7056837724185
1393.5667172627054 4577.524621103767
1394.3749599218918 4365.472947755744
1395.1830052451114 4280.677980746612
1395.9908532864265 4324.38969209041
1396.7985040998774 4554.612362642652
1397.6059577394808 4315.003629140278
1398.4132142592352 4293.291652655464
1399.2202737131156 4341.479481243123
1400.027136155073 4550.174533383348
1400.8338016390353 4276.131274461907
1401.6402702189134 4277.541258086265
1402.446541948586 4332.563482181121
1403.2526168819204 4192.707301646675
1404.058495072757 4219.832661486273
1404.8641765749107 4270.13967647143
1405.6696614421799 4355.543317989323
1406.4749497283356 4695.620717314723
1407.280041487129 4161.842927562832
1408.084936772295 4068.6303787319403
1408.8896356375335 4381.7522865003
1409.6941381365323 4328.86452792815
1410.498444322955 4094.6496058420553
1411.3025542504402 4173.547754501251
1412.106467972606 4267.503920218418
1412.9101855430508 4231.610855421987
1413.7137070153458 4049.512383910032
1414.5170324430437 4177.926273160959
1415.320161879672 4307.086501473632
1416.1230953787435 4380.1415624543315
1416.925832993742 4038.7708513983066
1417.7283747781275 3906.4744978421813
1418.5307207853439 4177.897186698956
1419.3328710688093 4104.524083568463
1420.134825681922 3852.8006484418897
1420.9365846780584 3942.170709950472
1421.7381481105713 4123.448214672743
1422.539516032788 4080.447597577334
1423.3406884980232 3891.3611601943594
1424.1416655595604 3903.4477694112384
1424.942447270665 3931.7659903333033
1425.7430336845828 4165.369889856506
1426.5434248545298 3858.3676071764107
1427.3436208337116 4036.340320602378
1428.143621675301 4042.2808900406135
1428.9434274324558 4157.977143540125
1429.7430381583108 3825.3437323328435
1430.5424539059713 3902.9121893462616
1431.3416747285337 4308.284223359928
1432.1407006790632 4068.8005935819456
1432.9395318106053 3970.7051634586314
1433.7381681761835 3803.585372368418
1434.5366098288014 3980.240137326503
1435.3348568214424 4019.29680213323
1436.1329092070573 3883.582092900359
1436.9307670385879 3898.0715066991716
1437.7284303689503 4033.795242017458
1438.5258992510335 4076.8243050645774
1439.3231737377118 3944.102721968686
1440.1202538818306 3902.172527546127
1440.9171397362225 3875.108237504553
1441.7138313536925 3881.7106371611335
1442.5103287870243 3816.003578566896
1443.3066320889775 3764.992603597653
1444.1027413122956 4030.938648168555
1444.8986565096966 3848.87126318973
1445.694377733882 3820.8576397686825
1446.4899050375207 3717.502467974247
1447.2852384732687 3823.1657710696877
1448.0803780937622 4005.7781298114146
1448.8753239516063 3726.4084489336187
1449.6700760993954 3535.5824961635262
1450.464634589689 3749.624182764379
1451.2589994750397 4033.619943770572
1452.0531708079689 3628.992767997273
1452.8471486409799 3654.718050324188
1453.6409330265524 3833.4430847553695
1454.4345240171442 3760.464103040732
1455.2279216651987 3663.6603095162195
1456.0211260231263 3744.951094671878
1456.8141371433194 3902.8343453780412
1457.6069550781594 3894.1117172651966
1458.3995798799897 3617.5214733392254
1459.1920116011424 3671.3303047663635
1459.98425029393 3621.2599803119365
1460.7762960106338 3616.985549636361
1461.5681488035225 3637.6541139519163
1462.3598087248392 3828.218530377374
1463.1512758268036 3953.161065780998
1463.942550161617 3655.6670959382127
1464.7336317814625 3609.1182129099325
1465.524520738496 3771.438682621535
1466.3152170848552 3694.543619977348
1467.1057208726506 3743.172216667471
1467.8960321539817 3664.90811905438
1468.6861509809169 3620.9369863567895
1469.4760774055085 3627.675826079188
1470.265811479785 3760.162621348673
1471.055353255755 3511.096934980594
1471.844702785409 3588.8599137508522
1472.6338601207044 3548.2060007455416
1473.4228253135934 3788.7098490972176
1474.2115984159936 3530.0182475625015
1475.0001794798063 3438.711323163926
1475.7885685569145 3656.155235125777
1476.576765699172 3662.293260192718
1477.3647709584238 3565.485122377934
1478.1525843864802 3793.1052345237076
1478.9402060351367 3710.7913082246546
1479.7276359561693 3775.045670614468
1480.514874201328 3540.499941044431
1481.3019208223468 3439.579335930261
1482.0887758709323 3459.5902149040908
1482.8754393987747 3823.615769450508
1483.6619114575406 3555.219155928336
1484.4481920988783 3568.8843876391984
1485.2342813744108 3669.703601739812
1486.0201793357446 3855.459489907439
1486.8058860344572 3514.0061469311318
1487.591401522117 3550.045840215399
1488.3767258502594 3659.801784450215
1489.1618590704056 3659.2763111460313
1489.9468012340494 3333.092872046794
1490.7315523926754 3686.196657481639
1491.5161125977356 3735.0280686875376
1492.3004819006637 3770.149608235128
1493.084660352877 3572.853659663535
1493.8686480057622 3682.3022336774948
1494.6524449106964 3888.4741802707445
1495.4360511190262 3941.4541204593506
1496.219466682087 3735.8944305493555
1497.0026916511779 3621.5174885962906
1497.7857260775945 3722.8568578571394
1498.5685700125996 3864.386865027004
1499.3512235074395 3500.8662500846285
1500.133686613337 3506.5078825865617
1500.9159593814966 3612.310273272406
1501.698041863101 4064.977570495841
1502.4799341093094 3487.438125308288
1503.2616361712662 3425.7329386146603
1504.043148100087 3665.872740016375
1504.8244699468742 3733.3811892343083
1505.6056017626997 3562.815571325329
1506.3865435986281 3518.690110487775
1507.1672955056893 3700.2669159884035
1507.9478575348967 3521.7558664004646
1508.7282297372512 3782.3909986713784
1509.5084121637192 3649.4659813116646
1510.2884048652577 3682.6526981366833
1511.0682078927948 3562.7611025901147
1511.8478212972423 3612.787724950962
1512.6272451294917 3530.7151157346657
1513.4064794404076 3622.5125003168187
1514.1855242808433 3729.8971114104033
1514.9643797016215 3522.844049524055
1515.743045753552 3666.5228380465596
1516.5215224874191 3698.432682172736
1517.2998099539836 3408.5188325441936
1518.077908203999 3600.941069834657
1518.8558172881785 3558.6172426052626
1519.633537257234 3690.903850822585
1520.4110681618404 3696.6488008789033
1521.1884100526604 3712.939213352523
1521.9655629803365 3566.7380372781286
1522.7425269954856 3787.337546222593
1523.5193021487103 3896.2059269519623
1524.2958884905856 3493.5975469682244
1525.0722860716687 3635.9838085028196
1525.848494942502 3624.514332854646
1526.624515153595 3674.975960767809
1527.4003467554485 3644.3671165806836
1528.175989798534 3716.9871311750117
1528.9514443333064 3702.920358033887
1529.726710410203 3829.7811756006313
1530.5017880796331 3504.562843808446
1531.276677391992 3587.5858882651655
1532.0513783976457 3894.575197960198
1532.825891146953 3659.891684636104
1533.6002156902414 3766.3949363556467
1534.3743520778207 3688.82976952099
1535.1483003599806 3700.2305334859
1535.9220605869923 3747.6248711769213
1536.6956328091019 3758.09664401966
1537.4690170765407 3629.4100080380767
1538.242213439511 3755.573763123164
1539.015221948208 3684.784680835798
1539.78804265279 3654.338420848993
1540.560675603405 3571.005195054663
1541.3331208501804 3908.537149505595
1542.1053784432224 3910.218735948855
1542.8774484326168 3780.249611515851
1543.649330868422 3762.158544348272
1544.4210258006842 3740.2528023984864
1545.1925332794308 3773.9639023099
1545.9638533546604 3660.5241202194347
1546.7349860763552 3662.827014829719
1547.5059314944829 4030.8082813434075
1548.27668965898 3831.038907630192
1549.0472606197673 3830.9711697129615
1549.817644426752 3635.1529078549456
1550.5878411298072 3865.377342302562
1551.3578507787988 3846.36571703718
1552.1276734235635 3656.751226461791
1552.8973091139233 3712.406763522328
1553.6667578996767 3946.579826136197
1554.436019830604 3809.516311314002
1555.20509495646 3711.2756743917025
1555.9739833269869 3674.64234045427
1556.7426849919011 3740.2014654681743
1557.511200000903 4070.1983430499577
1558.2795284036674 3814.412781156916
1559.0476702498509 3755.916216565189
1559.8156255890954 3987.8286109566084
1560.5833944710157 4049.4416079604352
1561.3509769452048 3719.532039544859
1562.1183730612447 3830.580960121679
1562.8855828686865 3814.281841456762
1563.6526064170703 4091.1898094974467
1564.4194437559127 3925.21386915037
1565.1860949347047 3702.215746343306
1565.9525600029283 4097.795055007298
1566.7188390100328 4108.481115436068
1567.4849320054564 3708.0117980850177
1568.250839038612 3806.970274876586
1569.0165601588997 3748.7404001621157
1569.7820954156887 3953.970470578176
1570.5474448583373 3757.8455274872404
1571.31260853618 3705.282198132495
1572.0775864985299 3671.2600963202976
1572.8423787946813 3843.877151324894
1573.6069854739108 3763.115780759186
1574.371406585471 3832.7447452100787
1575.1356421785986 3887.3851917098254
1575.899692302506 3765.537547816366
1576.6635570063845 3800.35947648539
1577.4272363394157 3726.797711182023
1578.190730350747 3720.0652892849494
1578.9540390895163 3888.0507527574273
1579.7171626048384 3519.9076148745235
1580.480100945806 3654.4402368197952
1581.2428541614918 3673.5093696860486
1582.0054223009538 3788.6736737236142
1582.767805413223 3735.749256904117
1583.5300035473156 3801.2477092119734
1584.292016752228 4021.481442883319
1585.0538450769309 3897.637506999961
1585.8154885703807 3557.5382454648015
1586.5769472815136 3611.3674084345175
1587.3382212592405 3778.7142516569197
1588.099310552463 3924.7068219269704
1588.8602152100484 3935.109173416838
1589.6209352808564 3812.9021491123435
1590.3814708137234 3749.7088117789754
1591.14182185746 4014.5396659604426
1591.9019884608679 3665.7976452815333
1592.6619706727215 3526.600066478898
1593.4217685417734 3744.2727462662624
1594.1813821167616 3970.744488863148
1594.9408114464022 3678.3236742425734
1595.7000565793933 3739.972852027372
1596.459117564409 3757.4560334794505
1597.2179944501113 3639.524086860659
1597.9766872851324 3549.9920032557397
1598.735196118092 3815.1870304954778
1599.4935209975883 3732.6331447049315
1600.2516619721973 3894.0667133484576
1601.0096190904787 3647.9837251556078
1601.7673924009723 3614.6775192516134
1602.524981952196 3711.539326432371
1603.2823877926476 3667.4497329235696
1604.0396099708087 3511.2729136643197
1604.7966485351371 3585.7957194926757
1605.5535035340745 3725.5671688950665
1606.3101750160404 3938.0750434077904
1607.0666630294363 3540.0815466764047
1607.822967622642 3552.2043256580682
1608.5790888440224 3709.892373495707
1609.3350267419137 3820.121835701727
1610.0907813646445 3708.8576888114353
1610.8463527605145 3616.6730005371005
1611.601740977805 3777.2532867222844
1612.356946064785 3663.306762111059
1613.1119680696902 3451.487593263873
1613.8668070407512 3700.510149927959
1614.6214630261748 3561.03869882454
1615.375936074137 3741.2867051043713
1616.1302262328118 3635.904429286381
1616.8843335503425 3646.410351569568
1617.638258074854 3593.7143685102537
1618.391999854457 3590.5745024263806
1619.1455589372363 3758.0057322927787
1619.8989353712623 3587.232634833432
1620.65212920458 3386.453531751852
1621.4051404852235 3602.7145639342257
1622.1579692611976 3663.024772991015
1622.9106155804966 3403.4630615472174
1623.663079491087 3576.435287895501
1624.4153610409248 3673.7326921901686
1625.1674602779385 3517.569877480587
1625.9193772500403 3432.571263538546
1626.6711120051277 3724.602773577221
1627.4226645910676 3663.9054354982923
1628.174035055721 3450.8994671499313
1628.9252234469168 3612.1815010872597
1629.676229812474 3606.589733858981
1630.4270542001905 3948.4286112476825
1631.1776966578382 3655.238167831883
1631.9281572331747 3558.281329288595
1632.678435973945 3738.8238998154256
1633.4285329278573 3632.6791856411946
1634.1784481426203 3493.7908670280485
1634.9281816659113 3474.615056523442
1635.677733545388 3782.6917966416927
1636.4271038286934 3584.8803171223
1637.176292563452 3769.283166046992
1637.9252997972635 3611.048334240618
1638.674125577716 3790.0193115573734
1639.4227699523672 4056.5435433256293
1640.171232968767 3516.383333690804
1640.9195146744423 3715.517473997341
1641.6676151168977 3860.054013952666
1642.4155343436178 3950.3524124256446
1643.1632724020765 3695.061897148472
1643.9108293397167 3713.6933076190317
1644.658205203974 3716.0828549987828
1645.4054000422566 4246.83829234215
1646.1524139019566 3694.2471442547126
1646.8992468304423 3688.8127587276517
1647.6458988750728 3760.61907075708
1648.3923700831765 3835.322098255076
1649.1386605020743 3716.185128179208
1649.8847701790564 3948.35407507322
1650.6306991614038 3853.326869946098
1651.3764474963682 3946.7856001150176
1652.1220152311944 3636.172384732872
1652.867402413096 3867.426653630412
1653.6126090892776 3877.2011871142204
1654.3576353069184 3945.4438843440535
1655.1024811131829 3833.150585743754
1655.8471465552066 3724.252843394412
1656.5916316801213 3931.6102721176007
1657.3359365350298 3839.0582654071573
1658.0800611670165 3759.142835654192
1658.824005623148 3825.4231888802196
1659.5677699504722 3656.136479892856
1660.3113541960192 3812.4985657335055
1661.054758406799 3726.4077910084984
1661.7979826297997 3644.217364853053
1662.5410269119966 3560.270325200779
1663.283891300338 3794.4629460528713
1664.0265758417645 3557.706606084641
1664.7690805831826 3627.456954544397
1665.5114055714948 3844.9341635232477
1666.2535508535748 3934.4733827964
1666.9955164762814 3425.1960608239656
1667.7373024864555 3629.5208903314187
1668.478908930916 3745.883355637714
1669.220335856462 3555.3521642890273
1669.9615833098778 3483.0614412937634
1670.7026513379296 3394.2404622239096
1671.44353998736 3555.08321829126
1672.1842493048916 3719.841230437415
1672.9247793372379 3443.30156660234
1673.6651301310812 3546.0348746557297
1674.4053017330934 3461.5346484530187
1675.1452941899242 3582.183114561433
1675.885107548207 3181.049600117328
1676.6247418545518 3271.696644488068
1677.3641971555535 3365.286815120157
1678.1034734977893 3511.927422195497
1678.8425709278108 3336.8929883766773
1679.5814894921605 3435.8248204232914
1680.320229237359 3481.469883898848
1681.0587902098978 3506.8498090301773
1681.7971724562685 3314.689614809043
1682.5353760229264 3125.092155975827
1683.2734009563173 3351.957369808327
1684.0112473028657 3143.379156286892
1684.7489151089794 3252.2217380075385
1685.4864044210462 3346.1242370022387
1686.2237152854377 2962.5021038450695
1686.960847748498 3369.1587419931175
1687.6978018565642 3017.160000824244
1688.434577655944 2979.9289463491546
1689.1711751929379 2930.408690862013
1689.9075945138156 3228.583031462162
1690.6438356648396 3017.1980297589084
1691.3798986922448 2670.0766477435964
1692.1157836422499 2954.0459784656805
1692.851490561059 2880.6002301272124
1693.587019494853 2912.5190567214804
1694.3223704897991 2718.1357615061906
1695.0575435920364 2643.035459927244
1695.792538847696 3119.04241310263
1696.527356302886 2785.217411574178
1697.2619960036936 2552.638017986795
1697.9964579961907 2757.1787793203357
1698.730742326432 2464.456535453142
1699.4648490404488 2527.9898093207375
1700.1987781842563 2644.381202892138
1700.9325298038548 2901.673482934722
1701.6661039452174 2873.333001934652
1702.3995006543082 2681.421025137725
1703.1327199770658 2863.106226888523
1703.865761959416 2580.0632251179964
1704.598626647261 2959.282386220005
1705.3313140864866 2498.0677479600454
1706.0638243229587 2581.2434484040923
1706.7961574025303 2716.954139168063
1707.528313371029 2519.3525856360907
1708.260292274268 2448.3362894476413
1708.9920941580403 2569.9450782799804
1709.7237190681226 2624.9821589404164
1710.4551670502697 2658.4497325792186
1711.18643815022 2446.7319041537316
1711.9175324136959 2917.080186942322
1712.6484498863938 2587.413165522
1713.379190614005 2357.623681096361
1714.109754642188 2414.9656664801364
1714.8401420165883 2488.186182391406
1715.570352782839 2992.1995024210305
1716.3003869865497 2581.1114418812617
1717.0302446733076 2357.033455750586
1717.7599258886876 2537.352879063246
1718.4894306782444 2827.6347180559833
1719.2187590875183 2312.506727113764
1719.9479111620203 2676.2622642446754
1720.6768869472544 2378.534093551416
1721.4056864887025 2683.8245059470237
1722.1343098318284 2689.8940302197634
1722.8627570220742 2411.7090368128365
1723.591028104871 2392.764206953927
1724.3191231256242 2305.3405511093874
1725.0470421297232 2449.23554232034
1725.7747851625427 2636.808430236828
1726.5023522694337 2456.992761112958
1727.2297434957363 2462.109204927031
1727.9569588867635 2273.4091611890835
1728.6839984878152 2610.8607870949113
1729.4108623441734 2123.369571214188
1730.1375505011038 2511.2750364864633
1730.8640630038426 2270.680690898672
1731.5903998976264 2250.0735798420656
1732.316561227657 2531.017903265453
1733.0425470391274 2276.9839469107305
1733.7683573772065 2532.3971125483567
1734.4939922870508 2344.762022446979
1735.2194518137949 2434.237707554627
1735.9447360025606 2350.930089133716
1736.669844898439 2351.8799137587234
1737.3947785465189 2254.218868916506
1738.1195369918605 2150.0666950258337
1738.8441202795093 2363.518483788006
1739.5685284544943 2491.4468814250245
1740.292761561821 2499.2322888739427
1741.0168196464838 2592.684252475315
1741.7407027534518 2478.523139520716
1742.464410927687 2441.6834056941184
1743.187944214118 2336.580131219177
1743.9113026576688 2382.7185618277003
1744.634486303241 2352.240772415284
1745.3574951957125 2533.3571859303856
1746.0803293799509 2523.2974027234163
1746.8029889008048 2375.449325057814
1747.5254738031017 2557.4704045327844
1748.2477841316504 2238.899344549417
1748.969919931249 2344.696702443868
1749.6918812466665 2362.517122578817
1750.4136681226646 2422.9689530569294
1751.1352806039777 2341.7365785375746
1751.856718735331 2012.1216394731084
1752.5779825614281 2158.0125862137215
1753.2990721269507 2501.0379686076935
1754.0199874765676 2422.923186827961
1754.7407286549314 2159.099273783216
1755.4612957066693 2251.1331134013717
1756.1816886763954 2238.5041586572534
1756.9019076087097 2378.799617730191
1757.6219525481865 2440.8185133315033
1758.3418235393856 2264.6855542211097
1759.061520626854 2376.3414000941066
1759.7810438551096 2570.2222553287575
1760.5003932686614 2196.6829977023954
1761.2195689119999 2429.028558927838
1761.938570829594 2358.816553531282
1762.657399065898 2357.755826537469
1763.376053665348 2161.2566970617086
1764.0945346723602 2052.712910035172
1764.812842131334 2441.3554344892877
1765.5309760866512 2137.132253134961
1766.2489365826787 2164.28009679152
1766.9667236637597 2276.7752234316877
1767.684337374223 2002.6837196824868
1768.401777758383 2135.1820118095643
1769.1190448605284 2086.840199398616
1769.836138724937 2110.543846041799
1770.5530593958665 2223.170049553829
1771.2698069175603 2541.6866481041443
1771.9863813342326 2387.9454210160898
1772.702782690094 2256.030986803243
1773.4190110293293 2428.7501448686403
1774.1350663961111 2271.5410715963703
1774.8509488345844 2154.547079639873
1775.5666583888924 2184.923481902625
1776.2821951031437 2390.224849583671
1776.9975590214362 2239.1361185285305
1777.7127501878585 2350.318180379798
1778.4277686464684 2279.1737327435003
1779.1426144413108 2401.9890361210264
1779.8572876164162 2478.6389468465077
1780.571788215797 2040.982214622431
1781.2861162834415 2215.728798116919
1782.0002718633277 2254.93606466095
1782.7142549994132 2410.962331715786
1783.4280657356376 2323.002501756855
1784.141704115922 2165.3627673960546
1784.855170184177 2208.325270250006
1785.5684639842839 2295.6475451730357
1786.2815855601148 1884.138256815221
1786.9945349555237 2273.854763141434
1787.707312214343 2097.421357586579
1788.4199173803918 2489.7392356835803
1789.132350497468 2076.703328654235
1789.8446116093583 2169.706919200868
1790.556700759822 2058.23666133276
1791.2686179926077 2193.1557729319147
1791.9803633514493 2187.488158548468
1792.6919368800554 2095.336312005293
1793.4033386221236 2189.0806565033813
1794.1145686213295 2308.3112162378416
1794.8256269213307 2407.3009492157735
1795.536513565774 2291.068275835766
1796.247228598284 2086.8565846359206
1796.9577720624693 2156.324346991264
1797.6681440019165 2168.3950669119317
1798.3783444602013 2242.9261364836066
1799.0883734808776 2290.343702962817
1799.7982311074884 2270.1598329441504
1800.5079173835475 2236.6086491480605
1801.2174323525633 2299.4176896373438
1801.9267760580187 2108.6537713051375
1802.635948543386 2191.063482821223
1803.3449498521113 2137.8896118870916
1804.0537800276325 2301.3950580429564
1804.7624391133668 2209.2550164610807
1805.47092715271 2025.891118108156
1806.1792441890484 1959.2319272871828
1806.8873902657433 2274.9735889369863
1807.5953654261448 2147.9002089553733
1808.3031697135812 2146.9529063293476
1809.0108031713662 2029.60744769664
1809.71826584279 2184.0944811745203
1810.425557771141 2143.908109804239
1811.1326789996747 2476.734171693674
1811.839629571632 2090.544721231833
1812.5464095302468 2108.26124374881
1813.2530189187182 2156.7694830543423
1813.959457780249 2096.761696758564
1814.6657261580076 2298.848522247071
1815.371824095153 2141.942556570922
1816.0777516348262 2279.0989048356755
1816.78350882015 1797.7687654106892
1817.4890956942272 1935.8613289498433
1818.1945123001533 2082.5292322308487
1818.8997586809928 2124.723369676639
1819.6048348798067 2058.0492732731445
1820.3097409396287 2103.597341776848
1821.0144769034796 2468.6780003696977
1821.7190428143622 2249.1120760932836
1822.423438715261 2225.6615098489265
1823.1276646491478 2054.271747390871
1823.8317206589727 2163.228511820095
1824.5356067876692 2044.4683306849463
1825.2393230781581 2091.1577731653465
1825.942869573335 1973.0862618185195
1826.646246316086 2016.388981949746
1827.3494533492758 2152.2299338839784
1828.052490715756 2205.7393324088252
1828.7553584583547 2069.1804133191235
1829.458056619891 2196.871365625452
1830.1605852431585 2029.2198341832252
1830.8629443709433 1841.3246737417655
1831.5651340460063 2115.936392387661
1832.2671543110919 1852.258547297588
1832.9690052089318 2232.7977444056933
1833.6706867822395 1904.1921321110858
1834.3721990737104 2266.165919479238
1835.0735421260233 2208.0628206181036
1835.774715981841 2051.238814218445
1836.4757206838058 2266.418460706076
1837.1765562745459 2015.3065842900814
1837.8772227966747 1945.8509216795603
1838.5777202927839 2009.5564413879515
1839.2780488054523 2035.6090949743102
1839.9782083772352 1973.0739463512357
1840.6781990506806 2399.364327805401
1841.378020868313 2086.9276885601485
1842.0776738726418 2225.0848140219596
1842.777158106157 1992.5292374654553
1843.4764736113375 1912.2897977973807
1844.1756204306403 2164.2161936689054
1844.8745986065078 2189.4775028431095
1845.5734081813607 1934.9679238742985
1846.2720491976124 2041.724901847637
1846.970521697649 1882.1958269366569
1847.6688257238511 2058.0010760246455
1848.3669613185684 2065.7381858881963
1849.0649285241452 1860.2486470197975
1849.7627273829057 1998.441587349971
1850.460357937156 1947.071333348615
1851.1578202291857 1851.2935754604573
1851.8551143012664 2161.520953082916
1852.5522401956569 2039.863863601681
1853.2491979545957 2156.2833721514608
1853.9459876203055 1808.934918835117
1854.6426092349902 1951.9176412930615
1855.3390628408451 1978.9193167635233
1856.0353484800362 2262.380832416121
1856.7314661947203 2078.4389267283154
1857.4274160270397 1901.1943755161042
1858.123198019115 1993.4985858324242
1858.8188122130487 1782.1837811850935
1859.5142586509319 2021.7641608939211
1860.209537374838 1840.4487320985886
1860.9046484268183 1974.5824292234706
1861.599591848917 2309.4276860499704
1862.294367683151 2001.8729935983088
1862.988975971528 1856.4032821525554
1863.6834167560355 2151.7935992832417
1864.3776900786452 2181.1772487397125
1865.0717959813119 1944.8732490725179
1865.7657345059724 1923.6067202950903
1866.4595056945564 2177.1986086582533
1867.1531095889586 2088.0861717509774
1867.846546231076 1776.0580976725164
1868.5398156627743 2182.5279279559904
1869.2329179259123 2028.585805253703
1869.9258530623283 2211.697811414106
1870.618621113843 1873.322661152842
1871.3112221222636 1767.7744863424941
1872.0036561293764 1918.4639290046503
1872.695923176956 2009.5718368351438
1873.3880233067594 2088.482425719815
1874.0799565605212 1872.6268616769746
1874.7717229799673 1992.1155453985575
1875.4633226068036 2257.3004850932743
1876.1547554827175 2068.535575861989
1876.8460216493859 1892.7210948299078
1877.5371211484617 1955.2461328465997
1878.2280540215852 2120.461067532965
1878.9188203103804 1852.1512359285857
1879.6094200564548 1990.0321164738075
1880.299853301396 1950.7809515555632
1880.9901200867826 2101.3195088906105
1881.6802204541673 2074.475586105099
1882.3701544450942 1985.358211291538
1883.059922101087 1754.6960294310654
1883.7495234636517 1845.3531436566584
1884.4389585742792 1936.1049287695248
1885.1282274744517 1772.5613450437013
1885.8173302056166 1931.1150069913049
1886.506266809225 2089.8832469904983
1887.195037326701 1815.4174385763108
1887.8836417994517 1869.3988351131843
1888.5720802688702 2259.684036708909
1889.260352776333 2123.5744887554565
1889.9484593632042 2194.160564933568
1890.63640007082 1869.69348944063
1891.3241749405151 1799.4587605323213
1892.0117840135954 2102.5529866324173
1892.6992273313572 1894.982281538679
1893.3865049350788 1797.6464021204392
1894.0736168660223 2348.9126664275855
1894.7605631654333 2019.3238578026267
1895.4473438745408 2106.4044478604947
1896.133959034556 2193.4965905268687
1896.820408686679 2043.2706006408876
1897.506692872088 2131.1619933411066
1898.192811631945 1918.2721223445787
1898.8787650073991 1960.977510345537
1899.5645530395832 2159.376319376154
1900.2501757696118 2172.595747986722
1900.9356332385796 2257.9980587863
1901.620925487574 2343.7110861771916
1902.3060525576602 2071.800193185297
1902.9910144898859 2087.439697629621
1903.6758113252872 1866.8454992573693
1904.3604431048789 2054.527814942102
1905.0449098696663 2102.349216604284
1905.7292116606295 1848.3593583812283
1906.4133485187394 2069.5691593902507
1907.0973204849488 1729.9197295138886
1907.7811276001976 1815.0493317789933
1908.4647699053967 1890.2186357911905
1909.1482474414588 1871.927117829398
1909.8315602492694 1853.5089916964396
1910.5147083696957 2092.1908199544114
1911.1976918436012 1958.781083725808
1911.880510711815 1712.7905273830988
1912.5631650151681 1748.143230242587
1913.2456547944657 1783.4998133442296
1913.927980090495 1856.6925098377026
1914.6101409440362 1947.5249527680692
1915.2921373958416 2096.6877849549755
1915.9739694866603 1923.555333396637
1916.655637257214 2070.210875805492
1917.3371407482136 2063.451912094499
1918.0184800003572 2057.592226217083
1918.6996550543154 2137.8793814496357
1919.3806659507554 2074.4095009354974
1920.0615127303208 1971.7633897741057
1920.7421954336423 2125.222548669152
1921.4227141013343 2221.160656841807
1922.103068773993 1924.8205632916165
1922.783259492202 2135.1621004805147
1923.4632862965227 1940.0012260040287
1924.1431492275078 1950.527448232524
1924.8228483256917 1776.6375760602398
1925.5023836315922 1815.2354332107727
1926.1817551857057 1626.221984285296
1926.8609630285227 1826.5060950558818
1927.5400072005123 2027.199505602512
1928.218887742125 1903.6417485034767
1928.8976046938005 1770.6051642541793
1929.5761580959588 2084.6775143202494
1930.2545479890086 1918.958147206508
1930.9327744133352 1658.9824113140282
1931.6108374093164 1937.5633799471805
1932.2887370173066 2272.38313680644
1932.9664732776473 2153.8384268261716
1933.6440462306673 2034.9432794168358
1934.3214559166754 1921.848254156715
1934.9987023759659 2256.938706953544
1935.675785648813 2045.229057355511
1936.3527057754836 1620.6885798342632
1937.029462796223 1687.4109992962226
1937.70605675126 1754.315361431646
1938.3824876808085 1793.3494480030604
1939.058755625072 1865.839980474182
1939.7348606242267 1954.7325574069084
1940.4108027184448 1975.1211987163558
1941.0865819478713 2096.845765796117
1941.7621983526478 1850.5169127913734
1942.4376519728921 1673.522379949442
1943.1129428487038 1977.4385237848296
1943.7880710201734 2010.3341402165358
1944.4630365273733 2028.829669918038
1945.1378394103576 1733.7055537610267
1945.8124797091714 1700.3091780247391
1946.4869574638324 1666.7870336908659
1947.161272714353 1916.3069736322868
1947.8354255007234 1925.799786103859
1948.5094158629272 1850.2217837273893
1949.1832438409183 2033.7523975806666
1949.8569094746435 2063.6541564578665
1950.530412804037 2231.2188007696777
1951.2037538690092 2003.3221671632905
1951.8769327094578 1884.699341103831
1952.5499493652678 1873.6767416143477
1953.222803876306 2274.8790120801946
1953.895496282421 1977.851377080761
1954.5680266234522 2059.125379463604
1955.2403949392155 1982.5454736827735
1955.9126012695142 1738.0734691932134
1956.5846456541403 1973.3672242856828
1957.2565281328643 1823.2981366927754
1957.9282487454457 2089.3283924916527
1958.5998075316202 2011.6338791177154
1959.27120453112 1877.15191201214
1959.9424397836501 1890.396983562118
1960.613513328908 2035.0237735291316
1961.2844252065697 2164.1732597672226
1961.9551754563017 1745.6981139405968
1962.6257641177453 1873.703069791272
1963.29619123054 1642.9846491372307
1963.966456834296 1705.996170280161
1964.6365609686181 1753.2714130049385
1965.306503673086 1966.972628006327
1965.976284987275 1714.7922743722968
1966.645904950734 1882.2668047730433
1967.315363603002 1680.9636919143547
1967.9846609836077 1895.797169311479
1968.6537971320486 1877.7567010843043
1969.3227720878222 1828.0241782225112
1969.9915858904042 1912.5572871137906
1970.660238579252 1933.9466515075824
1971.3287301938108 1881.3368188107847
1971.997060773514 1823.9158508700389
1972.665230357772 1707.2800257455008
1973.3332389859843 1858.0562278731159
1974.0010866975335 1651.4517420131365
1974.6687735317864 1848.300252631277
1975.3362995280932 1968.0514079448446
1976.003664725793 1901.1176057095022
1976.6708691642052 1681.8056388659857
1977.3379128826364 1761.554817807762
1978.004795920373 2111.1155436058875
1978.6715183166925 1822.420099678353
1979.3380801108524 2080.1339821231036
1980.0044813420973 1840.5070798322577
1980.6707220496555 1623.141117357477
1981.3368022727373 1825.08540122819
1982.0027220505417 1875.5555016946957
1982.66848142225 1531.0637628830668
1983.3340804270283 1654.7097615876883
1983.999519104027 1834.7998933747367
1984.6647974923835 1857.7317347861504
1985.329915631215 1938.9493350053403
1985.99487355963 1874.4771648433955
1986.6596713167146 1958.7455053353638
1987.3243089415428 1808.3863766487284
1987.9887864731754 2158.765599863174
1988.6531039506553 2244.8497033071485
1989.3172614130071 2331.0923225587862
1989.9812588992481 1880.307786591581
1990.645096448372 1597.7068910749238
1991.3087740993633 1899.887355902139
1991.9722918911848 1865.1512826633116
1992.635649862792 1912.5423660764222
1993.2988480531185 1965.1385132602259
1993.9618865010852 1810.5540499157783
1994.6247652455968 1655.7370594700758
1995.287484325545 1732.9115972179166
1995.9500437798033 1816.4610892473452
1996.6124436472292 1746.115737904484
1997.2746839666706 2020.110261319646
1997.936764776954 1828.114512841456
1998.598686116895 1728.8744329368815
1999.2604480252903 2101.243182604033
1999.9220505409212 2046.1309540792972
2000.5834937025593 1690.567445069897
2001.2447775489582 1781.8321600646566
2001.9059021188514 1937.0034697339074
2002.5668674509616 1595.327267308126
2003.2276735839987 1836.9739926373281
2003.8883205566508 2095.3855168911546
2004.5488084075987 1803.3600998325987
2005.2091371755014 1647.4339662892412
2005.8693068990033 1616.5596786031026
2006.5293176167397 1613.7204614268005
2007.1891693673224 1611.022085511409
2007.848862189354 1619.8765545938518
2008.5083961214223 1807.5336068329768
2009.1677712020955 1703.5494186378924
2009.8269874699254 1610.884063611364
2010.4860449634598 1650.993371801369
2011.1449437212177 1691.305145207492
2011.8036837817108 2005.1565502854216
2012.4622651834325 1931.6472831458207
2013.1206879648653 2005.8177727479676
2013.7789521644736 2108.6106349719043
2014.4370578207036 1566.0812789127287
2015.0950049719922 1771.715111652905
2015.7527936567585 2092.887977233697
2016.4104239134067 1771.6788726231575
2017.067895780323 2285.116284450847
2017.725209295886 2197.2255995502155
2018.3823644984514 2109.0366699089864
2019.0393614263648 1909.0381841032347
2019.6962001179545 1837.1668347252457
2020.3528806115355 2093.126832896002
2021.0094029454067 1813.3517813966787
2021.6657671578487 1580.900033251672
2022.321973287133 1932.8474352737794
2022.9780213715148 1766.4484677244702
2023.6339114492293 1766.9860027252203
2024.2896435585026 1739.697648883563
2024.9452177375442 1768.3680677927018
2025.600634024544 2034.3508410634167
2026.2558924576842 1752.7685450916688
2026.9109930751292 1921.273601285767
2027.565935915025 1744.7283792755163
2028.2207210155066 2128.6691028192263
2028.8753484146964 2190.976517996152
2029.529818150695 2134.1631269715576
2030.1841302615903 2077.0279583971114
2030.8382847854573 1823.4627606191352
2031.4922817603601 1913.5352702476484
2032.1461212243357 1775.8033662667763
2032.7998032154192 1568.4245139311404
2033.4533277716218 1687.5084216189284
2034.1066949309443 1575.9068516484426
2034.7599047313688 1732.2803557061604
2035.4129572108704 1926.2192172459545
2036.0658524074006 1749.2564345166418
2036.7185903589016 1865.2209044556307
2037.3711711032956 2081.8328073991415
2038.023594678496 1882.7467525988382
2038.675861122394 1707.7876417627053
2039.3279704728757 1715.7389114063055
2039.9799227678031 1723.8661908701201
2040.6317180450278 1688.3191174788813
2041.2833563423865 1740.4607796173573
2041.9348376977014 2105.162325764535
2042.5861621487784 1950.7969985161126
2043.2373297334088 1790.3497207753303
2043.8883404893695 1892.7083284742712
2044.5391944544208 1867.771329066508
2045.1898916663158 1948.796033103226
2045.8404321627804 1814.9692729590265
2046.4908159815368 1680.779063134037
2047.1410431602853 1752.398169132862
2047.7911137367173 1778.028287176217
2048.441027748504 1646.5942197041797
2049.090785233302 1514.9715162322727
2049.7403862287592 1706.4639957503337
2050.389830772503 1656.7092904205947
2051.0391189021466 1606.9545112525484
2051.688250655294 1900.0788051885313
2052.337226069527 1606.5280759770471
2052.986045182417 1974.547042588391
2053.634708031521 1900.0216715799484
2054.283214654375 1825.5054581275228
2054.931565088511 1487.4736309285322
2055.579759371436 1515.8750950544909
2056.2277975406523 1820.0274750000674
2056.8756796336384 2031.743653338228
2057.5234056878617 1922.0661212889154
2058.1709757407752 1811.999655805764
2058.8183898298194 1993.816352971904
2059.465647992416 1876.4244802844453
2060.1127502659747 1992.2556638592353
2060.759696687888 1984.5300439462244
2061.4064872955405 1976.8216833802876
2062.053122126292 2070.0681187900745
2062.699601217497 1816.557404225155
2063.345924606485 1563.039586019279
2063.992092330587 1770.0268892940392
2064.638104427102 1668.5638971723904
2065.283960933324 2080.217460325919
2065.92966188653 1918.6744260643434
2066.5752073239855 2077.435782981941
2067.2205972829397 1583.8519596487406
2067.86583180062 1856.3559692591873
2068.5109109142522 1755.9371400979812
2069.15583466104 1812.5296391013333
2069.8006030781708 1534.3604984262117
2070.445216202821 1709.3899991001806
2071.089674072153 1978.0344652841384
2071.7339767233116 1950.422694937118
2072.3781241934303 1815.5550356956908
2073.0221165196253 1817.573991435187
2073.6659537390024 1751.1346343381053
2074.3096358886505 1940.6547922355978
2074.953163005637 1757.7293345831026
2075.596535127028 1471.6581408049806
2076.2397522898664 1682.1034117715294
2076.882814531182 1765.6677636085703
2077.5257218879924 1785.1429743098506
2078.1684743973 1671.5744043049988
2078.8110720960885 1626.7018263537573
2079.453515021336 1669.592769753659
2080.095803209997 1712.4872822623906
2080.7379366990135 1746.7495733275978
2081.37991552532 1905.2332356204947
2082.0217397258275 1962.5773483398796
2082.6634093374414 1536.3953895885522
2083.3049243970418 1710.0598697367354
2083.9462849415067 1709.9706096134876
2084.587491007689 1779.2337455856662
2085.2285426324324 1877.5996239983208
2085.869439852564 1931.1683643438041
2086.510182704902 1552.3630606074444
2087.1507712262483 1738.9178798785015
2087.791205453381 1541.1452167636157
2088.4314854230743 1664.7507042719517
2089.0716111720867 1788.5366039451274
2089.7115827371617 1579.8133824028475
2090.351400155023 1552.698865616123
2090.991063462385 1525.614999589994
2091.6305726959527 1585.3269050605668
2092.2699278924047 1597.4404020069428
2092.9091290884153 1609.6409851832982
2093.548176320641 1648.7746919131048
2094.187069625721 1869.2861108078246
2094.8258090402887 1856.702188072657
2095.464394600951 1844.0927095932343
2096.102826344313 1816.7917938506685
2096.741104306955 1928.0573135306518
2097.379228525453 1624.4418762802898
2098.017199036358 1813.4432386629778
2098.6550158762147 2002.843971232119
2099.2926790815527 1993.2351931472335
2099.9301886888825 1770.959763492223
2100.5675447347076 1761.022261482885
2101.2047472555114 1899.0137817838508
2101.841796287761 1555.026821448111
2102.47869186792 1830.7048556920595
2103.1154340324265 1707.9960205780185
2103.752022817709 1621.8861861013645
2104.388458260184 1731.9655562466833
2105.024740396251 1849.455498154431
2105.660869262292 1688.1269326233414
2106.296844894685 2032.7692200573583
2106.93266732978 1776.9124847907872
2107.5683366039284 1526.479874214229
2108.2038527534532 1817.1582550439362
2108.8392158146726 1801.415819898069
2109.4744258238843 1695.562816395502
2110.1094828173755 1744.6440558687198
2110.744386831422 1765.5751689827844
2111.3791379022787 1786.5896701719703
2112.01373606619 1978.564378071169
2112.648181359389 1869.9275709566355
2113.28247381809 2012.8264386414078
2113.916613478492 1878.379240752348
2114.550600376786 1795.6984332336044
2115.1844345491445 1837.8931901959422
2115.818116031729 1656.2144602739631
2116.451644860679 1586.0926824385986
2117.085021072133 1555.9733345637937
2117.718244702204 1769.769922948709
2118.3513157869984 1684.6373994979253
2118.984234362604 1643.2839187466384
2119.617000465092 1785.305099157888
2120.249614130529 1943.42818500479
2120.8820753949585 1720.730127214537
2121.5143842944162 1642.4364635105042
2122.14654086492 1587.4392437596343
2122.7785451424734 1848.2529392476577
2123.4103971630702 1879.817381938556
2124.042096962681 1911.6620188624765
2124.6736445772767 1921.5642763313717
2125.305040042802 1575.9708817763535
2125.936283395191 1698.0524805715509
2126.567374670365 1905.8002950903115
2127.198313904233 1723.427406144782
2127.8291011326855 1617.987227207262
2128.4597363916037 1512.1341738144895
2129.0902197168507 1662.6502816827565
2129.720551144279 1611.6925209967258
2130.3507307097225 2114.6205964685823
2130.980758449008 2002.5983944296663
2131.6106343979427 1690.8647012179554
2132.2403585923203 2008.5954697320606
2132.8699310679276 1965.923395930633
2133.499351860526 1961.8801272210899
2134.1286210058715 1694.2621455116398
2134.7577385397053 1849.4840431088292
2135.3867044977487 2004.9583442676394
2136.0155189157176 2143.846530597024
2136.644181829308 1995.0630067602392
2137.2726932742025 1714.6130748869195
2137.901053286074 1673.3512445410502
2138.5292619005777 1632.0928190249524
2139.1573191533535 1582.0189167168276
2139.7852250800315 1807.2597754968533
2140.4129797162295 1967.502010445872
2141.0405830975433 1558.677296691539
2141.6680352595613 1546.9204849548207
2142.2953362378576 1535.158748726388
2142.9224860679915 1572.0282998383439
2143.549484785508 1535.6281396130212
2144.1763324259373 1624.4649720015263
2144.803029024799 1757.7718459981274
2145.429574617594 1777.1015308334675
2146.0559692398165 1944.8420042406403
2146.682212926942 1551.2726734925577
2147.308305714432 1803.970970007666
2147.9342476377333 1972.9471812392403
2148.5600387322847 2129.3491300023607
2149.185679033506 1977.840725866395
2149.8111685768017 1558.6885388181172
2150.4365073975678 1437.4573432770594
2151.061695531187 1769.2440246797694
2151.686733013021 1928.0738771354634
2152.311619878423 1701.1596396335285
2152.9363561627342 1592.8466893519324
2153.560941901278 1540.631577974569
2154.1853771293663 1702.3695251462552
2154.809661882293 1758.9258095165685
2155.433796195348 1537.2463889123883
2156.0577801037944 2118.3215609373465
2156.681613642895 1941.8261945695153
2157.3052968478896 1514.2592548021291
2157.928829754006 1813.3230022549258
2158.552212396462 1941.4798377514992
2159.1754448104566 1862.5518405434807
2159.7985270311783 1595.5992559402662
2160.4214590938027 1334.9258563731655
2161.0442410334927 1339.8276096508391
2161.6668728853874 1399.7345318432785
2162.289354684628 1459.8096443862046
2162.911686466332 1550.4182928303455
2163.533868265602 1825.0527003207055
2164.1559001175337 2164.9079483026826
2164.7777820572046 2020.0998683188234
2165.399514119681 1789.3101986750357
2166.021096340013 1617.9034270204552
2166.6425287532384 1957.2500651239266
2167.263811394385 1610.1626029540946
2167.8849442984574 1601.250705316665
2168.505927500455 1592.4862218511557
2169.126761035366 1814.9352758045407
2169.7474449381552 1581.9376253863538
2170.367979243778 1569.6381600453858
2170.9883639871823 1777.5492438971353
2171.608599203293 1969.643945756178
2172.2286849270276 2162.231894584416
2172.8486211932886 2109.841438307915
2173.4684080369625 1785.800011996504
2174.0880454929265 1372.4749299993296
2174.7075335960417 1317.3833606621508
2175.3268723811543 1372.5910880260444
2175.9460618831 1427.9575618865476
2176.565102136701 1671.1204876111983
2177.1839931767627 1705.1785511589158
2177.802735038078 1739.3511149657982
2178.421327755432 1502.040369183283
2179.0397713635866 1635.973248897762
2179.658065897298 1675.4309684643254
2180.276211391305 1705.5506135964345
2180.8942078803357 1635.3134902891056
2181.5120553991 1822.0096999250352
2182.129753982299 1777.107366575657
2182.7473036646206 1732.1130541974155
2183.3647044807367 1838.9252865325998
2183.9819564653044 1840.432666876055
2184.599059652968 1842.0075941258533
2185.216014078367 1787.631831145379
2185.832819776113 1843.1459076185438
2186.4494767808137 1898.686298726057
2187.065985127063 1659.802400020814
2187.682344849436 1562.523490839056
2188.298555982501 1946.3123677436374
2188.9146185608097 1719.923294342051
2189.530532618901 1855.7715988356354
2190.1462981912937 1932.0346566293338
2190.761915312507 1767.6812624182633
2191.377384017036 1712.0535632065428
2191.9927043393654 1743.6327759434382
2192.6078763139667 1978.618833373297
2193.2228999753006 1492.38383052562
2193.837775357808 1787.132159902353
2194.452502495922 1393.4827614564588
2195.0670814240602 1631.8794929735757
2195.6815121766285 1357.916461635327
2196.2957947880186 1320.8510895640618
2196.9099292926057 1283.715490569242
2197.523915724758 1789.800908267112
2198.137754118825 1597.5665284159704
2198.7514445091456 1950.8092186710364
2199.3649869300443 2071.7184455682177
2199.9783814158327 2192.997076689825
2200.5916280008096 2093.316242003589
2201.2047267192593 1856.3220252635806
2201.8176776054515 1635.3981646014877
2202.430480693649 1458.365243270437
2203.0431360180955 1921.8257016320372
2203.6556436130195 1950.8054806478365
2204.268003512645 1830.07154971128
2204.8802157511727 1709.0884197620696
2205.492280362796 2020.5089618905608
2206.1041973816937 1781.2755096812525
2206.715966842032 1772.6750823068396
2207.3275887779655 1822.9310979302431
2207.93906322363 1707.2442993256907
2208.550390213153 1900.6946842681741
2209.1615697806465 1937.8437214060127
2209.7726019602105 1568.6186508909661
2210.3834867859277 1593.6969303720907
2210.9942242918787 1559.2849547489773
2211.6048145121167 1699.8547632041023
2212.2152574806914 2455.227503906147
2212.825553231638 1572.6296121792266
2213.435701798975 2352.813975616087
2214.045703216707 1810.7227176571876
2214.655557518832 1283.731679371026
2215.2652647393297 1436.5719194764713
2215.874824912169 1559.4034900242877
2216.4842380713 1395.6841720961725
2217.09350425067 1586.6112597205897
2217.7026234842033 1775.220095467415
2218.311595805819 1912.9392321356258
2218.9204212494133 1655.3725974215813
2219.52909984888 1980.3307985973393
2220.137631638092 2023.9416419803529
2220.7460166509154 2067.514462644886
2221.354254921198 1643.6400632690834
2221.9623464827764 1805.9139530099233
2222.5702913694713 1503.0461119830397
2223.178089615096 1907.043668541522
2223.7857412534486 1639.6910928587154
2224.39324631831 1363.1876379279645
2225.000604843457 1491.2977558087834
2225.607816862641 1889.4220053921756
2226.214882409611 1837.5008614255744
2226.8218015180973 1880.764291633716
2227.4285742218217 1724.361525287522
2228.0352005544864 1749.9896893782723
2228.6416805497847 1697.3794200898933
2229.248014241399 1644.671178908792
2229.8542016629945 1486.1034806206824
2230.460242848223 1749.402603522932
2231.0661378307304 1584.2680158080204
2231.671886644139 1418.9827115876944
2232.277489322065 1334.1541583241767
2232.8829458981127 1048.6167734838489
2233.48825640587 1634.083488184665
2234.0934208789095 2275.6368297774197
2234.6984393507955 1875.1330431173847
2235.3033118550793 1870.6082495463666
2235.9080384252975 1631.2891643327193
2236.5126190949723 1466.1227438560213
2237.1170538976166 1417.6203601211005
2237.721342866729 1369.0638255909037
2238.32548603579 1522.3769565954533
2238.9294834382763 1708.1422952531943
2239.533335107646 1706.5679016487397
2240.1370410773434 1652.1652503782018
2240.740601380803 1516.930126181102
2241.3440160514474 1734.1026630740864
2241.9472851226783 1900.191295313129
2242.550408627896 1741.3618309013668
2243.1533866004793 1988.8003525581094
2243.756219073799 1735.4961059791701
2244.3589060812064 1465.543087919627
2244.961447656049 1398.9247641202453
2245.5638438316564 1632.2689738503618
2246.166094641343 1718.1437023185595
2246.7682001184166 1663.539171900519
2247.3701602961664 1662.218982892179
2247.971975207871 1772.1862006253698
2248.5736448867974 1947.6869180763956
2249.175169366197 1570.3964631043539
2249.7765486793123 1690.807244672093
2250.3777828593684 1717.4871087098059
2250.9788719395783 1635.302830036478
2251.579815953146 1716.9519146947055
2252.1806149332606 1501.6730307861646
2252.781268913097 1504.0867028376456
2253.381777925817 1525.9111372235586
2253.9821420045737 1909.5503781943353
2254.5823611825035 1889.800757217923
2255.1824354927303 1775.7618802463876
2255.782364968365 1602.4583881872268
2256.38214964251 1428.9649655008513
2256.9817895482483 1485.5279419081905
2257.5812847186553 1579.7580248007225
2258.180635186791 1381.2152746774846
2258.779840985704 1600.4222127340631
2259.37890214843 1525.0624105975771
2259.97781870799 1690.6123188672555
2260.5765906973957 1856.4721339054267
2261.175218149645 1707.2263112335197
2261.773701097718 1782.7356318657112
2262.3720395745895 1353.427212639681
2262.970233613216 1599.6281273777138
2263.568283246548 1584.2215822329076
2264.1661885075137 1482.3592800423935
2264.763949429038 1403.0471416352611
2265.3615660440246 1918.4002725888881
2265.959038385374 1347.3006857605333
2266.5563664859637 1867.9473821423467
2267.153550378669 1428.3934309423332
2267.7505900963424 1778.1196800278678
2268.3474856718312 1513.1540743035916
2268.9442371379664 1613.7482470332482
2269.5408445275643 1542.1441826019395
2270.1373078734377 1664.4961661214547
2270.7336272083758 1438.3520876496357
2271.32980256516 1513.3756811978765
2271.925833976562 1761.730337205434
2272.5217214753357 1680.6546180221164
2273.117465094223 1599.3828470751328
2273.7130648659586 1457.9712329135873
2274.308520823257 1476.3240321038654
2274.903832998827 1804.3367247384838
2275.4990014253563 1459.1481295992603
2276.094026135528 1778.4732630763597
2276.6889071620117 1457.2375851403024
2277.2836445374614 1871.331175913574
2277.878238294519 1622.1789210309385
2278.472688465812 1424.4342184110692
2279.066995083962 1226.3427956687794
2279.6611581815705 1635.1231004189046
2280.255177791232 1599.1000074932767
2280.8490539455233 2005.774975179093
2281.442786677013 1960.8500402732327
2282.0363760182554 1649.8950238958314
2282.6298220017943 1472.4104404708548
2283.223124660155 1929.263131128664
2283.816284025859 1410.0437295789402
2284.4093001314086 1961.766658958633
2285.002173009292 1468.0935292436259
2285.5949026919952 1894.3295543730267
2286.1874892119777 1623.640881400864
2286.7799326016993 1683.539461787573
2287.3722328936 1253.1034969013012
2287.964390120109 1197.699605473416
2288.556404313642 1677.4802869073924
2289.1482755066027 2060.288768075058
2289.7400037313873 1675.5243041983535
2290.3315890203703 1408.4985923264894
2290.9230314059205 1602.3453173977687
2291.5143309203904 1696.9506107170025
2292.1054875961236 1650.962225088758
2292.6965014654506 2002.5479672904753
2293.287372560684 1354.4964694861746
2293.878100914131 1445.5932323156715
2294.468686558086 1536.9310859632892
2295.059129524827 1739.044362282501
2295.649429846617 1920.8860027576727
2296.239587555716 1511.6693137909517
2296.8296026843636 1706.283117889184
2297.419475264791 1640.8404734990497
2298.0092053292137 1575.1741179886917
2298.598792909839 1763.6918003105864
2299.1882380388597 1853.1208881321509
2299.777540748455 2011.4587017203005
2300.3667010707904 1831.5667974451487
2300.9557190380256 1994.6761757607296
2301.544594682302 1671.5136938510227
2302.1333280357503 1986.382374125577
2302.721919130485 1726.3451987059336
2303.3103679986198 2110.078074790203
2303.898674672242 1916.8697282705612
2304.486839183437 1607.6477636996747
2305.0748615642697 1731.6674381192347
2305.6627418468015 1605.9999129608298
2306.2504800630704 1562.5548369905641
2306.8380762451143 1726.060595591765
2307.425530424949 1740.9984177018596
2308.012842634582 1755.9569642928418
2308.6000129060103 2046.803187292036
2309.187041271214 1768.0805372503714
2309.773927762164 1964.4961567410296
2310.3606724108213 1715.2364562881546
2310.9472752491274 1786.6085267568615
2311.5337363090184 1858.193137338608
2312.120055622414 1710.1370792750663
2312.706233221221 1654.9951545790034
2313.2922691373424 1834.8232036719735
2313.8781634026564 1486.8249088925102
2314.463916049037 1651.2387485900667
2315.049527108342 1802.8680434233381
2315.6349966124235 2104.647097686292
2316.2203245931123 1764.2392759657298
2316.8055110822315 1394.9489035192066
2317.3905561115935 1485.723280992418
2317.9754597129977 1482.4163244805409
2318.560221918229 1437.719599471805
2319.1448427590603 1392.952743775733
2319.729322267256 1324.900404465017
2320.313660474563 1361.4366705780774
2320.8978574127195 1616.9365771369673
2321.481913113452 1873.193257765577
2322.0658276084705 1338.574047630235
2322.6496009294806 1667.9380619731805
2323.233233108165 1697.0823936267188
2323.8167241762058 1620.7218684907034
2324.4000741652617 1626.293133729718
2324.983283106987 1833.3603604300479
2325.5663510330232 2032.363259526678
2326.1492779749933 1591.7343727467244
2326.7320639645204 1842.7144351003249
2327.3147090332004 2157.164308966897
2327.897213212629 1572.9696695576272
2328.4795765343843 1828.214237466634
2329.0617990300307 1405.096267569154
2329.643880731124 1964.100471585804
2330.22582166921 1498.325260215423
2330.807621875816 1363.108323293848
2331.3892813824623 1227.7917934639531
2331.9708002206517 1261.1499691936003
2332.5521784218818 1729.4291212209748
2333.133416017634 1692.1066850449886
2333.7145130393765 1528.8125166138802
2334.295469518571 1961.4991246235393
2334.876285486658 1965.3459317153047
2335.456960975076 1872.759187266655
2336.037496015242 1779.997923900772
2336.6178906385667 1756.3693173351433
2337.198144876451 1748.140891367356
2337.778258760278 1841.1091263990195
2338.3582323214214 1764.2705725632281
2338.938065591243 1687.2091290749654
2339.517758601087 1940.4025301805018
2340.0973113822965 1987.3006783744895
2340.676723966193 1546.07365966647
2341.255996384094 1749.6795877170898
2341.835128667295 1945.0462504030797
2342.4141208470883 1730.7470170451797
2342.992972954751 1800.0609005055674
2343.5716850215467 1595.5690285445608
2344.1502570787306 1040.0645322756284
2344.7286891575386 1367.601532052145
2345.3069812892045 1935.5607146118593
2345.885133504944 2031.058062575772
2346.4631458359618 1430.0715378659293
2347.04101831345 1237.6175957358148
2347.6187509685915 1372.6343550048516
2348.196343832553 1441.4998818915599
2348.7737969364935 1447.612239342259
2349.351110311558 1453.761823879994
2349.9282839888765 1374.320093769928
2350.5053179995757 1352.5512486003533
2351.0822123747585 1414.8358449862794
2351.658967145526 1964.2890478824443
2352.2355823429643 1362.8624572501649
2352.812057998144 1860.766877495483
2353.3883941421263 1423.4279761492257
2353.9645908059647 1699.202593657809
2354.540648020693 1524.9810153696194
2355.116565817336 1327.5118045319894
2355.6923442269126 1396.8977416582484
2356.2679832804224 1466.427451698954
2356.8434830088518 1547.5610522009704
2357.41884344318 1297.8429728950846
2357.994064614377 1327.4720475662314
