#exp_cfg={"servo_angle": 0.0, "laser_lim": 100.0, "servo_angle_to": 18.0, "laser_wup": 0.0, "bt_dev": "EnSpectr-25AE3", "laser_wdn_max": 0.0, "frames": 10.0, "servo_used": 0, "servo_calib_use": 0, "laser_wdn_min": 0.0, "servo_pix_from": 90.0, "cooler_tout": 300.0, "servo_angle_from": 0.0, "servo_calib": "[-1.9174921013161362e-09, 3.9322238269163779e-05, -0.27385609119055809, 653.59552119713567]", "laser_autoctl": 0, "servo_pix_to": 3682.0, "laser_pw": 100.0, "cooler_on": 0, "laser_volt": 4.0, "cooler_autoctl": 0, "cooler_curr": 70.0, "cooler_startup": 10.0, "laser_fixed_pw": 0, "gain": 1.3, "offset": 2.53059635486, "servo_calib_degree": 3.0, "laser_curr": 55.0, "shutter": 8200.0, "servo_calib_step": 1.0, "laser_fixed_curr": 0, "exp": 2000.0, "ccd_volt": 4.7, "bt_addr": "00:06:66:62:5A:E3", "servo_delay": 500.0, "laser_autooff": 1}
#proc_cfg={"flat_auto_wnd": 200.0, "flat_auto_fr": 200.0, "flat_auto_shift": 5.0, "yconv": 1, "flatten": 1, "flatten_strength": 100.0, "xfrom": 300.0, "auto_max_frame": 2000.0, "auto_signal": 48000.0, "flat_auto_tol": 0.1, "autoclip": 1, "xrel_range": 0.0, "flat_auto_to": 4000.0, "intensity_adj": 1.0, "xrel": 7852.0, "rmhot": 1, "flat_auto_slit": 4.999999999999997, "auto_ini_exp": 300.0, "auto_off": 0, "xto": 2860.0, "flat_auto_ref": "", "flat_auto_rank": 1, "autobackg": 0, "xrel_adj": 0.0, "auto_black_lvl": 1, "base_wnd": 100.0, "sub_baseline": 0, "xconv": 2, "auto_max_exp": 1000.0, "auto_total_exp": 10000.0, "auto_exp": 0, "rmripple": 0, "black_lvl": 8273.878125, "shutter_clip_adj": 0.0, "auto_bckg": 0, "flat_auto_thr": 0.9, "subbackg": 1}
316.8218498245369 16035.021104659292
317.89969571804795 15726.601817756722
318.977263876126 15617.35581166812
320.05455438786703 15455.36291823344
321.1315673423287 15432.728206842794
322.2083028285215 15437.487574464094
323.2847609354267 15290.349516189981
324.3609417519747 15236.282735845092
325.43684536705587 15044.649024719318
326.5124718695279 14979.298491322721
327.58782134820103 14910.701785963025
328.66289389184385 14936.634068751091
329.7376895891921 14731.776252673357
330.8122085289342 14659.68069573215
331.88645079971866 14561.548943250706
332.9604164901575 14534.788817158576
334.03410568881554 14490.820537118436
335.1075184842266 14584.598834384024
336.18065496487543 14348.397691275899
337.2535152192122 14331.875187194102
338.32609933564163 14337.490905864955
339.39840740253203 14246.946715866221
340.4704395082099 14279.393899317254
341.5421957409617 14114.31587796292
342.6136761890357 14240.728629077847
343.6848809406365 14133.36945567948
344.75581008392874 13972.040573027578
345.82646370703696 14033.366413621357
346.8968418980512 14023.476495942426
347.96694474501055 14046.591224382955
349.0367723359268 14029.030029797723
350.106324758759 13893.61167283291
351.1756021014353 13842.937354293521
352.2446044518383 13863.49315900389
353.31333189781435 14017.891338437654
354.38178452716966 13844.548984259007
355.449962427665 13924.873196210445
356.51786568702846 13817.001862123254
357.58549439294256 14018.085428006078
358.6528486330535 14062.032157815978
359.71992849496564 13999.578893224429
360.7867340662433 14047.613344356063
361.8532654344144 14076.062806624399
362.9195226869597 14147.537541649232
363.9855059113288 14141.228814496568
365.05121519492604 14023.52283254277
366.11665062511565 14297.674534017575
367.1818122892273 14206.109195449419
368.2467002745434 14327.910749927982
369.31131466831175 14362.696560408749
370.375655557742 14399.660779866226
371.4397230299983 14462.416426094045
372.5035171722102 14347.759760838739
373.5670380714637 14335.781511138746
374.6302858148101 14506.224997095098
375.6932604892554 14494.372665983703
376.7559621817709 14515.527228858871
377.81839097928605 14448.498211943672
378.8805469686886 14510.469881088433
379.94243023683157 14505.691091488154
381.0040408705263 14420.03941766502
382.0653789565458 14254.24601722625
383.1264445816196 14304.680961898091
384.1872378324406 14296.194421715158
385.2477587956637 14306.163297186862
386.3080075579037 14139.041826889143
387.3679842057336 14060.123095707826
388.4276888256918 14131.53470319217
389.48712150426945 14063.288316116803
390.54628232792857 13971.411445003116
391.6051713830857 13937.29341722366
392.66378875611736 13922.293696863917
393.7221345333637 13971.635843773232
394.7802088011249 13780.403715526056
395.838011645661 13861.24272330607
396.89554315319765 13734.076198996776
397.9528034099112 13599.952097369032
399.00979250194723 13521.911066643177
400.06651051541485 13552.115936494136
401.1229575363741 13558.948309961552
402.17913365085224 13461.028028129886
403.23503894483656 13489.888324232903
404.2906735042761 13419.456869036647
405.3460374150818 13262.62714011016
406.401130763119 13287.29301014272
407.455953634224 13253.237410426093
408.5105061141876 13180.396335996871
409.56478828876243 13036.104609558111
410.6188002436629 12956.355167577249
411.6725420645689 12943.41286919585
412.72601383711117 12997.587135097452
413.77921564689314 12945.396751849086
414.8321475794728 12863.55990035685
415.88480972036814 12776.545773980317
416.93720215506437 12689.209052951943
417.9893249690049 12647.915286449324
419.04117824759123 12654.73861598144
420.09276207619223 12634.379198076744
421.144076540133 12621.465429253081
422.1951217247042 12564.407274179963
423.24589771515275 12597.058147129981
424.2964045966928 12484.206569953816
425.34664245449494 12529.831892890776
426.3966113736933 12388.766324843687
427.4463114393875 12385.272779884284
428.49574273662984 12434.135163246314
429.5449053504417 12331.624084369923
430.5937993658026 12361.626434439931
431.6424248676558 12261.329987898387
432.6907819409007 12309.472226092059
433.73887067040596 12297.256329304928
434.7866911409965 12330.561123672625
435.8342434374608 12261.790245443688
436.88152764455117 12222.57716409918
437.9285438469724 12202.049793187372
438.9752921294057 12142.09457689521
440.02177257648145 12124.944157249212
441.06798527279716 12073.993314522522
442.1139303029122 12217.941462030572
443.1596077513459 12135.304203334603
444.2050177025794 12061.134653398292
445.25016024105753 12104.69633112267
446.2950354511886 12049.476020442326
447.33964341733736 12054.36402295414
448.383984223834 12004.605116771028
449.4280579549686 11904.819675633422
450.471864694995 11991.18893963683
451.5154045281306 11965.176303530272
452.5586775385509 11976.43114503843
453.60168381039693 11970.907493462644
454.64442342776783 12096.255316343257
455.6868964747264 12023.996219367511
456.7291030353008 11939.442973577367
457.77104319347563 12033.567407213164
458.8127170332027 11962.551802902057
459.854124638392 12020.57297745891
460.895266092919 12070.792684304572
461.93614148061897 12099.075140413015
462.97675088529104 12160.501370424057
464.01709439069236 12127.013028625151
465.0571720805492 12096.745496786889
466.0969840385442 12120.463884675266
467.1365303483253 12200.030286981493
468.17581109350067 12178.278868284908
469.2148263576437 12157.110207738444
470.2535762242878 12168.591141135603
471.29206077693016 12352.607605626374
472.33028009902773 12488.21528392093
473.3682342740012 12475.475122657459
474.40592338523857 12466.994886772958
475.4433475160804 12658.411957470267
476.4805067498364 12709.42478571032
477.51740116978 12888.631671398138
478.5540308591426 13200.356065227028
479.59039590112116 13495.242048920007
480.6264963788726 13607.849790169563
481.6623323755193 14064.286458038376
482.6979039741436 14321.747217601122
483.7332112577915 14789.395075062897
484.76825430947247 15350.419802608318
485.80303321215797 15598.572396227357
486.837548048783 15997.828241617288
487.8717989022425 16401.08314069838
488.90578585539697 16598.13093922483
489.9395089910686 16949.81199602789
490.97296839203955 16854.307218186146
492.00616414106116 16700.680619869687
493.0390963208429 16704.52949152493
494.0717650140559 16494.52864030572
495.10417030333883 16144.28449254102
496.1363122712901 15974.069152371387
497.16819100046814 15487.342055798945
498.1998065734024 14994.845691371022
499.2311590725767 14823.817361331798
500.26224858044407 14363.245056801312
501.2930751794156 14034.968180502328
502.3236389518679 13868.8204736284
503.35393998014115 13469.403072057505
504.38397834653733 13237.239529414812
505.4137541333221 13135.657975365908
506.4432674227228 12825.175983862438
507.4725182969323 12629.535474102822
508.5015068381035 12595.370797674745
509.53023312835467 12549.230432605553
510.55869724976765 12371.428702907386
511.58689928438434 12277.733315466367
512.6148393142121 12288.172992330416
513.6425174212218 12337.607252768483
514.6699336873462 12361.689733024943
515.6970881944835 12341.161521241122
516.7239810244901 12251.2339406152
517.7506122591931 12343.598507695304
518.7769819803761 12379.33947611905
519.8030902697901 12444.696240386445
520.8289372091476 12440.689343743594
521.8545228801249 12669.653394644974
522.8798473643619 12464.7966695951
523.9049107434621 12511.333039077064
524.9297130989908 12545.741382334738
525.9542545124805 12557.049893238236
526.9785350654201 12513.188255455956
528.0025548392696 12474.097599834848
529.0263139154504 12425.53328487495
530.0498123753423 12407.299204301595
531.073050300296 12295.142063187492
532.0960277716204 12270.13006536665
533.1187448705896 12263.176706024951
534.1412016784416 12137.107198950445
535.1633982763833 12058.528368466057
536.1853347455726 12043.293479395896
537.2070111671401 11892.925713058346
538.2284276221817 11869.493494795428
539.2495841917516 11763.708811678882
540.2704809568677 11602.1166725368
541.2911179985167 11695.118583471198
542.3114953976419 11547.829002468945
543.3316132351592 11425.29364791641
544.3514715919409 11321.371469980682
545.3710705488247 11327.455304089548
546.3904101866156 11270.330469802433
547.4094905860784 11236.98841599704
548.4283118279418 11249.537365490793
549.4468739929034 11291.351997402862
550.4651771616191 11207.380832370302
551.4832214147063 11052.230245978026
552.501006832761 11116.653001136594
553.5185334963226 11100.822787376123
554.5358014859103 11107.413752661978
555.5528108820035 11131.531165728698
556.5695617650363 11070.04955634034
557.5860542154242 11069.653540454987
558.6022883135283 11096.534529865163
559.6182641396881 11008.30410357878
560.6339817741991 11109.624794676783
561.6494412973225 11107.06160429862
562.6646427892883 11212.999629945607
563.6795863302796 11059.204546769555
564.694272000459 11056.013782445838
565.7086998799423 11191.93104126518
566.7228700488104 11127.585719556639
567.7367825871115 11060.738703332288
568.7504375748576 11214.508630863016
569.7638350920224 11208.479817264159
570.7769752185486 11201.340987682794
571.7898580343353 11244.00112077596
572.802483619258 11273.888503158525
573.8148520531431 11522.589969367215
574.8269634157932 11529.394162872684
575.8388177869692 11596.669739749857
576.8504152463938 11667.989743869248
577.8617558737587 11994.939049405246
578.8728397487175 11958.846993192428
579.883666950891 12276.457140945586
580.8942375598654 12447.061050296288
581.9045516551851 12725.83007101157
582.9146093163617 13113.787089174002
583.924410622878 13082.70791332077
584.9339556541727 13273.159634968004
585.9432444896538 13527.92947305642
586.9522772086875 13512.491493406527
587.9610538906127 13529.225944049434
588.9695746147318 13518.509380723432
589.9778394603054 13478.15916956623
590.985848506567 13244.06947562224
591.9936018327098 13124.785409274482
593.0010995178891 12816.876561269235
594.0083416412344 12798.83777841171
595.0153282818283 12452.841387927509
596.0220595187293 12281.651052045036
597.0285354309508 12064.842841894662
598.0347560974806 12007.439910468844
599.0407215972609 11847.47135501009
600.0464320092051 11673.470743994061
601.0518874121954 11616.151009338393
602.0570878850685 11590.141487272555
603.062033506636 11612.968751165605
604.0667243556636 11523.21772290401
605.0711605108936 11479.444979825596
606.0753420510264 11789.781984411164
607.0792690547278 11615.979785671747
608.082941600629 11625.125810875921
609.0863597673306 11668.76098964841
610.0895236333909 11791.803730433163
611.0924332773357 12036.173675319971
612.0950887776617 11885.667710926495
613.0974902128219 12120.112279726425
614.0996376612384 12331.648236204435
615.1015312013005 12595.240681242685
616.1031709113595 12759.922507729565
617.1045568697336 12893.511992243186
618.1056891547069 13236.387887809115
619.1065678445229 13563.578955775733
620.1071930173985 14056.699477992526
621.1075647515099 14167.898568494857
622.1076831250048 14535.025455926743
623.1075482159849 15042.18692258647
624.1071601025305 15329.083638026577
625.1065188626781 15803.476089846934
626.105624574433 16358.769324328581
627.1044773157682 16729.337040299113
628.1030771646128 17075.087997356266
629.1014241988742 17470.064830540992
630.0995184964158 17963.58184505328
631.0973601350688 18171.57041440679
632.0949491926294 18656.56596564786
633.0922857468631 18482.123496787077
634.089369875499 18656.84701690934
635.0862016562278 18745.984534021878
636.0827811667077 18431.475311018556
637.0791084845641 18408.232230519836
638.0751836873878 18048.14607138992
639.0710068527369 17906.021896228667
640.0665780581294 17501.429551541813
641.0618973810506 17034.167898187126
642.0569648989604 16688.03320456886
643.0517806892676 16083.516053877855
644.0463448293649 15769.02806123489
645.040657396592 15264.901754805356
646.0347184682723 14878.441830836711
647.0285281216875 14313.042937492082
648.0220864340772 14004.238932140152
649.0153934826558 13706.949755647345
650.0084493446047 13495.959222351317
651.0012540970674 13140.276856167426
651.9938078171526 12903.759129947308
652.9861105819346 12559.63340608883
653.9781624684565 12538.826847635868
654.9699635537254 12206.816189242494
655.9615139147136 12199.912693413895
656.9528136283589 11874.668450776717
657.9438627715699 11944.122023403383
658.9346614212154 11778.032462467718
659.925209654135 11520.218023538717
660.9155075471263 11509.792389152759
661.9055551769616 11455.95301639504
662.895352620375 11521.030748656247
663.8848999540678 11233.793047721108
664.8741972547068 11115.40814456991
665.863244598926 11156.015852837274
666.8520420633213 11188.097382730823
667.8405897244611 11035.005039618762
668.8288876588758 10877.908703321698
669.8169359430613 11048.339745678502
670.8047346534822 11007.759968106215
671.7922838665672 10840.149401122922
672.7795836587156 11025.54296902292
673.766634106285 11083.06411930754
674.7534352856092 10843.411327088372
675.7399872729766 10877.2641187725
676.7262901446538 10935.962942143633
677.712343976862 10998.112239488564
678.6981488457986 11035.956723731242
679.6837048276229 10894.730841345607
680.6690119984596 11023.123577844959
681.6540704344043 10946.934382683368
682.6388802115107 10946.23070246441
683.6234414058108 10929.296154002679
684.6077540932874 10837.441959559057
685.591818349907 10825.88366330575
686.575634251587 10774.957169314077
687.5592018742263 10701.663894281977
688.5425212936734 10535.418677106567
689.5255925857564 10684.03530518024
690.5084158262707 10618.258776652665
691.4909910909646 10493.666176214338
692.4733184555644 10439.682101656656
693.4553979957618 10542.543144039795
694.4372297872123 10484.420447558758
695.4188139055404 10318.657270600703
696.4001504263324 10148.548319554795
697.3812394251509 10301.257249135222
698.3620809775111 10339.11040819672
699.3426751589104 10228.950728236041
700.3230220448004 10197.061565529397
701.3031217106054 10177.627542333017
702.2829742317172 10355.586829411206
703.2625796834873 10003.455822544223
704.2419381412474 10062.611609446594
705.22104968028 10190.685272411216
706.1999143758458 10021.448393203607
707.178532303169 10036.114427915254
708.1569035374378 10234.388146922438
709.1350281538107 10257.346666926895
710.1129062274158 10171.257486025173
711.0905378333373 10391.64520679473
712.0679230466376 10390.566748844521
713.0450619423427 10588.644558418258
714.0219545954424 10598.887201485746
714.9986010808989 10615.695002089196
715.9750014736292 10834.194684853272
716.9511558485392 10998.610108125065
717.9270642804786 11068.208765202293
718.9027268442787 11142.084710446743
719.8781436147328 11145.853721668991
720.8533146666014 11156.226155489745
721.828240074612 11147.593298255952
722.8029199134635 11080.716166306553
723.7773542578125 10966.671617502458
724.751543182294 11006.74125823223
725.7254867615029 10942.180816398324
726.6991850700015 10601.036793374373
727.6726381823228 10693.976215420338
728.6458461729599 10640.113089343346
729.6188091163858 10540.906446861072
730.5915270870246 10518.679873031544
731.5640001592856 10427.242621697782
732.536228407529 10434.61293870081
733.5082119060917 10447.723500091339
734.4799507292755 10453.804797655983
735.4514449513481 10405.451054582205
736.4226946465496 10570.104443086631
737.3936998890786 10595.683552850283
738.3644607531078 10436.029644426559
739.3349773127793 10428.169737727856
740.3052496421951 10506.725683256218
741.27527781543 10302.89517313722
742.2450619065221 10260.892473684162
743.2146019894826 10237.925276810802
744.183898138288 10249.695275272335
745.1529504268801 10205.41024480201
746.1217589291682 9963.736229821188
747.0903237190341 10056.546704593396
748.058644870318 10121.380398189674
749.0267224568397 9996.585277587052
749.994556552374 9961.659369075987
750.9621472306771 10012.99458228032
751.9294945654583 9982.686893013528
752.8965986304011 9974.228243061498
753.8634594991636 9942.087413481124
754.8300772453586 10106.448194435628
755.7964519425768 10037.465771944622
756.762583664371 10134.788548452943
757.7284724842611 10143.027406822883
758.6941184757416 10090.822791563827
759.6595217122667 10172.113132613656
760.6246822672638 10194.744961366614
761.5896002141235 10067.186297354396
762.5542756262093 10082.395739778525
763.5187085768503 10142.199302265552
764.4828991393406 10003.15279783707
765.4468473869474 10045.552171230538
766.4105533929032 10088.109880687105
767.3740172304078 9911.198491089877
768.3372389726283 10011.402190411116
769.3002186926988 9760.305759058214
770.2629564637282 9671.055345676037
771.2254523587872 9609.297312332015
772.1877064509154 9515.380880594119
773.1497188131179 9417.541651976553
774.1114895183728 9356.38934950822
775.0730186396268 9302.550740770213
776.0343062497905 9202.816208343085
776.9953524217381 9206.616063126085
777.9561572283274 9267.62108783548
778.9167207423689 9125.57232768471
779.8770430366476 9116.184877190022
780.8371241839159 9178.105674897135
781.7969642568951 9183.20405403155
782.7565633282757 9351.726163717945
783.7159214707099 9119.51966668417
784.6750387568281 9239.20690537154
785.6339152592227 9216.43191505903
786.5925510504512 9079.87124569528
787.5509462030477 9142.923123996912
788.5091007895098 9244.986386816006
789.4670148823006 9179.406238463554
790.4246885538596 9205.377183134546
791.3821218765861 9188.59559556042
792.3393149228505 9118.278676767908
793.2962677649975 9264.411112671176
794.2529804753303 9339.848916364808
795.20945312613 9376.490009327537
796.1656857896378 9341.790905354825
797.1216785380675 9401.450536169341
798.0774314435985 9589.070294511446
799.0329445783846 9785.60313725769
799.9882180145414 9866.841726101648
800.9432518241574 9942.698249588386
801.89804607929 10184.686276108869
802.852600851962 10310.585317853034
803.8069162141637 10390.109662011115
804.760992237856 10572.31257570814
805.714828994971 10699.06030902395
806.6684265574077 10763.969839278794
807.6217849970271 10706.432257857366
808.574904385674 10679.78479457648
809.527784795142 10725.119197633552
810.4804262972102 10641.620919774012
811.4328289636178 10480.376730746295
812.3849928660748 10342.71996310325
813.3369180762638 10143.569438096692
814.2886046658241 10131.878335041245
815.2400527063783 9827.510918504095
816.1912622695108 9676.445354287509
817.1422334267718 9626.344632296725
818.0929662496856 9468.885103720644
819.0434608097457 9204.356655433632
819.9937171784059 9197.133695291754
820.9437354271013 8979.668835764794
821.8935156272255 9024.137234117115
822.8430578501484 8856.234471912267
823.7923621672016 8676.0585278603
824.7414286496896 8747.775947682043
825.6902573688876 8658.821141105958
826.6388483960363 8585.919817175873
827.5872018023492 8507.87639759469
828.5353176590033 8645.60871262978
829.4831960371503 8468.438300152131
830.4308370079016 8481.76719925056
831.3782406423525 8501.389898171821
832.3254070115545 8573.610170829317
833.2723361865319 8443.15307168941
834.2190282382799 8359.406114926094
835.1654832377644 8379.099969479603
836.1117012559116 8337.673601252744
837.0576823636256 8462.848612188345
838.003426631778 8299.489753704556
838.9489341312074 8261.549092152409
839.8942049327197 8395.712331645083
840.8392391070975 8405.592311100116
841.7840367250865 8335.975412874579
842.7285978573982 8213.385664013393
843.672922574724 8433.257960743493
844.6170109477152 8360.73867803494
845.560863046996 8266.45267603469
846.5044789431595 8300.485667593954
847.4478587067697 8285.722601860118
848.3910024083561 8471.655686227892
849.333910118421 8389.422271508172
850.2765819074339 8274.020107439468
851.2190178458332 8402.220913665478
852.161218004032 8443.088556857028
853.1031824524016 8427.222220867598
854.0449112612987 8316.73584599992
854.9864045010327 8429.786675913865
855.9276622418947 8265.748086456948
856.8686845541379 8354.513217956399
857.8094715079915 8398.536226859422
858.7500231736467 8491.212331031727
859.690339621271 8414.963313920178
860.6304209209939 8438.097623726808
861.5702671429244 8337.28172562953
862.5098783571284 8462.276949214369
863.4492546336569 8579.263562633592
864.3883960425155 8538.040347646884
865.3273026536863 8624.372474752166
866.2659745371238 8569.194183924
867.2044117627465 8738.65855861271
868.1426144004472 8735.175197446913
869.0805825200823 8799.41405290674
870.0183161914847 8865.733753225983
870.9558154844526 9045.25952077651
871.8930804687552 9092.35637116931
872.8301112141307 8989.865476396628
873.7669077902865 9215.302881588945
874.7034702669062 9413.244052927948
875.6397987136315 9338.959444212811
876.5758932000863 9457.413671882761
877.5117537958522 9657.89067575022
878.4473805704911 9595.830824900087
879.3827735935283 9656.54713140069
880.3179329344603 9846.148757808562
881.2528586627541 9942.562544117143
882.1875508478479 9936.81085517913
883.1220095591489 9881.503520223385
884.0562348660296 9859.695457802787
884.9902268378391 9962.502882033188
885.9239855438955 9835.41860763911
886.8575110534839 9731.06503683196
887.7908034358588 9698.304976739846
888.7238627602474 9667.971281867702
889.6566890958475 9622.284004989564
890.5892825118208 9440.43500831813
891.5216430773125 9390.646052055701
892.4537708614189 9297.813642314457
893.3856659332196 9081.57627100887
894.3173283617652 8941.765654862787
895.2487582160684 9026.256642131524
896.179955565116 8856.811838454383
897.110920477864 8601.457636532377
898.0416530232451 8676.435045471035
898.9721532701478 8518.357063864943
899.9024212874428 8583.6327103285
900.8324571439662 8321.989268825208
901.7622609085302 8290.802413236388
902.6918326499072 8256.958792275433
903.6211724368477 8263.398918834415
904.5502803380696 8328.401098096776
905.4791564222614 8321.047724963228
906.4078007580792 8103.308378797093
907.3362134141571 8119.847463207782
908.2643944590909 8282.41181600314
909.1923439614493 8021.832430199276
910.1200619897754 8072.24178229059
911.0475486125779 8209.817394723474
911.9748038983344 8037.250164754009
912.9018279155007 7968.969782431357
913.8286207324982 7902.919618358505
914.7551824177117 7978.043026745532
915.6815130395116 7916.188154592
916.6076126662283 7847.901691414692
917.533481366163 7880.993946484964
918.4591192075914 7906.320417664731
919.3845262587565 8010.710101840957
920.3097025878706 7787.295779190275
921.2346482631237 7767.826335987566
922.1593633526682 7798.20111807482
923.0838479246304 7898.70350892804
924.0081020471061 7941.519942590021
924.9321257881656 7727.47407289018
925.8559192158464 7814.263555518315
926.7794823981512 7728.892684541175
927.7028154030686 7667.866541338868
928.6259182985414 7602.996546690461
929.5487911524906 7762.921099411561
930.4714340328119 7819.086630190017
931.3938470073608 7577.607086705309
932.3160301439748 7662.748253667082
933.2379835104548 7693.72274171121
934.1597071745709 7762.745353104471
935.0812012040769 7761.362635630726
936.002465666681 7677.50017872039
936.9235006300696 7774.974713779122
937.8443061619055 7724.9831056165685
938.7648823298077 7605.435576154117
939.6852292013809 7591.732895845399
940.6053468441951 7725.813084387907
941.5252353257874 7510.889658362512
942.4448947136698 7569.9164378600835
943.364325075323 7560.625194608636
944.2835264782043 7675.515634482382
945.2024989897309 7599.494510787745
946.1212426773054 7662.06880035646
947.0397576082851 7698.230268548704
947.9580438500125 7758.652018139152
948.8761014697939 7751.556688127716
949.7939305349064 7721.805120003097
950.7115311125999 7639.883857287154
951.6289032700952 7669.3484706966865
952.5460470745875 7727.231519145731
953.4629625932339 7653.6040063192195
954.3796498931715 7721.168469375683
955.2961090415029 7736.559007870166
956.2123401053068 7728.072884886479
957.1283431516276 7692.814516677681
958.0441182474842 7612.062515553487
958.9596654598663 7850.080718443455
959.8749848557309 7693.445813397511
960.7900765020167 7631.454658791164
961.7049404656209 7539.869478537398
962.6195768134185 7652.1410658234745
963.5339856122537 7673.822339973231
964.4481669289453 7693.150601268998
965.3621208302793 7577.135401116238
966.2758473830145 7554.62250539926
967.1893466538822 7748.405138736227
968.1026187095813 7642.858953486914
969.0156636167867 7647.272303326952
969.9284814421426 7683.879544452864
970.8410722522622 7647.5784146599735
971.753436113735 7664.580244096445
972.6655730931161 7546.293310125552
973.5774832569368 7698.716764009936
974.4891666716958 7644.295908035812
975.4006234038698 7598.970758682242
976.3118535198955 7567.647973514187
977.2228570861935 7809.024227100997
978.1336341691494 7761.804271801686
979.0441848351202 7610.8013448146685
979.9545091504333 7733.562664018718
980.864607181391 7774.067170654393
981.7744789942699 7805.527022462293
982.6841246553086 7757.9809191982085
983.5935442307236 7873.304121171435
984.5027377867027 7847.632900006957
985.4117053894024 7918.15656208943
986.3204471049557 7775.118128085569
987.2289629994648 7878.628595951866
988.1372531390007 8008.574840379057
989.0453175896091 7909.10410528241
989.9531564173067 8011.710826912718
990.860769688079 7940.139987164364
991.7681574678918 7973.948078765594
992.6753198226706 7987.435901441847
993.582256818323 8042.642170403755
994.4889685207218 8026.2426068928835
995.3954549957143 8290.23521802593
996.301716309119 8217.413099494284
997.2077525267232 8190.3835744060025
998.1135637142943 8098.990447795097
999.0191499375615 8364.182544817491
999.924511262232 8375.67494130038
1000.8296477539861 8389.750451616095
1001.7345594784656 8362.076848389508
1002.6392465012996 8480.126648905994
1003.5437088880753 8488.824898518913
1004.4479467043584 8471.96202595434
1005.3519600156869 8355.325810929078
1006.2557488875718 8479.648520251187
1007.1593133854858 8523.791350140178
1008.0626535748888 8438.389945802748
1008.9657695212009 8236.7034811053
1009.8686612898182 8530.516318994003
1010.7713289461135 8502.477412153961
1011.6737725554212 8337.78521840226
1012.5759921830577 8316.653332174083
1013.4779878943027 8290.483807542909
1014.379759754418 8457.390253728761
1015.2813078286254 8181.219862005144
1016.18263218213 8128.61736155173
1017.0837328801026 8091.304565827176
1017.9846099876886 8189.127142603078
1018.8852635700023 8010.327418822829
1019.7856936921362 7923.626020713603
1020.6859004191447 8073.623355052063
1021.5858838160675 7900.9060935450925
1022.4856439479063 7866.316584112993
1023.3851808796389 7753.512894734929
1024.2844946762143 7902.876538843195
1025.183585402554 7870.890072936274
1026.082453123554 7580.040375461047
1026.9810979040776 7680.476757455495
1027.8795198089647 7566.823683301397
1028.777718903024 7652.376443823826
1029.6756952510368 7608.344490258154
1030.5734489177648 7495.819798332394
1031.4709799679313 7533.953661543645
1032.3682884662358 7708.723205276398
1033.2653744773506 7399.785991421789
1034.1622380659192 7356.498342704765
1035.058879296559 7541.604309899825
1035.9552982338591 7579.181530911526
1036.8514949423825 7556.067536565424
1037.7474694866614 7537.194833333614
1038.6432219312028 7521.327103234989
1039.5387523404825 7646.682780390447
1040.4340607789582 7608.4211608066935
1041.3291473110476 7577.452380954533
1042.2240120011465 7825.478490732237
1043.1186549136273 7885.686838417474
1044.0130761128294 7826.442898443107
1044.9072756630649 7768.582115380863
1045.8012536286205 7987.3936740765475
1046.6950100737577 7978.13698579948
1047.588545062701 8059.36631365516
1048.481858659663 8088.469131504947
1049.3749509288118 8237.739033451064
1050.2678219343034 8197.811062882009
1051.1604717402515 8116.338836358157
1052.0529004107575 8079.820190998869
1052.9451080098825 8298.250556132114
1053.8370946016694 8294.903911802434
1054.7288602501267 8233.728526322011
1055.6204050192446 8256.466832660177
1056.511728972977 8323.235536423765
1057.402832175254 8370.080536293226
1058.2937146899785 8248.499758214642
1059.1843765810263 8185.356621437482
1060.0748179122456 8375.755215714647
1060.9650387474576 8397.338588722792
1061.855039150456 8428.84528994711
1062.7448191850071 8307.565067099247
1063.6343789148505 8531.835957111349
1064.5237184037014 8520.45438723268
1065.412837715241 8449.497009834535
1066.3017369131267 8351.650277954885
1067.190416060992 8333.018546184194
1068.0788752224398 8325.889363082078
1068.9671144610438 8219.55367635083
1069.8551338403558 8325.095627320745
1070.7429334239023 8435.423506265823
1071.6305132751695 8159.791465021309
1072.517873457633 8188.6090943189065
1073.4050140347335 8070.022844031254
1074.2919350698776 8145.524258136675
1075.1786366264623 8094.811448966813
1076.0651187678395 7998.0797834098075
1076.95138155735 7840.023828924512
1077.8374250582929 7811.144890241621
1078.7232493339507 7912.437588172174
1079.608854447577 7755.093637612161
1080.4942404623907 7604.451725973837
1081.3794074415982 7759.681862105868
1082.2643554483657 7716.369820634849
1083.149084545841 7554.5168191062285
1084.033594797138 7450.42346327329
1084.9178862653516 7486.667135834512
1085.8019590135427 7644.680364600261
1086.6858131047484 7321.42038347005
1087.5694486019802 7453.4966574589735
1088.4528655682225 7389.468682956509
1089.3360640664287 7539.154003675481
1090.2190441595321 7446.130589026356
1091.1018059104317 7393.745198513044
1091.98434938201 7460.030338827879
1092.866674637111 7386.672033710301
1093.748781738559 7329.443630743548
1094.6306707491512 7196.673079805849
1095.5123417316554 7330.2940665879505
1096.3937947488157 7212.258764905431
1097.2750298633455 7192.9257629644835
1098.156047137938 7229.06946103761
1099.0368466352556 7326.774673725461
1099.9174284179317 7362.10453957118
1100.7977925485757 7117.67920846972
1101.6779390897755 7134.258208189512
1102.5578681040806 7191.085327920427
1103.4375796540226 7252.75710391826
1104.3170738021054 7140.243759289477
1105.1963506108077 7089.62325006646
1106.0754101425773 7143.877714010817
1106.9542524598382 7228.982773666869
1107.8328776249855 7210.5088810273155
1108.7112857003904 7167.9197094515985
1109.5894767483987 7263.70612342728
1110.4674508313292 7385.459060461266
1111.3452080114657 7327.804056766271
1112.2227483510815 7430.464389067124
1113.1000719124077 7485.216127872038
1113.9771787576592 7564.1403412898335
1114.854068949022 7537.595215033058
1115.7307425486542 7783.877392141248
1116.6071996186893 7875.303856476836
1117.483440221229 8097.231212641871
1118.3594644183577 8045.127689995727
1119.235272272128 8140.540610458369
1120.1108638445658 8369.394129641034
1120.9862391976712 8734.679701992469
1121.8613983934229 8753.425381296525
1122.7363414937627 8826.143051969004
1123.6110685606182 8964.829223116747
1124.485579655884 9226.571293646699
1125.359874841426 9223.06248876402
1126.2339541790916 9315.636382383313
1127.1078177306936 9657.220014039416
1127.9814655580267 9549.741278207559
1128.854897722851 9647.235256040292
1129.7281142869106 9699.112119614652
1130.6011153119125 9721.791216995298
1131.473900859548 9988.057124279549
1132.3464709914697 9784.935812801456
1133.2188257693178 9743.595918265095
1134.0909652546961 9607.666060024621
1134.96288950919 9523.486145501354
1135.8345985943506 9584.41349157417
1136.7060925717087 9221.27740465037
1137.57737150277 9359.784616063629
1138.4484354490069 9346.007297694632
1139.3192844718778 9020.132174276103
1140.1899186327992 8790.789331981698
1141.060337993178 8902.668897882011
1141.930542614382 8662.102281727055
1142.8005325577597 8405.76646326667
1143.670307884635 8228.298201487249
1144.5398686563003 8278.213787083145
1145.409214934025 7995.63881690513
1146.2783467790541 7792.902951576793
1147.1472642526023 7815.696980622422
1148.0159674158622 7756.710414898121
1148.8844563300026 7577.655349142653
1149.7527310561618 7374.971114910814
1150.6207916554504 7303.888350752941
1151.4886381889592 7230.080138843298
1152.3562707177498 7189.574340206646
1153.2236893028585 7154.504083331674
1154.090894005296 6994.675136232878
1154.9578848860474 7118.4124548830105
1155.8246620060709 7002.934486589297
1156.6912254262988 6873.653329283409
1157.5575752076438 6794.411083807085
1158.42371141098 6999.419186148286
1159.2896340971656 6968.5705402649255
1160.1553433270346 6778.675659315105
1161.0208391613887 6734.658283454967
1161.8861216610057 6830.496950896246
1162.75119088664 6806.088654728561
1163.6160468990201 6802.574332747192
1164.4806897588442 6628.333348484676
1165.3451195267917 6821.775293489018
1166.2093362635114 6768.059315713959
1167.0733400296285 6756.29242559306
1167.9371308857444 6694.573072709167
1168.8007088924278 6682.350982849202
1169.6640741102328 6696.447639295849
1170.5272265996773 6675.351613060293
1171.390166421259 6616.0188365668755
1172.252893635452 6720.731057610801
1173.1154083026995 6754.471066049254
1173.977710483421 6778.577103767228
1174.8398002380145 6579.217224777572
1175.7016776268483 6751.581122345002
1176.563342710264 6736.267650195137
1177.4247955485826 6674.323982118879
1178.2860362020947 6755.929146496186
1179.147064731069 6651.16776367639
1180.0078811957483 6841.18498365986
1180.8684856563486 6829.276670407204
1181.7288781730604 6815.333080590848
1182.589058806052 7006.577561262389
1183.4490276154593 7047.544396599292
1184.3087846614017 6978.12520754045
1185.1683300039676 7085.264214172757
1186.027663703222 7432.404102434365
1186.8867858192025 7244.435303265585
1187.7456964119228 7375.893188825006
1188.6043955413716 7388.317717787286
1189.4628832675116 7662.341000707782
1190.3211596502842 7757.900559995942
1191.179224749596 7824.12356484223
1192.0370786253388 7771.3699851735655
1192.8947213373758 8045.40289498066
1193.7521529455407 8177.637248410431
1194.6093735096438 7970.653988664099
1195.466383089477 8150.369152962851
1196.3231817447977 8210.270184367446
1197.1797695353398 8338.54916890465
1198.0361465208189 8115.077665654762
1198.8923127609214 8083.143481913854
1199.7482683153048 8412.483517373785
1200.6040132436028 8386.9045021194
1201.459547605431 8280.25988029281
1202.3148714603722 8280.771477291899
1203.1699848679855 8304.852839590023
1204.0248878878065 8266.97250113443
1204.8795805793507 8081.969837565116
1205.7340630020935 8108.347874597341
1206.5883352155033 8159.06304462307
1207.4423972790064 8131.647095630874
1208.2962492520237 7807.099336002076
1209.1498911939307 7839.930092315338
1210.0033231640937 7787.368756366331
1210.8565452218427 7703.903750535154
1211.7095574264913 7439.651765096112
1212.5623598373222 7437.392875067266
1213.4149525135963 7370.599172022034
1214.2673355145507 7370.267173984804
1215.1195088993936 7203.420519691749
1215.9714727273113 7152.751422433355
1216.8232270574663 7272.039746113015
1217.6747719489904 6892.0527826790585
1218.5261074609934 6943.595659236295
1219.3772336525653 7083.782799445826
1220.2281505827668 6852.387772456702
1221.0788583106296 7026.272969934897
1221.9293568951707 6692.193323589048
1222.7796463953746 6631.509780515941
1223.629726870202 6772.057878260438
1224.4795983785934 6707.75510262161
1225.3292609794553 6740.898530582625
1226.1787147316809 6548.924962637447
1227.0279596941327 6778.358746845556
1227.8769959256424 6577.54245594414
1228.7258234850306 6655.617414213144
1229.5744424310833 6459.733945620597
1230.422852822563 6706.225514645725
1231.2710547182105 6783.289453863281
1232.119048176739 6612.005804709394
1232.9668332568417 6455.039713339772
1233.8144100171812 6675.8634372857805
1234.6617785163999 6597.948628178249
1235.508938813111 6490.125686321523
1236.3558909659114 6514.246783192406
1237.2026350333617 6696.245604970184
1238.049171074008 6772.5062334609265
1238.8954991463652 6580.452046747863
1239.741619308932 6671.06454103556
1240.587531620169 5433.191000220158
1241.4332361385277 6754.18382850154
1242.2787329224248 6595.143088179228
1243.1240220302534 6503.254487612059
1243.9691035203869 6448.394354305424
1244.813977451171 6747.10387905823
1245.6586438809263 6621.090622993375
1246.5031028679496 6478.900443427049
1247.3473544705157 6713.988285000133
1248.1913987468706 6668.943913238766
1249.0352357552383 6420.461175121543
1249.8788655538228 6591.372068344656
1250.7222882007918 6676.398780306015
1251.565503754302 6697.68821595777
1252.4085122724755 6373.869782345578
1253.2513138134182 6659.33570085174
1254.0939084352049 6623.103947395376
1254.9362961958905 6523.0336562393895
1255.7784771535007 6585.471529433879
1256.6204513660432 6596.3110436372035
1257.4622188915 6710.599189959472
1258.3037797878242 6552.379435538287
1259.1451341129468 6492.566684477562
1259.9862819247755 6584.793690895601
1260.8272232811978 6606.489794532265
1261.6679582400666 6763.007363812549
1262.5084868592203 6432.4973025986355
1263.34880919647 6407.291661078643
1264.1889253095997 6482.6885101243115
1265.0288352563712 6592.0083685519985
1265.8685390945266 6397.296729426633
1266.7080368817751 6460.342438416996
1267.5473286758115 6556.225320747081
1268.386414534294 6484.751210764882
1269.2252945148703 6315.165819194122
1270.0639686751547 6330.814802312204
1270.9024370727402 6282.538524225976
1271.7406997651997 6227.17586634223
1272.5787568100714 6225.1189879972435
1273.4166082648808 6267.315380944278
1274.2542541871244 6252.736744950477
1275.091694634275 6428.187445156616
1275.9289296637817 6140.113803722083
1276.7659593330663 6278.336203312478
1277.6027836995308 6359.409645761991
1278.4394028205552 6428.693744448881
1279.2758167534867 6280.856515369443
1280.112025555658 6240.704011365388
1280.9480292843746 6341.6057963171
1281.7838279969128 6135.161168567797
1282.6194217505326 6212.74403332513
1283.4548106024686 6041.3141516592295
1284.289994609926 6251.473638250868
1285.1249738300921 6240.755139798008
1285.959748320127 6263.785652383974
1286.7943181371702 6183.90001711262
1287.6286833383328 6199.293096509442
1288.4628439807038 6236.78103836405
1289.2968001213521 6194.476103734601
1290.1305518173194 6203.518845307919
1290.9640991256183 6332.262897170427
1291.7974421032523 6179.6080878296325
1292.630580807183 6098.375659397606
1293.463515294361 6204.965749967008
1294.29624562171 6357.529922023963
1295.12877184613 6317.528407959819
1295.961094024493 6177.227867396121
1296.79321221365 6333.112346701234
1297.6251264704333 6300.860199754599
1298.4568368516466 6441.293155269872
1299.2883434140658 6443.283926870707
1300.1196462144526 6168.076340986662
1300.9507453095375 6418.575210524637
1301.7816407560313 6472.341046879724
1302.6123326106172 6375.056090365455
1303.4428209299622 6300.502987772076
1304.2731057707024 6639.372405696311
1305.1031871894502 6469.616959910317
1305.933065242798 6593.013717284693
1306.7627399873181 6515.161415847497
1307.5922114795467 6939.689567674426
1308.4214797760123 6782.158935231602
1309.2505449332057 6689.803035183317
1310.0794070076026 6791.677885769437
1310.9080660556538 6908.585776361417
1311.736522133786 7041.048293364904
1312.5647752983987 6822.206188324681
1313.3928256058734 6690.921367900601
1314.2206731125661 6920.766193640366
1315.048317874809 6995.756755701074
1315.8757599489109 6897.9845228877875
1316.7029993911547 6942.84267621186
1317.5300362578055 7033.254350011125
1318.356870605101 6921.810063260857
1319.183502489257 6890.187950106638
1320.0099319664623 7051.423894022688
1320.836159092889 7100.198501382054
1321.66218392468 7103.647452503045
1322.4880065179532 6911.027822995301
1323.3136269288134 7127.464094507716
1324.1390452133292 7311.429491292578
1324.9642614275563 7373.247681420881
1325.7892756275214 7144.462052706444
1326.6140878692295 7123.582207671931
1327.4386982086617 7485.5243094460575
1328.2631067017755 7289.325280244232
1329.0873134045069 7274.340965889573
1329.911318372764 7080.999581080554
1330.735121662441 7254.395160483955
1331.558723329399 7147.108987560775
1332.3821234294774 7088.592605314577
1333.2053220185007 7094.947158869416
1334.0283191522612 7103.795540122676
1334.851114886529 7171.70233534706
1335.6737092770582 6925.985385310984
1336.4961023795695 7032.133458677364
1337.3182942497697 6931.8963648848685
1338.1402849433325 6985.067900213838
1338.962074515921 6867.5476867254165
1339.7836630231632 6689.198596582844
1340.6050505206676 7171.387793338903
1341.426237064028 7009.18725145051
1342.2472227088037 6798.720241486643
1343.0680075105338 6640.142052006835
1343.888591524741 6835.694862459289
1344.7089748069138 6934.710000637283
1345.5291574125276 6670.113279752919
1346.3491393970307 6648.8159620327515
1347.168920815846 6911.333862003383
1347.9885017243778 6937.368679413089
1348.8078821780036 6784.050100423682
1349.6270622320844 6713.623069125421
1350.4460419419447 6706.511794469031
1351.2648213629054 6756.621446272007
1352.0834005502438 6586.297290086777
1352.90177955923 6549.328664146551
1353.7199584451064 6817.264608271861
1354.5379372630887 6701.265931359994
1355.355716068374 6653.256064515229
1356.1732949161305 6587.604695580549
1356.9906738615155 6704.31357051401
1357.8078529596478 6744.929586068223
1358.6248322656375 6845.657990102647
1359.441611834567 6552.887117790988
1360.2581917214866 6713.354776577258
1361.0745719814367 6589.513921382653
1361.890752669433 6531.784820070286
1362.7067338404577 6427.9658740987115
1363.5225155494845 6694.798222875395
1364.3380978514506 6827.751554360302
1365.1534808012839 6418.809976052149
1365.9686644538815 6350.810821807438
1366.783648864117 6676.03302512151
1367.5984340868417 6711.14055440597
1368.413020176893 6583.775326097808
1369.2274071890715 6376.87398163152
1370.0415951781652 6635.299190151139
1370.8555841989346 6552.511929189093
1371.6693743061223 6411.371048502535
1372.48296555444 6285.804999135953
1373.2963579985844 6548.165591689659
1374.1095516932255 6548.0813949658905
1374.9225466930166 6293.691073494009
1375.7353430525782 6541.011138944018
1376.5479408265164 6415.076814876389
1377.36034006941 6525.099189349935
1378.1725408358216 6534.846148251641
1378.9845431802805 6284.779342995907
1379.796347157304 6614.342946528634
1380.6079528213813 6497.312344955202
1381.4193602269788 6268.718225446863
1382.230569428546 6368.902493431183
1383.0415804805016 6498.161006456162
1383.852393437246 6483.204362396495
1384.6630083531563 6476.292282986111
1385.4734252825892 6321.587970385128
1386.2836442798798 6438.083734143388
1387.0936653993322 6469.085518006855
1387.9034886952395 6370.318441704395
1388.713114221864 6418.275875408311
1389.5225420334482 6458.62794380075
1390.331772184214 6520.45187302371
1391.1408047283585 6202.676479911871
1391.9496397200564 6295.517939846165
1392.758277213461 6503.292337369781
1393.5667172627054 6588.586672982006
1394.3749599218918 6358.969056981187
1395.1830052451114 6294.375787533585
1395.9908532864265 6308.013162289183
1396.7985040998774 6471.355061665138
1397.6059577394808 6320.579646344346
1398.4132142592352 6312.033129940788
1399.2202737131156 6312.280663852145
1400.027136155073 6390.238271114149
1400.8338016390353 6320.797371571055
1401.6402702189134 6186.25950426347
1402.446541948586 6370.06878574134
1403.2526168819204 6353.441214378961
1404.058495072757 6186.898652295383
1404.8641765749107 6295.12563269496
1405.6696614421799 6322.130416981635
1406.4749497283356 6578.078887533639
1407.280041487129 6109.439085425183
1408.084936772295 6032.286043356762
1408.8896356375335 6249.949984086574
1409.6941381365323 6246.361453080562
1410.498444322955 5955.863305143684
1411.3025542504402 6022.794717199872
1412.106467972606 6042.267700165122
1412.9101855430508 6167.359784378134
1413.7137070153458 5753.593861140308
1414.5170324430437 5831.448755268336
1415.320161879672 5919.2879271121465
1416.1230953787435 6080.4461903717065
1416.925832993742 5739.545542562597
1417.7283747781275 5598.25723832128
1418.5307207853439 5762.784780135002
1419.3328710688093 5697.940655750597
1420.134825681922 5502.404102134218
1420.9365846780584 5501.817347220817
1421.7381481105713 5746.159070697085
1422.539516032788 5575.4282539630785
1423.3406884980232 5359.033682414354
1424.1416655595604 5375.522931736139
1424.942447270665 5571.507783126027
1425.7430336845828 5676.424545656426
1426.5434248545298 5396.200951481119
1427.3436208337116 5466.828748502658
1428.143621675301 5467.565302523593
1428.9434274324558 5657.009594403437
1429.7430381583108 5253.614105785369
1430.5424539059713 5373.103950747061
1431.3416747285337 5772.181445875437
1432.1407006790632 5574.214273493284
1432.9395318106053 5417.490317458839
1433.7381681761835 5287.997304050719
1434.5366098288014 5480.875985402921
1435.3348568214424 5507.896480337327
1436.1329092070573 5336.890583781802
1436.9307670385879 5289.388407354288
1437.7284303689503 5521.616844559249
1438.5258992510335 5514.481775012499
1439.3231737377118 5315.082236668819
1440.1202538818306 5335.37578684199
1440.9171397362225 5395.756783194294
1441.7138313536925 5303.259337871889
1442.5103287870243 5247.151905064061
1443.3066320889775 5227.453986160727
1444.1027413122956 5436.761938412174
1444.8986565096966 5286.5535501244685
1445.694377733882 5296.1309418590845
1446.4899050375207 5165.596235193628
1447.2852384732687 5229.603649577498
1448.0803780937622 5378.449415116802
1448.8753239516063 5156.003183818007
1449.6700760993954 5047.447487659124
1450.464634589689 5217.7679378958655
1451.2589994750397 5503.454761391507
1452.0531708079689 5097.612546294116
1452.8471486409799 5100.1760057968095
1453.6409330265524 5443.338338378266
1454.4345240171442 5166.381424731088
1455.2279216651987 5108.150203006936
1456.0211260231263 5037.71268232245
1456.8141371433194 5295.543112103699
1457.6069550781594 5275.674830868849
1458.3995798799897 5015.775993706586
1459.1920116011424 5075.866860636911
1459.98425029393 5120.363244852437
1460.7762960106338 5025.958217922896
1461.5681488035225 5013.920337799657
1462.3598087248392 5147.834781391462
1463.1512758268036 5295.234439568615
1463.942550161617 5084.31944208942
1464.7336317814625 5052.138541681694
1465.524520738496 5139.554992647633
1466.3152170848552 4998.753543106251
1467.1057208726506 5067.536021871769
1467.8960321539817 5041.007528676084
1468.6861509809169 4903.092367384221
1469.4760774055085 4970.275572001638
1470.265811479785 5112.238154472831
1471.055353255755 5009.139565880609
1471.844702785409 4900.535611085223
1472.6338601207044 4929.670784265311
1473.4228253135934 5126.811998490377
1474.2115984159936 4866.476396737905
1475.0001794798063 4814.739272582431
1475.7885685569145 5063.666060751582
1476.576765699172 4990.212374545614
1477.3647709584238 4969.145832261975
1478.1525843864802 5218.98553217251
1478.9402060351367 5050.388849673934
1479.7276359561693 5184.498306114862
1480.514874201328 4997.382852610462
1481.3019208223468 4846.429993929787
1482.0887758709323 4949.852505694179
1482.8754393987747 5178.043161719122
1483.6619114575406 4971.229962899595
1484.4481920988783 5032.3707037152835
1485.2342813744108 5136.948589954214
1486.0201793357446 5437.288989170934
1486.8058860344572 5020.924368100423
1487.591401522117 5078.087290992602
1488.3767258502594 5130.681466969347
1489.1618590704056 5211.910282627515
1489.9468012340494 4964.0362465671005
1490.7315523926754 5271.841433863988
1491.5161125977356 5319.925809826475
1492.3004819006637 5213.138725918985
1493.084660352877 5045.923560557321
1493.8686480057622 5226.0066784492665
1494.6524449106964 5495.122079710083
1495.4360511190262 5481.580684863995
1496.219466682087 5267.355455643815
1497.0026916511779 5186.727150970275
1497.7857260775945 5297.338193471487
1498.5685700125996 5331.484592496061
1499.3512235074395 5090.927652717832
1500.133686613337 5208.906247771483
1500.9159593814966 5279.178873090132
1501.698041863101 5624.356535051077
1502.4799341093094 5137.2959269673465
1503.2616361712662 5068.991745575948
1504.043148100087 5330.2764060509235
1504.8244699468742 5307.7769222115785
1505.6056017626997 5053.766414042247
1506.3865435986281 5183.469403767273
1507.1672955056893 5229.799562296512
1507.9478575348967 5071.009869900327
1508.7282297372512 5311.504583293244
1509.5084121637192 5258.8091804913165
1510.2884048652577 5197.224026476236
1511.0682078927948 5079.248901333549
1511.8478212972423 5075.817151402463
1512.6272451294917 4953.398453035155
1513.4064794404076 5203.292168320037
1514.1855242808433 5291.9436994898915
1514.9643797016215 5064.841175258193
1515.743045753552 5137.343876787681
1516.5215224874191 5279.373562796315
1517.2998099539836 4986.522014838929
1518.077908203999 5064.659644602168
1518.8558172881785 5080.501352951471
1519.633537257234 5199.7847707846295
1520.4110681618404 5246.298991063371
1521.1884100526604 5173.394798409094
1521.9655629803365 5118.201274786181
1522.7425269954856 5313.726985006684
1523.5193021487103 5455.009700572669
1524.2958884905856 5027.246932098942
1525.0722860716687 5149.313339676276
1525.848494942502 5202.1407879224125
1526.624515153595 5251.8789230178045
1527.4003467554485 5175.061980353521
1528.175989798534 5332.363414928673
1528.9514443333064 5303.4058066269345
1529.726710410203 5474.441787961053
1530.5017880796331 5175.576975524918
1531.276677391992 5176.45153700484
1532.0513783976457 5523.917439709259
1532.825891146953 5379.715560729217
1533.6002156902414 5410.634210632395
1534.3743520778207 5340.188339138926
1535.1483003599806 5472.495228319929
1535.9220605869923 5480.123655994969
1536.6956328091019 5475.000266037064
1537.4690170765407 5427.445738605285
1538.242213439511 5572.968126242909
1539.015221948208 5547.091526990903
1539.78804265279 5421.946910428947
1540.560675603405 5453.217256091253
1541.3331208501804 5705.79631164484
1542.1053784432224 5659.022347290325
1542.8774484326168 5563.285579185816
1543.649330868422 5471.561208790096
1544.4210258006842 5625.4078926391685
1545.1925332794308 5615.439512905578
1545.9638533546604 5651.374523191869
1546.7349860763552 5473.357301736343
1547.5059314944829 5935.526208404486
1548.27668965898 5622.930375404135
1549.0472606197673 5674.739419645894
1549.817644426752 5531.536173174159
1550.5878411298072 5854.651755554698
1551.3578507787988 5682.223150794907
1552.1276734235635 5572.336547532772
1552.8973091139233 5716.678919642136
1553.6667578996767 5982.970099525337
1554.436019830604 5622.523794607761
1555.20509495646 5697.075193938375
1555.9739833269869 5718.406089138652
1556.7426849919011 5788.758167359746
1557.511200000903 6031.604327959624
1558.2795284036674 5848.692357825648
1559.0476702498509 5794.621437855676
1559.8156255890954 6017.638408419974
1560.5833944710157 6173.866300676595
1561.3509769452048 5788.951195002673
1562.1183730612447 5835.556638608947
1562.8855828686865 5940.656986140023
1563.6526064170703 6070.614179867107
1564.4194437559127 5955.135570029132
1565.1860949347047 5834.496736631206
1565.9525600029283 6130.781179989045
1566.7188390100328 6089.876263305944
1567.4849320054564 5774.611120405413
1568.250839038612 5792.853465570774
1569.0165601588997 5855.650749203778
1569.7820954156887 5957.973400910478
1570.5474448583373 5701.061754317991
1571.31260853618 5672.401407376437
1572.0775864985299 5644.928752195503
1572.8423787946813 5794.5217939896775
1573.6069854739108 5755.862768500957
1574.371406585471 5682.765729166426
1575.1356421785986 5814.035459905566
1575.899692302506 5636.737508845077
1576.6635570063845 5682.811885006912
1577.4272363394157 5697.767681018505
1578.190730350747 5667.707800052106
1578.9540390895163 5742.197652858373
1579.7171626048384 5430.451029725425
1580.480100945806 5496.369586027131
1581.2428541614918 5572.242126473023
1582.0054223009538 5824.968036065891
1582.767805413223 5599.440903972612
1583.5300035473156 5627.767714656888
1584.292016752228 5764.852189831161
1585.0538450769309 5779.4558402683
1585.8154885703807 5428.01885397863
1586.5769472815136 5463.946937148867
1587.3382212592405 5623.891819564496
1588.099310552463 5731.689406996565
1588.8602152100484 5514.222411516797
1589.6209352808564 5659.656706129588
1590.3814708137234 5585.854982763021
1591.14182185746 5534.956408365853
1591.9019884608679 5356.964026234829
1592.6619706727215 5470.363625132791
1593.4217685417734 5651.717685925554
1594.1813821167616 5761.376257989276
1594.9408114464022 5608.576803304535
1595.7000565793933 5542.037400928925
1596.459117564409 5598.931042164433
1597.2179944501113 5488.756044563774
1597.9766872851324 5502.936039880847
1598.735196118092 5630.528665733242
1599.4935209975883 5647.3558609539205
1600.2516619721973 5786.48247562292
1601.0096190904787 5539.368074808392
1601.7673924009723 5509.718134448467
1602.524981952196 5570.361618088022
1603.2823877926476 5537.816258472187
1604.0396099708087 5338.524278628381
1604.7966485351371 5325.135405332063
1605.5535035340745 5535.422362238134
1606.3101750160404 5735.760508183723
1607.0666630294363 5412.964006064056
1607.822967622642 5374.112974844711
1608.5790888440224 5654.436071273143
1609.3350267419137 5535.706634550154
1610.0907813646445 5486.768483069287
1610.8463527605145 5367.195424107465
1611.601740977805 5673.6400054457135
1612.356946064785 5390.238639274892
1613.1119680696902 5336.36241103261
1613.8668070407512 5301.930382055927
1614.6214630261748 5335.924089842307
1615.375936074137 5527.516975196651
1616.1302262328118 5382.493306051751
1616.8843335503425 5508.253682232422
1617.638258074854 5375.535705171158
1618.391999854457 5430.560922134768
1619.1455589372363 5612.565636537134
1619.8989353712623 5457.810268358865
1620.65212920458 5296.758498785831
1621.4051404852235 5324.475083940577
1622.1579692611976 5524.53507254855
1622.9106155804966 5309.587518345003
1623.663079491087 5452.656058826748
1624.4153610409248 5536.294635947546
1625.1674602779385 5418.557502541902
1625.9193772500403 5334.124408830376
1626.6711120051277 5713.82015315566
1627.4226645910676 5535.530960743074
1628.174035055721 5432.1823291014
1628.9252234469168 5511.889074811919
1629.676229812474 5467.940534125564
1630.4270542001905 5805.305117541642
1631.1776966578382 5555.912788022221
1631.9281572331747 5502.242560058573
1632.678435973945 5851.3535228731225
1633.4285329278573 5614.07097688465
1634.1784481426203 5450.119702718399
1634.9281816659113 5650.460237465673
1635.677733545388 5873.556286690268
1636.4271038286934 5794.674363625585
1637.176292563452 5900.866598227028
1637.9252997972635 5935.7410619253615
1638.674125577716 6055.864688457305
1639.4227699523672 6309.47034173931
1640.171232968767 5785.272008669177
1640.9195146744423 6235.782843975663
1641.6676151168977 6365.000491997946
1642.4155343436178 6480.372223535722
1643.1632724020765 6279.562566553455
1643.9108293397167 6204.436634096951
1644.658205203974 6335.896936867602
1645.4054000422566 6868.059358165992
1646.1524139019566 6430.45829381787
1646.8992468304423 6350.902157048637
1647.6458988750728 6462.3736411329355
1648.3923700831765 6529.874422762541
1649.1386605020743 6537.703511758138
1649.8847701790564 6765.860697569314
1650.6306991614038 6635.95615694277
1651.3764474963682 6910.6923723398895
1652.1220152311944 6415.4377934210515
1652.867402413096 6818.271500439271
1653.6126090892776 6839.065941752568
1654.3576353069184 7083.739854933263
1655.1024811131829 6682.4738171086265
1655.8471465552066 6611.928737944445
1656.5916316801213 6905.932029815418
1657.3359365350298 6789.504161645539
1658.0800611670165 6593.000504662562
1658.824005623148 6618.11627160668
1659.5677699504722 6421.003000848249
1660.3113541960192 6662.4193443478525
1661.054758406799 6423.647325230043
1661.7979826297997 6283.901461705707
1662.5410269119966 6349.785873390416
1663.283891300338 6535.317050070074
1664.0265758417645 6201.655405301403
1664.7690805831826 6277.952977462031
1665.5114055714948 6248.675433747536
1666.2535508535748 6396.566337035943
1666.9955164762814 5891.01484905551
1667.7373024864555 5983.991574980489
1668.478908930916 6031.922077170018
1669.220335856462 6000.658233314522
1669.9615833098778 5680.533392294774
1670.7026513379296 5665.630109656113
1671.44353998736 5776.693371441185
1672.1842493048916 5871.046832602109
1672.9247793372379 5529.848703693184
1673.6651301310812 5673.557740488621
1674.4053017330934 5449.700884306817
1675.1452941899242 5564.479551412727
1675.885107548207 5143.226603762081
1676.6247418545518 5100.578156571921
1677.3641971555535 5194.569375948731
1678.1034734977893 5403.189454346228
1678.8425709278108 5182.40030112467
1679.5814894921605 5251.892746837799
1680.320229237359 5283.756742374
1681.0587902098978 5219.68461245066
1681.7971724562685 4949.419843969073
1682.5353760229264 4806.2302508054245
1683.2734009563173 5181.207143091189
1684.0112473028657 4894.405059776109
1684.7489151089794 4925.682356807228
1685.4864044210462 4912.347128242867
1686.2237152854377 4588.3927251858095
1686.960847748498 5062.125178312215
1687.6978018565642 4379.196625519562
1688.434577655944 4513.439503416838
1689.1711751929379 4413.088054474275
1689.9075945138156 4607.367707039719
1690.6438356648396 4506.246135479141
1691.3798986922448 4151.003039590626
1692.1157836422499 4321.224296806904
1692.851490561059 4219.711231857943
1693.587019494853 4410.763509771604
1694.3223704897991 4142.9219747295765
1695.0575435920364 4069.3559024637043
1695.792538847696 4452.625757081483
1696.527356302886 4076.3433280892764
1697.2619960036936 4021.260295529245
1697.9964579961907 3934.001642311467
1698.730742326432 3769.919307503618
1699.4648490404488 3813.648753485085
1700.1987781842563 3828.9394649199576
1700.9325298038548 4076.6522226818606
1701.6661039452174 4171.472889111803
1702.3995006543082 3994.3171086630596
1703.1327199770658 3970.5527233426064
1703.865761959416 3726.51306317438
1704.598626647261 4055.8746261244805
1705.3313140864866 3640.4568655710436
1706.0638243229587 3799.74835472237
1706.7961574025303 3960.8597431870753
1707.528313371029 3837.3905672480455
1708.260292274268 3584.323710616184
1708.9920941580403 3833.1846131362972
1709.7237190681226 3693.8526698375654
1710.4551670502697 3782.7532992151887
1711.18643815022 3448.7678645225037
1711.9175324136959 4011.5467059601915
1712.6484498863938 3723.289630128273
1713.379190614005 3549.115404380661
1714.109754642188 3642.931610045277
1714.8401420165883 3671.8030097537703
1715.570352782839 3689.073560696602
1716.3003869865497 3748.944251114043
1717.0302446733076 3501.3555308922923
1717.7599258886876 3561.184760847126
1718.4894306782444 3791.1824142910627
1719.2187590875183 3403.8534354951007
1719.9479111620203 3690.798553506041
1720.6768869472544 3531.587048140221
1721.4056864887025 3888.7821055411564
1722.1343098318284 3751.256734163413
1722.8627570220742 3556.5031796638323
1723.591028104871 3442.451852069782
1724.3191231256242 3322.8403792200793
1725.0470421297232 3472.7854418106604
1725.7747851625427 3630.9786529125763
1726.5023522694337 3533.847612305361
1727.2297434957363 3554.622198848336
1727.9569588867635 3303.158322283826
1728.6839984878152 3555.911611197789
1729.4108623441734 3176.82570439336
1730.1375505011038 3487.643444727156
1730.8640630038426 3386.0696462699225
1731.5903998976264 3321.1095491566584
1732.316561227657 3495.674830560165
1733.0425470391274 3288.9768122043884
1733.7683573772065 3420.398377326442
1734.4939922870508 3371.3462334857118
1735.2194518137949 3465.0747439888523
1735.9447360025606 3469.7361813125
1736.669844898439 3447.47052445042
1737.3947785465189 3237.1878195206436
1738.1195369918605 3218.680151974183
1738.8441202795093 3368.7912968695355
1739.5685284544943 3431.6732425714335
1740.292761561821 3456.1591279328836
1741.0168196464838 3465.193226058257
1741.7407027534518 3383.740386944657
1742.464410927687 3413.391834394465
1743.187944214118 3366.4497032676745
1743.9113026576688 3369.531533962814
1744.634486303241 3326.734346532818
1745.3574951957125 3334.088194251549
1746.0803293799509 3501.0011834976467
1746.8029889008048 3330.193800707913
1747.5254738031017 3374.341711444106
1748.2477841316504 3208.6628791996327
1748.969919931249 3279.117427873516
1749.6918812466665 3327.2676126273736
1750.4136681226646 3506.3824208920873
1751.1352806039777 3350.2998181303074
1751.856718735331 3037.2644697929577
1752.5779825614281 3130.679001919706
1753.2990721269507 3342.6067967379436
1754.0199874765676 3424.2638134705194
1754.7407286549314 3067.260511468818
1755.4612957066693 3236.726148992588
1756.1816886763954 3201.635447958074
1756.9019076087097 3329.4791930496312
1757.6219525481865 3315.5531120401115
1758.3418235393856 3269.1251843869627
1759.061520626854 3215.297745180781
1759.7810438551096 3350.8137147922307
1760.5003932686614 3063.0688426824154
1761.2195689119999 3477.750133010611
1761.938570829594 3313.8967222715423
1762.657399065898 3376.9493010101614
1763.376053665348 3076.603233033597
1764.0945346723602 3003.2858829980146
1764.812842131334 3428.065620365892
1765.5309760866512 3101.841104143683
1766.2489365826787 3062.874259096987
1766.9667236637597 3197.523021721249
1767.684337374223 2976.463448047358
1768.401777758383 3033.3011894014267
1769.1190448605284 3054.767691462737
1769.836138724937 3056.5728828516394
1770.5530593958665 3200.407262159525
1771.2698069175603 3462.8687986948266
1771.9863813342326 3271.2105104846883
1772.702782690094 3246.068788749214
1773.4190110293293 3284.380665887767
1774.1350663961111 3320.8875141114413
1774.8509488345844 3121.7868703283343
1775.5666583888924 3199.207871162554
1776.2821951031437 3304.544160633959
1776.9975590214362 3139.6881295961375
1777.7127501878585 3299.5072576317193
1778.4277686464684 3214.645404697158
1779.1426144413108 3340.6064337252974
1779.8572876164162 3341.863998210586
1780.571788215797 2963.6063256059665
1781.2861162834415 3217.1938169180926
1782.0002718633277 3115.0222616649303
1782.7142549994132 3155.9556807466674
1783.4280657356376 3167.034635664912
1784.141704115922 3016.6045882699973
1784.855170184177 3132.93059989838
1785.5684639842839 3195.101452359902
1786.2815855601148 2781.813783007137
1786.9945349555237 3300.81890258047
1787.707312214343 3026.369757631439
1788.4199173803918 3534.5210765949646
1789.132350497468 2935.8750121409184
1789.8446116093583 2955.849529586532
1790.556700759822 2919.1837930618517
1791.2686179926077 3117.713963120951
1791.9803633514493 3031.62998721677
1792.6919368800554 2879.258871022574
1793.4033386221236 3229.4055073178365
1794.1145686213295 3199.372776707268
1794.8256269213307 3247.7622870518817
1795.536513565774 3112.7548938779883
1796.247228598284 2839.7134769986205
1796.9577720624693 3047.0257757601184
1797.6681440019165 3155.312900297693
1798.3783444602013 3075.3947229237488
1799.0883734808776 3266.017669829112
1799.7982311074884 3103.3499451600146
1800.5079173835475 3115.8524575787333
1801.2174323525633 3164.491005413067
1801.9267760580187 3008.211158187519
1802.635948543386 3108.5819691566744
1803.3449498521113 2948.494245583143
1804.0537800276325 2989.21228174515
1804.7624391133668 2995.1956903423
1805.47092715271 2761.7879761414624
1806.1792441890484 2926.9048300987934
1806.8873902657433 3063.2840578887817
1807.5953654261448 2985.745767189336
1808.3031697135812 2935.555308837997
1809.0108031713662 2897.754224177413
1809.71826584279 2924.726353329022
1810.425557771141 3060.681824031898
1811.1326789996747 3429.0479099195727
1811.839629571632 3010.044769052437
1812.5464095302468 2968.1804221003626
1813.2530189187182 2979.5380662187936
1813.959457780249 3065.099735383984
1814.6657261580076 3037.143505398083
1815.371824095153 3005.005130487676
1816.0777516348262 3072.3467029575504
1816.78350882015 2605.602077814388
1817.4890956942272 2718.1732716543574
1818.1945123001533 2958.998220130784
1818.8997586809928 3074.534432387963
1819.6048348798067 2836.631919898551
1820.3097409396287 2959.7277700473833
1821.0144769034796 3254.7883627068595
1821.7190428143622 3031.384565938391
1822.423438715261 3096.387763766863
1823.1276646491478 2878.2687437383497
1823.8317206589727 3024.424980886879
1824.5356067876692 3065.520965258139
1825.2393230781581 3018.320182727919
1825.942869573335 2748.3042206382884
1826.646246316086 2780.003103485558
1827.3494533492758 2974.880131084204
1828.052490715756 2907.4627303875413
1828.7553584583547 3013.402718881099
1829.458056619891 3049.6351290522407
1830.1605852431585 2814.9143904913785
1830.8629443709433 2725.8511257459
1831.5651340460063 2815.473463054834
1832.2671543110919 2789.8468826990124
1832.9690052089318 2993.7739287020454
1833.6706867822395 2788.8521260106213
1834.3721990737104 2963.9674580513274
1835.0735421260233 3069.5860992897797
1835.774715981841 2877.2552177888415
1836.4757206838058 3181.5633427255552
1837.1765562745459 2912.318192758731
1837.8772227966747 2862.332946873144
1838.5777202927839 2835.971821824693
1839.2780488054523 2885.304741737552
1839.9782083772352 2760.698747383514
1840.6781990506806 3213.864348160521
1841.378020868313 2859.533359201978
1842.0776738726418 2799.3906205998655
1842.777158106157 2678.420874101991
1843.4764736113375 2787.659221078983
1844.1756204306403 2909.6954874761173
1844.8745986065078 2922.316238869998
1845.5734081813607 2792.5480459997952
1846.2720491976124 2744.0700433943553
1846.970521697649 2809.0981821641903
1847.6688257238511 2926.268406720825
1848.3669613185684 2801.9553757883937
1849.0649285241452 2603.5928939657974
1849.7627273829057 2860.1910303618474
1850.460357937156 2820.28830909477
1851.1578202291857 2555.225495339516
1851.8551143012664 2866.941509612503
1852.5522401956569 2819.2404813021412
1853.2491979545957 3041.6354907128384
1853.9459876203055 2689.3675786317895
1854.6426092349902 2738.8239890534205
1855.3390628408451 2647.306388380535
1856.0353484800362 2986.4376004806554
1856.7314661947203 2937.723436664751
1857.4274160270397 2687.7018285772187
1858.123198019115 2816.9483473545283
1858.8188122130487 2745.6199252401143
1859.5142586509319 2723.5272758857227
1860.209537374838 2725.649694112274
1860.9046484268183 2746.827895351779
1861.599591848917 3115.245141546603
1862.294367683151 2814.372043645912
1862.988975971528 2774.688529287875
1863.6834167560355 2898.475167659596
1864.3776900786452 2971.918617797602
1865.0717959813119 2698.71106468301
1865.7657345059724 2676.2442099048976
1866.4595056945564 2901.604527691847
1867.1531095889586 2840.1268253336984
1867.846546231076 2571.5346217830593
1868.5398156627743 2996.1721528701287
1869.2329179259123 2734.380688544497
1869.9258530623283 2931.2429658368783
1870.618621113843 2751.314207089724
1871.3112221222636 2607.8636617069683
1872.0036561293764 2645.030885550061
1872.695923176956 2862.3804859980637
1873.3880233067594 3000.863755505965
1874.0799565605212 2585.872289734098
1874.7717229799673 2708.5525558937356
1875.4633226068036 2980.4742081828417
1876.1547554827175 2839.941788641788
1876.8460216493859 2701.845150765709
1877.5371211484617 2742.050831444418
1878.2280540215852 2998.1219875254915
1878.9188203103804 2520.711606779051
1879.6094200564548 2707.8412024192858
1880.299853301396 2659.3901493539593
1880.9901200867826 2863.701495226559
1881.6802204541673 2892.478586003153
1882.3701544450942 2795.9623806951936
1883.059922101087 2596.114262908604
1883.7495234636517 2599.7116633082333
1884.4389585742792 2603.270581305932
1885.1282274744517 2613.927922721927
1885.8173302056166 2693.6861481816495
1886.506266809225 2773.5550619197484
1887.195037326701 2609.373093328831
1887.8836417994517 2684.458290778627
1888.5720802688702 3078.014106535188
1889.260352776333 2912.9874264551913
1889.9484593632042 2920.6037260823427
1890.63640007082 2589.5431262487236
1891.3241749405151 2553.9746608707856
1892.0117840135954 2792.1647835127887
1892.6992273313572 2693.8743346878778
1893.3865049350788 2556.738827636801
1894.0736168660223 3043.8286225242987
1894.7605631654333 2822.843310209191
1895.4473438745408 2500.457594295557
1896.133959034556 2982.8104187700087
1896.820408686679 2799.690741848086
1897.506692872088 2999.992128373006
1898.192811631945 2699.968153361514
1898.8787650073991 2766.6342361955285
1899.5645530395832 2824.4260096958405
1900.2501757696118 2801.8876396832275
1900.9356332385796 2404.5117600809963
1901.620925487574 3067.3634007584824
1902.3060525576602 2833.307131955509
1902.9910144898859 2797.0091159629164
1903.6758113252872 2621.698194966586
1904.3604431048789 2666.386529052278
1905.0449098696663 2866.135756493675
1905.7292116606295 2733.4008647971373
1906.4133485187394 2737.337813450148
1907.0973204849488 2337.165721034634
1907.7811276001976 2434.8418052027846
1908.4647699053967 2676.468970710302
1909.1482474414588 2098.6606433838233
1909.8315602492694 2563.268292364004
1910.5147083696957 2843.0069453687947
1911.1976918436012 2673.4474048997595
1911.880510711815 2555.0088707227483
1912.5631650151681 2488.3112064359057
1913.2456547944657 2421.447300268198
1913.927980090495 2641.7219074097857
1914.6101409440362 2589.144013173578
1915.2921373958416 2853.284715035907
1915.9739694866603 2628.029098331786
1916.655637257214 3053.608731869018
1917.3371407482136 2735.6689974778315
1918.0184800003572 2832.207008772007
1918.6996550543154 2830.556704140399
1919.3806659507554 2718.3976716515617
1920.0615127303208 2756.3151001305446
1920.7421954336423 2768.135310504006
1921.4227141013343 2907.1679696569568
1922.103068773993 2676.2705112006633
1922.783259492202 2789.344372900031
1923.4632862965227 2773.266917967257
1924.1431492275078 2572.898735841887
1924.8228483256917 2528.043258863331
1925.5023836315922 2590.503769542402
1926.1817551857057 2314.3489178373047
1926.8609630285227 2925.2705095980486
1927.5400072005123 2622.977505750185
1928.218887742125 2616.9298607265373
1928.8976046938005 2521.1146106333686
1929.5761580959588 2615.6189103155675
1930.2545479890086 2590.3500282371506
1930.9327744133352 2451.440924093241
1931.6108374093164 2717.787087044185
1932.2887370173066 2975.345922864136
1932.9664732776473 2420.4968391017414
1933.6440462306673 2623.3862077144922
1934.3214559166754 2669.722686198765
1934.9987023759659 2809.7452845141815
1935.675785648813 2678.173254908121
1936.3527057754836 2259.032116416028
1937.029462796223 2382.426195912659
1937.70605675126 2506.139350996137
1938.3824876808085 2474.6617196461925
1939.058755625072 2703.1437810837965
1939.7348606242267 2519.3734875696236
1940.4108027184448 2604.3633505197968
1941.0865819478713 2777.4591226850216
1941.7621983526478 2529.9984532922354
1942.4376519728921 2474.4570096923876
1943.1129428487038 2651.746438735489
1943.7880710201734 2643.1493394467134
1944.4630365273733 2732.4727951292434
1945.1378394103576 2497.7215809897652
1945.8124797091714 2450.17122305317
1946.4869574638324 2402.440770921444
1947.161272714353 2476.106663484782
1947.8354255007234 2737.183794514661
1948.5094158629272 2552.157110604279
1949.1832438409183 2728.5790037880283
1949.8569094746435 2688.4207472109533
1950.530412804037 2897.2470314416482
1951.2037538690092 2732.0234063614375
1951.8769327094578 2453.8529362731415
1952.5499493652678 2505.502911508869
1953.222803876306 2860.540775963941
1953.895496282421 2601.917408044522
1954.5680266234522 2671.9508936803873
1955.2403949392155 2635.7396627446205
1955.9126012695142 2348.7792293123007
1956.5846456541403 2614.710047495135
1957.2565281328643 2565.6283082204027
1957.9282487454457 2733.476403014026
1958.5998075316202 2914.384909355188
1959.27120453112 2471.3723524092975
1959.9424397836501 2547.766697127187
1960.613513328908 2794.8574596570434
1961.2844252065697 2786.309466676879
1961.9551754563017 2362.4259613145427
1962.6257641177453 2429.974977656034
1963.29619123054 2411.975931011565
1963.966456834296 2421.372271666876
1964.6365609686181 2355.883488433744
1965.306503673086 2703.856450095126
1965.976284987275 2492.468583970909
1966.645904950734 2614.002723247778
1967.315363603002 2294.6889666475436
1967.9846609836077 2484.1288759973872
1968.6537971320486 2524.548476034787
1969.3227720878222 2624.1320712399784
1969.9915858904042 2523.2224265259983
1970.660238579252 2681.1687507904558
1971.3287301938108 2508.2637566261674
1971.997060773514 2354.2353466328545
1972.665230357772 2479.3750752440274
1973.3332389859843 2494.057220432462
1974.0010866975335 2385.0999334689554
1974.6687735317864 2547.8682280343337
1975.3362995280932 2658.299661625156
1976.003664725793 2676.394520408402
1976.6708691642052 2261.777192832852
1977.3379128826364 2581.727278081328
1978.004795920373 2665.9484452061847
1978.6715183166925 2900.59244741932
1979.3380801108524 2362.975884511282
1980.0044813420973 2609.7486502007605
1980.6707220496555 2183.2966545724244
1981.3368022727373 2600.3893203462294
1982.0027220505417 2687.4777994204296
1982.66848142225 2115.600583607221
1983.3340804270283 2513.203504823938
1983.999519104027 2612.953032378125
1984.6647974923835 2601.5519425631915
1985.329915631215 2674.475655514408
1985.99487355963 2459.9017271043185
1986.6596713167146 2616.1684532742615
1987.3243089415428 2394.8764544506275
1987.9887864731754 2791.1280983374395
1988.6531039506553 2353.5701260534906
1989.3172614130071 2373.2543367864223
1989.9812588992481 2393.0098862380537
1990.645096448372 2196.854878720892
1991.3087740993633 2475.277111068931
1991.9722918911848 2445.1249672978943
1992.635649862792 2574.2129157987342
1993.2988480531185 2473.0981018323187
1993.9618865010852 2864.8312686941454
1994.6247652455968 2392.6376641917886
1995.287484325545 2409.4989545975873
1995.9500437798033 2427.5353997523644
1996.6124436472292 2346.6800107039357
1997.2746839666706 2610.1529030307956
1997.936764776954 2335.9774018922644
1998.598686116895 2415.6340513691193
1999.2604480252903 2692.3841261737143
1999.9220505409212 2731.405417352208
2000.5834937025593 2224.4240847612846
2001.2447775489582 2494.281999596664
2001.9059021188514 2625.401046546104
2002.5668674509616 2242.041507914999
2003.2276735839987 2385.1319332171875
2003.8883205566508 2689.365260568699
2004.5488084075987 2399.8089407297834
2005.2091371755014 2513.1235835336092
2005.8693068990033 2175.5684341275746
2006.5293176167397 2215.6376110385295
2007.1891693673224 2255.9750745078136
2007.848862189354 2290.3670703658554
2008.5083961214223 2434.0846706919065
2009.1677712020955 2350.577153424405
2009.8269874699254 2334.6985130039725
2010.4860449634598 2258.9831964195914
2011.1449437212177 2183.2025722032295
2011.8036837817108 2603.312917353265
2012.4622651834325 2536.9512853021333
2013.1206879648653 2644.523931855118
2013.7789521644736 2681.0912368296486
2014.4370578207036 2137.3338902816254
2015.0950049719922 2454.414860438577
2015.7527936567585 2504.491257017224
2016.4104239134067 2292.6793444621094
2017.067895780323 2220.8566857676065
2017.725209295886 2148.7646896441997
2018.3823644984514 2678.9068240767056
2019.0393614263648 2520.047240906315
2019.6962001179545 2364.9775474552252
2020.3528806115355 2628.0407215635887
2021.0094029454067 2501.49895254681
2021.6657671578487 2185.626835078151
2022.321973287133 2398.329661619756
2022.9780213715148 2297.9426825007895
2023.6339114492293 2400.1163214161556
2024.2896435585026 2431.843365225057
2024.9452177375442 2408.916406805279
2025.600634024544 2609.1457337995516
2026.2558924576842 2448.3962416536724
2026.9109930751292 2549.9581828260934
2027.565935915025 2374.496433894662
2028.2207210155066 2784.4790797497344
2028.8753484146964 2792.450363159803
2029.529818150695 2709.952266690899
2030.1841302615903 2627.0119279513433
2030.8382847854573 2306.5517004574294
2031.4922817603601 2508.8786241837133
2032.1461212243357 2449.6790201556064
2032.7998032154192 2101.62716712687
2033.4533277716218 2273.9548170329463
2034.1066949309443 2218.932332446561
2034.7599047313688 2262.5828839596315
2035.4129572108704 2557.080944101155
2036.0658524074006 2409.228523374532
2036.7185903589016 2493.7349766295492
2037.3711711032956 2471.4913505464724
2038.023594678496 2383.156481381934
2038.675861122394 2339.09923107357
2039.3279704728757 2784.1948683260744
2039.9799227678031 2302.3419906737718
2040.6317180450278 2295.246168948483
2041.2833563423865 2425.9012493506193
2041.9348376977014 2699.19155894168
2042.5861621487784 2666.9079486437236
2043.2373297334088 2353.486841616845
2043.8883404893695 2493.2758876953912
2044.5391944544208 2509.139306472909
2045.1898916663158 2687.987300813122
2045.8404321627804 2647.6022468156384
2046.4908159815368 2305.7621442677623
2047.1410431602853 2365.4469672841
2047.7911137367173 2181.8167528506865
2048.441027748504 2153.19546347985
2049.090785233302 2124.4661896454136
2049.7403862287592 2312.863781126115
2050.389830772503 2203.3075515430514
2051.0391189021466 2093.7104069048387
2051.688250655294 2453.416600332361
2052.337226069527 2268.176098166518
2052.986045182417 2553.3554456813863
2053.634708031521 2497.857235515512
2054.283214654375 2442.438793700667
2054.931565088511 2032.7325374064828
2055.579759371436 2157.6004926535707
2056.2277975406523 2345.868131856287
2056.8756796336384 2631.4901184898067
2057.5234056878617 2153.2261729715483
2058.1709757407752 2283.310638335207
2058.8183898298194 2651.0359880150836
2059.465647992416 2500.9316277924186
2060.1127502659747 2653.10697211411
2060.759696687888 2120.7934108693366
2061.4064872955405 2416.8237005488836
2062.053122126292 2172.930406476437
2062.699601217497 2455.119456215524
2063.345924606485 2240.335477009178
2063.992092330587 2393.099042433075
2064.638104427102 2289.6030250636313
2065.283960933324 2619.766990234105
2065.92966188653 2252.8754397130515
2066.5752073239855 2644.7128839445686
2067.2205972829397 2190.025418569615
2067.86583180062 2441.1894844050535
2068.5109109142522 2221.5701694326744
2069.15583466104 2327.3259050878014
2069.8006030781708 2238.442423111098
2070.445216202821 2307.83672071809
2071.089674072153 2328.260196648692
2071.7339767233116 2575.641327496533
2072.3781241934303 2372.6076235302116
2073.0221165196253 2608.8967811278153
2073.6659537390024 2234.5114632517175
2074.3096358886505 2456.296333469213
2074.953163005637 2344.5681074251743
2075.596535127028 1974.1999713077453
2076.2397522898664 2204.4291128193054
2076.882814531182 2446.417493805654
2077.5257218879924 2494.9875217859512
2078.1684743973 2248.814919957263
2078.8110720960885 2162.9818834080716
2079.453515021336 2607.567848862073
2080.095803209997 2441.290844451476
2080.7379366990135 2372.4723626046853
2081.37991552532 2530.126156039096
2082.0217397258275 2461.1878001885893
2082.6634093374414 2081.3195495007035
2083.3049243970418 2391.2323977467363
2083.9462849415067 2513.7641511315455
2084.587491007689 2424.3925394220537
2085.2285426324324 2486.3168304104433
2085.869439852564 2297.744431708867
2086.510182704902 2247.6991244452065
2087.1507712262483 2295.9619234390316
2087.791205453381 2046.5336881288981
2088.4314854230743 2403.0295609786353
2089.0716111720867 2406.158667900227
2089.7115827371617 2116.6523337583017
2090.351400155023 2139.4015296649604
2090.991063462385 2162.299854287577
2091.6305726959527 1953.6182663206775
2092.2699278924047 2369.4576653896365
2092.9091290884153 2221.4343869558074
2093.548176320641 2074.31204209554
2094.187069625721 2459.0253022205466
2094.8258090402887 1958.270888543427
2095.464394600951 2346.0481080810123
2096.102826344313 2350.9827043745563
2096.741104306955 2552.1191224873
2097.379228525453 2064.5648551123054
2098.017199036358 1995.0451016380327
2098.6550158762147 2577.1266443618993
2099.2926790815527 2424.196992279737
2099.9301886888825 2359.4833048886962
2100.5675447347076 2171.6244556496104
2101.2047472555114 2448.5433455023617
2101.841796287761 2185.717320636191
2102.47869186792 2347.0061805630558
2103.1154340324265 2119.1678779630715
2103.752022817709 2197.559564172434
2104.388458260184 2227.344152106804
2105.024740396251 2365.6380287823863
2105.660869262292 2127.3604891266195
2106.296844894685 2492.8048140079973
2106.93266732978 2334.322481701736
2107.5683366039284 2221.00764447666
2108.2038527534532 2306.407573783765
2108.8392158146726 2464.0572663249177
2109.4744258238843 2131.974449577853
2110.1094828173755 2143.1191041817647
2110.744386831422 2578.313391143623
2111.3791379022787 2281.3862861379134
2112.01373606619 2564.593212288716
2112.648181359389 2328.54769546918
2113.28247381809 2473.2556619633733
2113.916613478492 2374.552029830019
2114.550600376786 2411.435831692514
2115.1844345491445 2177.2619868978254
2115.818116031729 2128.5712954615974
2116.451644860679 2332.972818738811
2117.085021072133 2168.2744812537035
2117.718244702204 2111.7500278615303
2118.3513157869984 2219.8985098916655
2118.984234362604 2079.985340456424
2119.617000465092 2186.882142319361
2120.249614130529 2669.774616948148
2120.8820753949585 2345.948906803281
2121.5143842944162 2159.0271473529983
2122.14654086492 2202.68414469001
2122.7785451424734 2326.4996177816397
2123.4103971630702 1904.7247892811351
2124.042096962681 2398.4096376282814
2124.6736445772767 2452.1080728366123
2125.305040042802 2149.2195821257365
2125.936283395191 2157.090014572143
2126.567374670365 2332.011185721577
2127.198313904233 2194.784220664218
2127.8291011326855 2120.268291556729
2128.4597363916037 2045.344499108832
2129.0902197168507 2249.7879892303054
2129.720551144279 1975.3245706073744
2130.3507307097225 2677.7308395792684
2130.980758449008 2608.4317151382556
2131.6106343979427 2575.0604815700754
2132.2403585923203 2541.5183741018786
2132.8699310679276 2539.0479788823604
2133.499351860526 2336.7606861157287
2134.1286210058715 2179.2516136429845
2134.7577385397053 2326.598902901401
2135.3867044977487 2474.212228763913
2136.0155189157176 2549.5765054533827
2136.644181829308 2545.0690010139942
2137.2726932742025 2306.382882306897
2137.901053286074 2606.709557342344
2138.5292619005777 2054.138450668992
2139.1573191533535 2151.4169604922226
2139.7852250800315 2441.297774744956
2140.4129797162295 2307.6242945848376
2141.0405830975433 2140.986600441128
2141.6680352595613 2056.6500532816726
2142.2953362378576 1972.1753186839537
2142.9224860679915 2164.8651311802637
2143.549484785508 2153.0725282412013
2144.1763324259373 2179.2182172007033
2144.803029024799 2150.8690863249603
2145.429574617594 2150.260355469477
2146.0559692398165 2292.92564883859
2146.682212926942 2187.944637128519
2147.308305714432 2308.8826563597167
2147.9342476377333 2473.079475037125
2148.5600387322847 2569.964458139405
2149.185679033506 2311.7649879569026
2149.8111685768017 2245.7760937623116
2150.4365073975678 2066.409683086482
2151.061695531187 2114.1433151858478
2151.686733013021 2592.6681441144524
2152.311619878423 2229.6100759622523
2152.9363561627342 2208.895687694887
2153.560941901278 2047.1010950048324
2154.1853771293663 2337.561695286055
2154.809661882293 2433.1339054425544
2155.433796195348 2698.0685093193615
2156.0577801037944 2553.6646337876264
2156.681613642895 2408.8609077016495
2157.3052968478896 1984.0437791459015
2157.928829754006 2319.306785579596
2158.552212396462 2351.1270152193083
2159.1754448104566 2385.7179510630185
2159.7985270311783 2111.332241103617
2160.4214590938027 1705.3043191495658
2161.0442410334927 1745.3325287698674
2161.6668728853874 1857.8911089001062
2162.289354684628 1970.730901295738
2162.911686466332 2110.972176202794
2163.533868265602 2367.9793717363464
2164.1559001175337 2526.846534383745
2164.7777820572046 2308.396016801455
2165.399514119681 2321.8922575379083
2166.021096340013 2039.1673155716283
2166.6425287532384 2454.262371468038
2167.263811394385 2069.86048808298
2167.8849442984574 2077.0099773625543
2168.505927500455 2084.3877025887623
2169.126761035366 2363.5360757375474
2169.7474449381552 2114.233291124411
2170.367979243778 1802.928484317075
2170.9883639871823 2477.7239333968223
2171.608599203293 2012.6245574072104
2172.2286849270276 2646.1775858623414
2172.8486211932886 2773.3973859268385
2173.4684080369625 2359.2983418809245
2174.0880454929265 1945.3770515754993
2174.7075335960417 2020.4501463611468
2175.3268723811543 1968.0831806571573
2175.9460618831 1915.6133872291277
2176.565102136701 2236.309762369858
2177.1839931767627 2245.2195269213485
2177.802735038078 2254.185085649794
2178.421327755432 2109.412811161789
2179.0397713635866 2034.8651323688869
2179.658065897298 2189.6135171132723
2180.276211391305 2225.709725367581
2180.8942078803357 2101.2319219448245
2181.5120553991 2271.0453089486
2182.129753982299 1962.4863571375693
2182.7473036646206 2025.0914405019626
2183.3647044807367 2159.118188019937
2183.9819564653044 1923.51914048234
2184.599059652968 2237.0663147748683
2185.216014078367 2363.9228567388623
2185.832819776113 2391.1013608520275
2186.4494767808137 2418.207566453495
2187.065985127063 2124.388036885108
2187.682344849436 2083.110626897069
2188.298555982501 2384.645812810918
2188.9146185608097 2127.4052446315027
2189.530532618901 2297.5370899083514
2190.1462981912937 2351.0485490041583
2190.761915312507 2295.8854089449
2191.377384017036 2141.32225002932
2191.9927043393654 2122.8722658305937
2192.6078763139667 1841.168561475096
2193.2228999753006 2001.4245605945246
2193.837775357808 2162.039456247504
2194.452502495922 1734.5623203276523
2195.0670814240602 2191.1070701260546
2195.6815121766285 1779.2176497324726
2196.2957947880186 1784.4400541678283
2196.9099292926057 1789.6792119174243
2197.523915724758 2268.777454103736
2198.137754118825 2119.733708293595
2198.7514445091456 2517.6595016851866
2199.3649869300443 2543.3123201099525
2199.9783814158327 2569.1318668642893
2200.5916280008096 2436.7124388085394
2201.2047267192593 2360.805343670489
2201.8176776054515 2218.175061033752
2202.430480693649 1943.3009754570007
2203.0431360180955 2261.405881673544
2203.6556436130195 2359.046830953338
2204.268003512645 1811.6009394499713
2204.8802157511727 2062.6146986367394
2205.492280362796 2554.884434795325
2206.1041973816937 2250.635525102495
2206.715966842032 2283.3849730421334
2207.3275887779655 2064.7834113127947
2207.93906322363 2158.90087961979
2208.550390213153 2331.771007013559
2209.1615697806465 2280.587996057783
2209.7726019602105 1929.9905938393822
2210.3834867859277 1972.2539742127578
2210.9942242918787 2082.076514652364
2211.6048145121167 2090.0982604960636
2212.2152574806914 2810.3023165011286
2212.825553231638 1984.4099118227168
2213.435701798975 2778.9426857378153
2214.045703216707 2170.584949101295
2214.655557518832 1798.2512656412423
2215.2652647393297 1802.6926356472468
2215.874824912169 1713.7384011580264
2216.4842380713 2144.808793576309
2217.09350425067 1807.4654132171404
2217.7026234842033 2386.634348296772
2218.311595805819 2237.0362941572066
2218.9204212494133 2011.2745823543141
2219.52909984888 2562.5024874608744
2220.137631638092 2457.9053543356786
2220.7460166509154 2352.9358503776143
2221.354254921198 1781.6481161252195
2221.9623464827764 2163.6343545697296
2222.5702913694713 2109.615584090884
2223.178089615096 2485.4204203785343
2223.7857412534486 2135.1334396394386
2224.39324631831 1704.9524007292694
2225.000604843457 1839.1380686628472
2225.607816862641 2272.19478647406
2226.214882409611 2126.7061844106674
2226.8218015180973 2287.2500181767123
2227.4285742218217 2090.619998866441
2228.0352005544864 2028.1936422713195
2228.6416805497847 1800.541574960207
2229.248014241399 1888.4066489678323
2229.8542016629945 1887.9538335638917
2230.460242848223 2296.493122919047
2231.0661378307304 2080.162314877129
2231.671886644139 1863.6341976003375
2232.277489322065 1771.8199204641435
2232.8829458981127 1617.401194418681
2233.48825640587 1932.660808342593
2234.0934208789095 2161.7321677664127
2234.6984393507955 2391.142854662238
2235.3033118550793 2165.41603679285
2235.9080384252975 1983.2019891426614
2236.5126190949723 1938.011898826669
2237.1170538976166 2027.2199429982963
2237.721342866729 1977.6991021702656
2238.32548603579 1928.1002476412589
2238.9294834382763 2060.00441319721
2239.533335107646 2137.858989788858
2240.1370410773434 2085.2615626131847
2240.740601380803 1857.8792793226355
2241.3440160514474 1979.824597222154
2241.9472851226783 2300.502427604273
2242.550408627896 2065.481573789257
2243.1533866004793 2432.4947612287915
2243.756219073799 2095.5491283376455
2244.3589060812064 2107.715243225251
2244.961447656049 1815.7317994680732
2245.5638438316564 2080.4985884930666
2246.166094641343 2070.630855498601
2246.7682001184166 1908.2616762406385
2247.3701602961664 2089.5170124946944
2247.971975207871 2225.132843770187
2248.5736448867974 2276.3086086531284
2249.175169366197 1982.577914517342
2249.7765486793123 2104.8369379386986
2250.3777828593684 2267.365927235657
2250.9788719395783 2027.619029849296
2251.579815953146 2079.710551684652
2252.1806149332606 1903.462200193456
2252.781268913097 2109.1929993692142
2253.381777925817 1928.189160548881
2253.9821420045737 2156.5950129228095
2254.5823611825035 2141.4874755888054
2255.1824354927303 2048.5674038119773
2255.782364968365 1932.3680312305046
2256.38214964251 1816.0680427610307
2256.9817895482483 1967.422143322397
2257.5812847186553 1950.9359511600298
2258.180635186791 1914.9583993811914
2258.779840985704 2015.8233625540502
2259.37890214843 1898.6852993222778
2259.97781870799 2042.725147990357
2260.5765906973957 2187.039325709916
2261.175218149645 2074.306848403889
2261.773701097718 2391.801572919329
2262.3720395745895 2076.388820396668
2262.970233613216 1922.258095493382
2263.568283246548 1969.181464947409
2264.1661885075137 1706.9907380543118
2264.763949429038 2076.661399166057
2265.3615660440246 2375.500935690299
2265.959038385374 2366.530760076806
2266.5563664859637 2357.6081021751875
2267.153550378669 1942.7633323502716
2267.7505900963424 2204.6477196814794
2268.3474856718312 2025.377626795464
2268.9442371379664 2001.436658356183
2269.5408445275643 2005.0259378747269
2270.1373078734377 2140.093785450438
2270.7336272083758 1903.7490941420535
2271.32980256516 1907.2955132228217
2271.925833976562 2022.6990379802232
2272.5217214753357 1914.2680074373445
2273.117465094223 1805.581415919583
2273.7130648659586 1833.4903509671233
2274.308520823257 1809.1197289622519
2274.903832998827 2135.916452607826
2275.4990014253563 1911.31925595021
2276.094026135528 2214.0964803054553
2276.6889071620117 1924.1560878725954
2277.2836445374614 2227.3334507426785
2277.878238294519 2055.8431600998424
2278.472688465812 1850.6901331954919
2279.066995083962 1645.1648672643726
2279.6611581815705 2015.4789630096795
2280.255177791232 1970.4287808438542
2280.8490539455233 2106.350110665543
2281.442786677013 2242.623248577696
2282.0363760182554 2300.7112632068192
2282.6298220017943 1851.2945022435865
2283.223124660155 1877.4185089252774
2283.816284025859 1903.7004978394702
2284.4093001314086 2334.0969802904883
2285.002173009292 1757.9376124167497
2285.5949026919952 2190.7805280999128
2286.1874892119777 1911.0248273270536
2286.7799326016993 2145.514386663477
2287.3722328936 1850.7268938713974
2287.964390120109 1654.3219655274793
2288.556404313642 2232.1461066205084
2289.1482755066027 2454.6759281540626
2289.7400037313873 1846.2607926887667
2290.3315890203703 1884.0160830467862
2290.9230314059205 2179.34365585809
2291.5143309203904 2023.0402290344841
2292.1054875961236 1945.688603257122
2292.6965014654506 2585.820132166419
2293.287372560684 1971.6450547491709
2293.878100914131 1905.4690454643337
2294.468686558086 1839.2130673338554
2295.059129524827 1796.7043251318605
2295.649429846617 1883.0674088481387
2296.239587555716 1969.563742459192
2296.8296026843636 2059.3278450694816
2297.419475264791 2035.7522526048622
2298.0092053292137 2012.0064201673508
2298.598792909839 2418.4887560532707
2299.1882380388597 2492.411066529741
2299.777540748455 2566.2747937058853
2300.3667010707904 2096.526178768395
2300.9557190380256 2521.2955531847156
2301.544594682302 2569.22118635321
2302.1333280357503 2361.796497084274
2302.721919130485 2154.190364014403
2303.3103679986198 2234.288985893727
2303.898674672242 2359.7580490986156
2304.486839183437 2012.2520340354095
2305.0748615642697 2052.8353823116904
2305.6627418468015 2066.2688990049883
2306.2504800630704 2044.335006410928
2306.8380762451143 2229.4149181336043
2307.425530424949 2219.8362272087006
2308.012842634582 2210.2182593882726
2308.6000129060103 2574.6047722812714
2309.187041271214 2673.393008974044
2309.773927762164 2491.0726168661804
2310.3606724108213 2308.3888960464983
2310.9472752491274 1840.0040020332315
2311.5337363090184 2224.261164394608
2312.120055622414 2019.455224908236
2312.706233221221 1827.2349321150668
2313.2922691373424 1655.8160618503175
2313.8781634026564 1846.509191383023
2314.463916049037 2037.639908036322
2315.049527108342 2107.508650042503
2315.6349966124235 2437.6367817479377
2316.2203245931123 2300.361973316133
2316.8055110822315 2153.6360853519077
2317.3905561115935 2006.5369740444548
2317.9754597129977 1967.424161762648
2318.560221918229 1851.2463769489036
2319.1448427590603 1734.8451985514803
2319.729322267256 1882.9497410360486
2320.313660474563 1863.6799949289496
2320.8978574127195 2044.1264580861384
2321.481913113452 2225.152411206438
2322.0658276084705 2038.0485908649175
2322.6496009294806 1965.7505801443135
2323.233233108165 2160.959249756371
2323.8167241762058 2117.085611893555
2324.4000741652617 2202.191121378413
2324.983283106987 2399.926565394285
2325.5663510330232 2486.9196519227544
2326.1492779749933 2232.006235476713
2326.7320639645204 2136.4026443874513
2327.3147090332004 1863.230772316699
2327.897213212629 1938.8599917808383
2328.4795765343843 2014.445681417153
2329.0617990300307 1794.268108011584
2329.643880731124 1922.2413796775115
2330.22582166921 2050.4790094794193
2330.807621875816 1844.5416271954105
2331.3892813824623 1638.4330042212473
2331.9708002206517 1658.5930100190956
2332.5521784218818 1835.9992333983432
2333.133416017634 2013.846028361549
2333.7145130393765 1910.4572191541015
2334.295469518571 2151.036524429733
2334.876285486658 2259.1298112948125
2335.456960975076 2267.6084090392133
2336.037496015242 2276.1452355024276
2336.6178906385667 2061.415617380197
2337.198144876451 2087.8102884526393
2337.778258760278 1956.46657239013
2338.3582323214214 1584.3765846325855
2338.938065591243 1997.1200346384453
2339.517758601087 2300.5770420751805
2340.0973113822965 2177.2751213730585
2340.676723966193 2008.7853357900658
2341.255996384094 2273.299236122895
2341.835128667295 2431.172777857335
2342.4141208470883 2232.939403621738
2342.992972954751 2013.5265385954692
2343.5716850215467 2187.202773594021
2344.1502570787306 1295.6065114227117
2344.7286891575386 1838.776466489417
2345.3069812892045 2440.1777897063116
2345.885133504944 2269.8653391949506
2346.4631458359618 1799.6418097320504
2347.04101831345 1826.9696791605597
2347.6187509685915 1807.187487318843
2348.196343832553 1994.9416336865495
2348.7737969364935 2121.8336304896825
2349.351110311558 1904.835177959151
2349.9282839888765 1771.5085415044055
2350.5053179995757 1725.5331333675408
2351.0822123747585 1674.3263440435326
2351.658967145526 1749.2584648580244
2352.2355823429643 1824.4188349889841
2352.812057998144 2099.875147046921
2353.3883941421263 1740.0624754330179
2353.9645908059647 2051.330212186987
2354.540648020693 1775.3855165586574
2355.116565817336 1650.4409185191955
2355.6923442269126 1815.4488370355243
2356.2679832804224 1980.8084772854895
2356.8434830088518 2051.885839223122
2357.41884344318 1882.331361949685
2357.994064614377 1993.1457442855728
