#exp_cfg={"servo_angle": 0.0, "laser_lim": 100.0, "servo_angle_to": 18.0, "laser_wup": 0.0, "bt_dev": "EnSpectr-25AE3", "laser_wdn_max": 0.0, "frames": 10.0, "servo_used": 0, "servo_calib_use": 0, "laser_wdn_min": 0.0, "servo_pix_from": 90.0, "cooler_tout": 300.0, "servo_angle_from": 0.0, "servo_calib": "[-1.9174921013161362e-09, 3.9322238269163779e-05, -0.27385609119055809, 653.59552119713567]", "laser_autoctl": 0, "servo_pix_to": 3682.0, "laser_pw": 100.0, "cooler_on": 0, "laser_volt": 4.0, "cooler_autoctl": 0, "cooler_curr": 70.0, "cooler_startup": 10.0, "laser_fixed_pw": 0, "gain": 1.3, "offset": 2.53059635486, "servo_calib_degree": 3.0, "laser_curr": 55.0, "shutter": 8200.0, "servo_calib_step": 1.0, "laser_fixed_curr": 0, "exp": 2000.0, "ccd_volt": 4.7, "bt_addr": "00:06:66:62:5A:E3", "servo_delay": 500.0, "laser_autooff": 1}
#proc_cfg={"flat_auto_wnd": 200.0, "flat_auto_fr": 200.0, "flat_auto_shift": 5.0, "yconv": 1, "flatten": 1, "flatten_strength": 100.0, "xfrom": 300.0, "auto_max_frame": 2000.0, "auto_signal": 48000.0, "flat_auto_tol": 0.1, "autoclip": 1, "xrel_range": 0.0, "flat_auto_to": 4000.0, "intensity_adj": 1.0, "xrel": 7852.0, "rmhot": 1, "flat_auto_slit": 4.999999999999997, "auto_ini_exp": 300.0, "auto_off": 0, "xto": 2860.0, "flat_auto_ref": "", "flat_auto_rank": 1, "autobackg": 0, "xrel_adj": 0.0, "auto_black_lvl": 1, "base_wnd": 100.0, "sub_baseline": 0, "xconv": 2, "auto_max_exp": 1000.0, "auto_total_exp": 10000.0, "auto_exp": 0, "rmripple": 0, "black_lvl": 8271.05, "shutter_clip_adj": 0.0, "auto_bckg": 0, "flat_auto_thr": 0.9, "subbackg": 1}
316.8218498245369 20048.099385554648
317.89969571804795 19809.052328172056
318.977263876126 19882.109875855676
320.05455438786703 19769.440265337813
321.1315673423287 19586.756746470204
322.2083028285215 19711.526052521935
323.2847609354267 19617.570503538394
324.3609417519747 19519.069869798637
325.43684536705587 19396.005041715667
326.5124718695279 19460.185132160706
327.58782134820103 19380.120804194805
328.66289389184385 19448.231136321185
329.7376895891921 19228.724523247285
330.8122085289342 19235.02986884072
331.88645079971866 19183.69116215865
332.9604164901575 19147.103904263604
334.03410568881554 19091.525334140264
335.1075184842266 19238.170131746316
336.18065496487543 18987.072159726198
337.2535152192122 19004.18426398758
338.32609933564163 19037.73164228141
339.39840740253203 18939.863247546487
340.4704395082099 18998.99325575635
341.5421957409617 18928.35497406561
342.6136761890357 18967.620798340064
343.6848809406365 18928.90253432493
344.75581008392874 18776.49623170489
345.82646370703696 18703.886806606242
346.8968418980512 18709.443203927207
347.96694474501055 18772.45225821738
349.0367723359268 18777.419724589774
350.106324758759 18660.504679323632
351.1756021014353 18523.023579377776
352.2446044518383 18675.057290999
353.31333189781435 18792.58853192407
354.38178452716966 18601.671687237387
355.449962427665 18645.838709932887
356.51786568702846 18617.414539513906
357.58549439294256 18812.615037812207
358.6528486330535 18693.19262403731
359.71992849496564 18609.181523420084
360.7867340662433 18643.439964683508
361.8532654344144 18608.704375785474
362.9195226869597 18710.52261642862
363.9855059113288 18709.864108009268
365.05121519492604 18578.669399087135
366.11665062511565 18678.531066515025
367.1818122892273 18681.450064467423
368.2467002745434 18738.813163912695
369.31131466831175 18699.740166017953
370.375655557742 18724.966923223466
371.4397230299983 18736.789126361477
372.5035171722102 18620.39954994418
373.5670380714637 18630.95279453457
374.6302858148101 18721.72952692974
375.6932604892554 18713.932627115537
376.7559621817709 18750.38350683625
377.81839097928605 18608.546436494253
378.8805469686886 18618.270226806075
379.94243023683157 18729.932400977672
381.0040408705263 18562.64940906899
382.0653789565458 18556.973557055222
383.1264445816196 18538.214238662105
384.1872378324406 18558.892715973678
385.2477587956637 18583.530392398126
386.3080075579037 18452.767569168696
387.3679842057336 18423.142603795357
388.4276888256918 18493.321010853128
389.48712150426945 18351.80181726254
390.54628232792857 18410.133056795014
391.6051713830857 18227.652491801033
392.66378875611736 18271.074143150705
393.7221345333637 18296.908983983085
394.7802088011249 18176.169657511386
395.838011645661 18162.93028720693
396.89554315319765 18045.390482314157
397.9528034099112 18035.347019199813
399.00979250194723 17911.165589996566
400.06651051541485 17971.166853116873
401.1229575363741 17898.986845438274
402.17913365085224 17853.498345095144
403.23503894483656 17932.248800302983
404.2906735042761 17652.395565605133
405.3460374150818 17728.770356938076
406.401130763119 17776.32000381228
407.455953634224 17769.614263417203
408.5105061141876 17694.869158672598
409.56478828876243 17408.35884910826
410.6188002436629 17506.702850181962
411.6725420645689 17430.779138917445
412.72601383711117 17480.57249399814
413.77921564689314 17494.872468768033
414.8321475794728 17421.298551468884
415.88480972036814 17294.959311663337
416.93720215506437 17342.138860822182
417.9893249690049 17235.34104735425
419.04117824759123 17112.571949851936
420.09276207619223 17079.617343277314
421.144076540133 17190.545944195917
422.1951217247042 17096.230966767667
423.24589771515275 17129.472971909996
424.2964045966928 17038.410922039144
425.34664245449494 17065.89053485215
426.3966113736933 16952.577336878385
427.4463114393875 16908.626178705897
428.49574273662984 16876.763519654305
429.5449053504417 16742.375109641463
430.5937993658026 16897.283666788844
431.6424248676558 16775.19521698554
432.6907819409007 16690.98174647196
433.73887067040596 16750.000112883135
434.7866911409965 16745.89972856699
435.8342434374608 16721.575146246847
436.88152764455117 16653.490534716613
437.9285438469724 16643.148262033395
438.9752921294057 16581.28066988278
440.02177257648145 16547.49470216817
441.06798527279716 16462.535955928364
442.1139303029122 16635.366439333717
443.1596077513459 16616.370143672753
444.2050177025794 16514.25560495358
445.25016024105753 16534.7143046286
446.2950354511886 16551.240406168108
447.33964341733736 16389.229699779586
448.383984223834 16451.113932751083
449.4280579549686 16296.781272759807
450.471864694995 16373.763616468515
451.5154045281306 16418.001777725116
452.5586775385509 16410.76159464159
453.60168381039693 16327.429939300413
454.64442342776783 16430.20273218438
455.6868964747264 16337.23477759483
456.7291030353008 16236.914053417346
457.77104319347563 16296.39486891597
458.8127170332027 16199.903192612051
459.854124638392 16291.40165175494
460.895266092919 16314.825025684757
461.93614148061897 16369.144583309617
462.97675088529104 16367.172556438152
464.01709439069236 16256.462189651016
465.0571720805492 16241.10425150478
466.0969840385442 16269.909417926992
467.1365303483253 16361.172818078334
468.17581109350067 16318.292800231007
469.2148263576437 16157.406470653794
470.2535762242878 16268.274025816054
471.29206077693016 16441.26319736489
472.33028009902773 16389.90225580815
473.3682342740012 16425.569381491845
474.40592338523857 16457.440606257915
475.4433475160804 16519.956913790866
476.4805067498364 16465.575243777388
477.51740116978 16593.841965409763
478.5540308591426 16748.23224460767
479.59039590112116 16762.697123979673
480.6264963788726 16763.887425019573
481.6623323755193 17005.12772174776
482.6979039741436 17076.711818774842
483.7332112577915 17401.29939521646
484.76825430947247 17508.42010048555
485.80303321215797 17601.47672807622
486.837548048783 17667.391291743355
487.8717989022425 17935.245712990214
488.90578585539697 17997.245395373517
489.9395089910686 18144.506624673533
490.97296839203955 17975.351781161786
492.00616414106116 18038.204784573347
493.0390963208429 18069.3997536516
494.0717650140559 18034.899047474057
495.10417030333883 17844.506006488155
496.1363122712901 17747.325677739434
497.16819100046814 17560.02613041801
498.1998065734024 17410.979792183025
499.2311590725767 17330.600972276807
500.26224858044407 17019.890978044583
501.2930751794156 16887.96390775715
502.3236389518679 16906.05756638645
503.35393998014115 16620.992559854065
504.38397834653733 16587.690859303246
505.4137541333221 16480.626077553774
506.4432674227228 16321.823835523337
507.4725182969323 16226.851085916049
508.5015068381035 16190.555005258017
509.53023312835467 16169.334106776761
510.55869724976765 16039.853000405046
511.58689928438434 15993.388016916657
512.6148393142121 15928.357227813172
513.6425174212218 16000.882817037147
514.6699336873462 15948.469768776291
515.6970881944835 16001.614067500059
516.7239810244901 15903.346717676812
517.7506122591931 15850.096127915565
518.7769819803761 15892.61313381484
519.8030902697901 15925.360553534298
520.8289372091476 15972.41632862198
521.8545228801249 16102.876613628343
522.8798473643619 15952.550373641638
523.9049107434621 15941.130209921397
524.9297130989908 15958.918373928065
525.9542545124805 15892.408229466873
526.9785350654201 15838.89677224104
528.0025548392696 15831.815181155831
529.0263139154504 15731.200924163128
530.0498123753423 15812.506213843404
531.073050300296 15735.869054981333
532.0960277716204 15580.050329268317
533.1187448705896 15728.373442461732
534.1412016784416 15558.42953440886
535.1633982763833 15557.943634590958
536.1853347455726 15444.97400367769
537.2070111671401 15468.668041157498
538.2284276221817 15231.04456948599
539.2495841917516 15193.577930220907
540.2704809568677 15132.094093415133
541.2911179985167 15298.351240422411
542.3114953976419 15120.236275772546
543.3316132351592 15065.92411471945
544.3514715919409 14827.386082134373
545.3710705488247 14951.931815787122
546.3904101866156 14877.189935783495
547.4094905860784 14862.669906630083
548.4283118279418 14855.248647667187
549.4468739929034 14874.057875986642
550.4651771616191 14781.696356525212
551.4832214147063 14686.498383529432
552.501006832761 14774.42439671338
553.5185334963226 14593.14294430117
554.5358014859103 14718.145752560082
555.5528108820035 14729.117394345943
556.5695617650363 14622.786079100755
557.5860542154242 14607.615804801806
558.6022883135283 14546.12060448275
559.6182641396881 14476.306885806964
560.6339817741991 14649.087872543148
561.6494412973225 14632.240073756355
562.6646427892883 14621.232870905616
563.6795863302796 14614.90527275067
564.694272000459 14517.12096981046
565.7086998799423 14636.360828725848
566.7228700488104 14548.477553355566
567.7367825871115 14556.251505887743
568.7504375748576 14526.445524246996
569.7638350920224 14576.966586397926
570.7769752185486 14545.843398412257
571.7898580343353 14533.929949229143
572.802483619258 14510.071104353581
573.8148520531431 14677.726094876693
574.8269634157932 14621.008082622353
575.8388177869692 14575.657680758677
576.8504152463938 14602.39886103209
577.8617558737587 14838.142375538038
578.8728397487175 14650.187443968161
579.883666950891 14766.33679791067
580.8942375598654 14907.064712268184
581.9045516551851 15058.591028855557
582.9146093163617 15354.94279022591
583.924410622878 15052.965165777856
584.9339556541727 15173.129047199283
585.9432444896538 15270.20134881848
586.9522772086875 15362.945179535218
587.9610538906127 15263.296633214723
588.9695746147318 15225.86124379836
589.9778394603054 15327.453566572964
590.985848506567 15122.238102421232
591.9936018327098 15140.976522121917
593.0010995178891 14874.901923483389
594.0083416412344 15065.942796992953
595.0153282818283 14782.647239694625
596.0220595187293 14682.083590677703
597.0285354309508 14583.886197121567
598.0347560974806 14561.879575130579
599.0407215972609 14468.845200542146
600.0464320092051 14426.741025530271
601.0518874121954 14368.440866442998
602.0570878850685 14353.987925740967
603.062033506636 14387.088392042768
604.0667243556636 14300.301521777646
605.0711605108936 14208.49196537828
606.0753420510264 14472.489142021874
607.0792690547278 14323.327703469971
608.082941600629 14290.013326345565
609.0863597673306 14273.22732365128
610.0895236333909 14399.326901857648
611.0924332773357 14444.28156108021
612.0950887776617 14398.88200768414
613.0974902128219 14503.24606515445
614.0996376612384 14717.033081551659
615.1015312013005 14740.180698457272
616.1031709113595 14892.464349590722
617.1045568697336 14779.692680171042
618.1056891547069 14926.194409789337
619.1065678445229 15112.557534863081
620.1071930173985 15401.221830132155
621.1075647515099 15434.74682349923
622.1076831250048 15689.993322215601
623.1075482159849 15799.785811944947
624.1071601025305 15885.770061603302
625.1065188626781 16050.25906269475
626.105624574433 16436.786539836106
627.1044773157682 16547.129167929677
628.1030771646128 16743.655747927485
629.1014241988742 16851.329550960716
630.0995184964158 17169.406931811987
631.0973601350688 17167.525804135585
632.0949491926294 17430.095129559773
633.0922857468631 17134.836939795678
634.089369875499 17246.61526546863
635.0862016562278 17274.590501947445
636.0827811667077 17048.40786623356
637.0791084845641 17080.185351699605
638.0751836873878 16777.3714566051
639.0710068527369 16815.08621679112
640.0665780581294 16522.133363185923
641.0618973810506 16317.83134504446
642.0569648989604 16224.626797555658
643.0517806892676 15937.486053466486
644.0463448293649 15754.34551644006
645.040657396592 15468.922017540084
646.0347184682723 15319.938757532032
647.0285281216875 14967.183183798174
648.0220864340772 15004.505228875709
649.0153934826558 14750.873589766765
650.0084493446047 14591.706160455005
651.0012540970674 14506.892609270251
651.9938078171526 14335.863054912528
652.9861105819346 14278.320481034747
653.9781624684565 14237.61558102832
654.9699635537254 13987.034806591746
655.9615139147136 13968.577637439535
656.9528136283589 13811.045984983639
657.9438627715699 13941.104187296678
658.9346614212154 13784.224099003466
659.925209654135 13618.94808923247
660.9155075471263 13636.633514396317
661.9055551769616 13585.404532930412
662.895352620375 13647.645012617711
663.8848999540678 13545.759498716248
664.8741972547068 13352.711467208394
665.863244598926 13363.214752193448
666.8520420633213 13361.139556855396
667.8405897244611 13285.299488088882
668.8288876588758 13121.628914792604
669.8169359430613 13302.35497452394
670.8047346534822 13172.867799588339
671.7922838665672 13065.271485170688
672.7795836587156 13193.283517262931
673.766634106285 13311.368119440604
674.7534352856092 13058.825134542241
675.7399872729766 13120.443026322395
676.7262901446538 13152.064496877374
677.712343976862 13148.445939520252
678.6981488457986 13216.429450837604
679.6837048276229 13010.528278677102
680.6690119984596 13061.906991246
681.6540704344043 13037.15886828829
682.6388802115107 13010.836291792984
683.6234414058108 13066.39487131574
684.6077540932874 12901.16333219945
685.591818349907 12958.641348012472
686.575634251587 12906.373649039384
687.5592018742263 12864.777063705547
688.5425212936734 12738.244431523379
689.5255925857564 12980.637331399299
690.5084158262707 12706.75798878876
691.4909910909646 12759.86910697168
692.4733184555644 12640.018432674686
693.4553979957618 12711.471586277954
694.4372297872123 12696.81092258905
695.4188139055404 12635.94329877443
696.4001504263324 12420.882694517175
697.3812394251509 12631.004465015762
698.3620809775111 12517.20314356857
699.3426751589104 12490.482865843656
700.3230220448004 12353.56843944402
701.3031217106054 12468.951691427512
702.2829742317172 12589.271045161593
703.2625796834873 12288.041084317349
704.2419381412474 12309.283947797436
705.22104968028 12351.626422057327
706.1999143758458 12281.02270183731
707.178532303169 12297.328398084406
708.1569035374378 12310.936156342057
709.1350281538107 12374.453537064483
710.1129062274158 12320.87618261871
711.0905378333373 12415.60458176277
712.0679230466376 12307.40914047055
713.0450619423427 12405.223639815813
714.0219545954424 12510.467441732415
714.9986010808989 12382.167591483945
715.9750014736292 12398.598791068132
716.9511558485392 12571.030905840465
717.9270642804786 12625.713057759085
718.9027268442787 12636.175496353015
719.8781436147328 12649.994220460681
720.8533146666014 12694.600632966216
721.828240074612 12650.568291425796
722.8029199134635 12691.950867842654
723.7773542578125 12608.354824504124
724.751543182294 12557.235242589524
725.7254867615029 12591.022793036418
726.6991850700015 12352.021186300986
727.6726381823228 12396.227965808997
728.6458461729599 12447.48655345196
729.6188091163858 12312.502392353525
730.5915270870246 12302.797166288456
731.5640001592856 12345.010550614836
732.536228407529 12317.098619621183
733.5082119060917 12248.083291523693
734.4799507292755 12286.452754170792
735.4514449513481 12134.477992044434
736.4226946465496 12301.825187682969
737.3936998890786 12290.321682575857
738.3644607531078 12156.07575328091
739.3349773127793 12119.073335974714
740.3052496421951 12229.663267550759
741.27527781543 12028.904917707838
742.2450619065221 12020.792064003543
743.2146019894826 12040.930238324852
744.183898138288 12042.842293069278
745.1529504268801 11941.89207997599
746.1217589291682 11810.91972188403
747.0903237190341 11843.898200593612
748.058644870318 11845.366081692217
749.0267224568397 11797.392485820137
749.994556552374 11688.638127731307
750.9621472306771 11720.474082849641
751.9294945654583 11746.92157417296
752.8965986304011 11755.919735115045
753.8634594991636 11691.252439650814
754.8300772453586 11818.149272529112
755.7964519425768 11733.5158632134
756.762583664371 11698.048632778595
757.7284724842611 11816.384771384106
758.6941184757416 11638.435918017969
759.6595217122667 11692.729519588991
760.6246822672638 11752.969404250984
761.5896002141235 11605.646401571385
762.5542756262093 11620.166517402566
763.5187085768503 11747.269226726476
764.4828991393406 11632.865361674712
765.4468473869474 11578.114471953635
766.4105533929032 11644.840993462896
767.3740172304078 11495.376755326344
768.3372389726283 11551.986008388669
769.3002186926988 11465.55500922319
770.2629564637282 11379.869458861216
771.2254523587872 11376.695293579618
772.1877064509154 11305.633920225326
773.1497188131179 11131.846969120914
774.1114895183728 11175.28799493349
775.0730186396268 11081.653505052838
776.0343062497905 11048.50663437914
776.9953524217381 11018.65142593168
777.9561572283274 11029.251319046183
778.9167207423689 11008.84869206028
779.8770430366476 10930.5378355085
780.8371241839159 10940.723554170252
781.7969642568951 10922.775036693165
782.7565633282757 11210.925226097432
783.7159214707099 10865.447975332156
784.6750387568281 11048.814282958716
785.6339152592227 10808.214771586765
786.5925510504512 10814.907616795153
787.5509462030477 10877.448231279252
788.5091007895098 10893.801288343693
789.4670148823006 10848.04992845386
790.4246885538596 10880.277354992159
791.3821218765861 10965.829473377922
792.3393149228505 10729.587139323816
793.2962677649975 10937.849072184941
794.2529804753303 10938.565850647206
795.20945312613 10970.841570506907
796.1656857896378 10812.146399902516
797.1216785380675 10779.7753204914
798.0774314435985 11048.090153410236
799.0329445783846 11159.88552110272
799.9882180145414 11139.522298076095
800.9432518241574 11062.807983946272
801.89804607929 11227.909252199204
802.852600851962 11269.888824426289
803.8069162141637 11301.564075683867
804.760992237856 11320.46026163519
805.714828994971 11486.02209347912
806.6684265574077 11568.156974430782
807.6217849970271 11374.181046338128
808.574904385674 11404.904224814465
809.527784795142 11527.484399056844
810.4804262972102 11556.773420717602
811.4328289636178 11405.91096589546
812.3849928660748 11200.451563422654
813.3369180762638 11225.441874429049
814.2886046658241 11267.108901940988
815.2400527063783 11044.527668943316
816.1912622695108 11006.438481127156
817.1422334267718 11006.699987903417
818.0929662496856 10814.498031673716
819.0434608097457 10590.39243192055
819.9937171784059 10594.273641718832
820.9437354271013 10530.66808132175
821.8935156272255 10509.985389316902
822.8430578501484 10411.601743477102
823.7923621672016 10220.425654361617
824.7414286496896 10299.955805694848
825.6902573688876 10208.86878557933
826.6388483960363 10165.163107358881
827.5872018023492 10051.73652805617
828.5353176590033 10210.33655527199
829.4831960371503 10018.534801816586
830.4308370079016 10024.858417649388
831.3782406423525 10016.475843929256
832.3254070115545 10014.320731518374
833.2723361865319 9919.857551410214
834.2190282382799 9812.031721555726
835.1654832377644 9888.966006909819
836.1117012559116 9878.326522329135
837.0576823636256 9970.40161858189
838.003426631778 9786.813896228212
838.9489341312074 9736.929849458735
839.8942049327197 9923.36158907409
840.8392391070975 9958.247120462041
841.7840367250865 9803.137837147146
842.7285978573982 9785.64448785836
843.672922574724 9843.003239167496
844.6170109477152 9719.124895603962
845.560863046996 9738.789859741324
846.5044789431595 9640.657872049262
847.4478587067697 9690.828802609674
848.3910024083561 9865.852778549874
849.333910118421 9741.639845223033
850.2765819074339 9662.178220275364
851.2190178458332 9820.467738638761
852.161218004032 9754.424090241027
853.1031824524016 9671.634805595659
854.0449112612987 9657.3256836347
854.9864045010327 9714.286681091206
855.9276622418947 9545.040356518573
856.8686845541379 9710.96087269904
857.8094715079915 9622.319099850565
858.7500231736467 9706.96687640125
859.690339621271 9699.047517259338
860.6304209209939 9731.559893701231
861.5702671429244 9514.184630886744
862.5098783571284 9663.280526391409
863.4492546336569 9695.819080591264
864.3883960425155 9666.639550498512
865.3273026536863 9649.532779737498
866.2659745371238 9659.81682849705
867.2044117627465 9702.392441757385
868.1426144004472 9621.896684943094
869.0805825200823 9762.466078771888
870.0183161914847 9804.424519851858
870.9558154844526 9775.086351481825
871.8930804687552 9925.687997020967
872.8301112141307 9764.721256451408
873.7669077902865 9951.019235902986
874.7034702669062 10118.023194314172
875.6397987136315 10019.753662954146
876.5758932000863 10059.663471598802
877.5117537958522 10221.213331408528
878.4473805704911 10166.05616025798
879.3827735935283 10152.057084577555
880.3179329344603 10217.606636317683
881.2528586627541 10301.766318832455
882.1875508478479 10289.20926807639
883.1220095591489 10191.29714648741
884.0562348660296 10136.48924066879
884.9902268378391 10325.68224907301
885.9239855438955 10141.341370969722
886.8575110534839 10005.503701113485
887.7908034358588 10140.11417732002
888.7238627602474 10092.222349462321
889.6566890958475 10067.790843409206
890.5892825118208 9814.56211445988
891.5216430773125 9840.758007777567
892.4537708614189 9819.100450585664
893.3856659332196 9696.141390444995
894.3173283617652 9605.237833171237
895.2487582160684 9633.203122504441
896.179955565116 9557.53851948098
897.110920477864 9372.361762046878
898.0416530232451 9387.607839083345
898.9721532701478 9301.473263036938
899.9024212874428 9424.486311857096
900.8324571439662 9210.579885291645
901.7622609085302 9185.498192208901
902.6918326499072 9136.575276608924
903.6211724368477 9182.709159185362
904.5502803380696 9181.671886660226
905.4791564222614 9223.793659191058
906.4078007580792 9054.902465580315
907.3362134141571 9059.827867298578
908.2643944590909 9091.678003152245
909.1923439614493 9010.154641008407
910.1200619897754 8939.540870178824
911.0475486125779 9132.859648244601
911.9748038983344 8988.566272520125
912.9018279155007 8933.199655560853
913.8286207324982 8788.597653599674
914.7551824177117 8924.622925898357
915.6815130395116 8890.637525965803
916.6076126662283 8751.400368108098
917.533481366163 8843.744245145637
918.4591192075914 8858.679991084126
919.3845262587565 8899.97847075665
920.3097025878706 8848.500400149225
921.2346482631237 8708.183793156702
922.1593633526682 8779.03877700549
923.0838479246304 8788.823209423255
924.0081020471061 8863.876565074834
924.9321257881656 8590.383314950255
925.8559192158464 8650.791164878321
926.7794823981512 8698.647117262128
927.7028154030686 8623.975094961153
928.6259182985414 8584.041265680295
929.5487911524906 8755.00063961362
930.4714340328119 8752.93096632399
931.3938470073608 8528.511957184488
932.3160301439748 8627.09746697261
933.2379835104548 8653.507364553701
934.1597071745709 8724.3337783499
935.0812012040769 8716.733858759828
936.002465666681 8709.21231398296
936.9235006300696 8602.302665773368
937.8443061619055 8632.729443605307
938.7648823298077 8437.154099458709
939.6852292013809 8445.034246725425
940.6053468441951 8553.803384919549
941.5252353257874 8449.742941998331
942.4448947136698 8507.516865890164
943.364325075323 8419.026591805577
944.2835264782043 8606.53194577846
945.2024989897309 8440.593769501374
946.1212426773054 8460.310349674648
947.0397576082851 8415.712837948919
947.9580438500125 8609.279165579504
948.8761014697939 8609.687568816098
949.7939305349064 8543.363842787821
950.7115311125999 8435.722466825775
951.6289032700952 8394.524329455624
952.5460470745875 8467.98980153515
953.4629625932339 8449.105162605287
954.3796498931715 8460.148992095845
955.2961090415029 8554.08033311622
956.2123401053068 8498.87936457039
957.1283431516276 8366.430526413877
958.0441182474842 8348.009945100985
958.9596654598663 8462.646329374053
959.8749848557309 8435.696294962121
960.7900765020167 8334.809630164898
961.7049404656209 8283.852879316428
962.6195768134185 8312.500385875981
963.5339856122537 8343.310164960763
964.4481669289453 8422.411188234199
965.3621208302793 8303.788387873934
966.2758473830145 8374.843654849337
967.1893466538822 8471.884183869279
968.1026187095813 8332.731672746555
969.0156636167867 8272.860463567678
969.9284814421426 8424.378635666044
970.8410722522622 8390.248447838418
971.753436113735 8267.973379947409
972.6655730931161 8273.572878830058
973.5774832569368 8377.973275540762
974.4891666716958 8284.900736982217
975.4006234038698 8247.364605856614
976.3118535198955 8235.041163174212
977.2228570861935 8393.591338503084
978.1336341691494 8405.994159589693
979.0441848351202 8222.512505769326
979.9545091504333 8356.598243267246
980.864607181391 8409.853046101412
981.7744789942699 8383.468812252675
982.6841246553086 8372.572743091847
983.5935442307236 8390.899235406423
984.5027377867027 8332.876238633171
985.4117053894024 8356.552188476375
986.3204471049557 8314.716770487674
987.2289629994648 8362.179285402035
988.1372531390007 8431.75806286305
989.0453175896091 8370.815216861773
989.9531564173067 8441.616863281508
990.860769688079 8291.80732530443
991.7681574678918 8396.825744488237
992.6753198226706 8398.29158831626
993.582256818323 8368.660588998797
994.4889685207218 8358.618979002265
995.3954549957143 8611.904830572143
996.301716309119 8534.407921798436
997.2077525267232 8422.123928442948
998.1135637142943 8390.543621806617
999.0191499375615 8555.64542294919
999.924511262232 8586.26727885956
1000.8296477539861 8578.356733245539
1001.7345594784656 8477.076589364962
1002.6392465012996 8571.217491872574
1003.5437088880753 8531.912960440883
1004.4479467043584 8532.342583233025
1005.3519600156869 8281.604067048323
1006.2557488875718 8598.860907678867
1007.1593133854858 8534.624071560445
1008.0626535748888 8427.578033789023
1008.9657695212009 8295.630011018542
1009.8686612898182 8591.68896211328
1010.7713289461135 8508.654151775494
1011.6737725554212 8379.16359408736
1012.5759921830577 8368.986497415992
1013.4779878943027 8411.646330380418
1014.379759754418 8390.376440623093
1015.2813078286254 8275.720275920132
1016.18263218213 8204.98332720035
1017.0837328801026 8223.015156133364
1017.9846099876886 8286.587859415014
1018.8852635700023 8179.0945892017135
1019.7856936921362 8080.509898849405
1020.6859004191447 8323.440087212613
1021.5858838160675 8120.131375261645
1022.4856439479063 8126.065634343501
1023.3851808796389 7980.742765095019
1024.2844946762143 8110.8101608414745
1025.183585402554 8070.21209536752
1026.082453123554 7873.472997342836
1026.9810979040776 7915.975829819678
1027.8795198089647 7882.953487815861
1028.777718903024 7929.808224866052
1029.6756952510368 7903.276923535057
1030.5734489177648 7866.530087777052
1031.4709799679313 7933.159412256669
1032.3682884662358 8024.221677970707
1033.2653744773506 7729.914238650464
1034.1622380659192 7708.4231858092435
1035.058879296559 7973.610459811536
1035.9552982338591 7942.538366880488
1036.8514949423825 7889.3985335667385
1037.7474694866614 7856.26616970496
1038.6432219312028 7742.265275552649
1039.5387523404825 8049.046787454232
1040.4340607789582 7914.372631144688
1041.3291473110476 8000.53393322852
1042.2240120011465 8142.0136199608505
1043.1186549136273 8180.517094062287
1044.0130761128294 8135.630994781344
1044.9072756630649 8146.569943040563
1045.8012536286205 8250.666526301018
1046.6950100737577 8293.504344000818
1047.588545062701 8374.254449049426
1048.481858659663 8289.041210059542
1049.3749509288118 8488.583902079105
1050.2678219343034 8390.71360911935
1051.1604717402515 8374.151346775132
1052.0529004107575 8325.592480886346
1052.9451080098825 8508.933100727721
1053.8370946016694 8396.310820541692
1054.7288602501267 8492.80948658183
1055.6204050192446 8396.890744851069
1056.511728972977 8484.170415240675
1057.402832175254 8419.024890727316
1058.2937146899785 8291.308976825716
1059.1843765810263 8208.519449883068
1060.0748179122456 8360.334528112526
1060.9650387474576 8225.119930135203
1061.855039150456 8342.699285527575
1062.7448191850071 8244.569662291698
1063.6343789148505 8276.191753739524
1064.5237184037014 8323.89335231431
1065.412837715241 8114.641088328067
1066.3017369131267 8111.551194621973
1067.190416060992 8088.96843712913
1068.0788752224398 7969.397512427871
1068.9671144610438 7992.441283063939
1069.8551338403558 8025.055345862684
1070.7429334239023 8167.891267506871
1071.6305132751695 7915.464594649889
1072.517873457633 8058.271015124823
1073.4050140347335 7910.9192231999505
1074.2919350698776 7945.200314501104
1075.1786366264623 7944.505386329294
1076.0651187678395 7833.321851347655
1076.95138155735 7682.5694034182325
1077.8374250582929 7778.095653362548
1078.7232493339507 7856.015055722795
1079.608854447577 7687.342913733499
1080.4942404623907 7566.277354439048
1081.3794074415982 7690.673411723796
1082.2643554483657 7688.679906774179
1083.149084545841 7518.995600480509
1084.033594797138 7477.800626287391
1084.9178862653516 7559.82891945101
1085.8019590135427 7687.365832036284
1086.6858131047484 7418.1981451912025
1087.5694486019802 7457.827364899797
1088.4528655682225 7489.1350150246635
1089.3360640664287 7612.979594658139
1090.2190441595321 7498.79248497868
1091.1018059104317 7386.687355064852
1091.98434938201 7580.818772063579
1092.866674637111 7478.804611069339
1093.748781738559 7493.331620159084
1094.6306707491512 7312.585329415463
1095.5123417316554 7473.907965998852
1096.3937947488157 7403.366435501541
1097.2750298633455 7313.0729455568435
1098.156047137938 7337.860868853842
1099.0368466352556 7426.175234298991
1099.9174284179317 7506.007414774288
1100.7977925485757 7165.316828344167
1101.6779390897755 7243.927306309806
1102.5578681040806 7378.044895456827
1103.4375796540226 7401.306756011351
1104.3170738021054 7245.11030424692
1105.1963506108077 7113.588584784304
1106.0754101425773 7207.026213761946
1106.9542524598382 7263.401322619342
1107.8328776249855 7148.860225151191
1108.7112857003904 7121.837559052216
1109.5894767483987 7228.810144780633
1110.4674508313292 7349.319097817426
1111.3452080114657 7216.006760082416
1112.2227483510815 7272.230311719593
1113.1000719124077 7394.928141437427
1113.9771787576592 7466.073402221489
1114.854068949022 7379.592130445008
1115.7307425486542 7444.385980712352
1116.6071996186893 7551.989313455134
1117.483440221229 7649.355084236154
1118.3594644183577 7577.174409860678
1119.235272272128 7552.397438302903
1120.1108638445658 7770.3066089528365
1120.9862391976712 7996.972577959596
1121.8613983934229 7924.920821303014
1122.7363414937627 7902.520153281805
1123.6110685606182 7974.5134441642
1124.485579655884 8148.9270222514115
1125.359874841426 8100.188021813303
1126.2339541790916 8170.490699228617
1127.1078177306936 8489.400196394916
1127.9814655580267 8222.959370512894
1128.854897722851 8369.396590257154
1129.7281142869106 8398.575439479273
1130.6011153119125 8555.504346207814
1131.473900859548 8618.584616445976
1132.3464709914697 8427.09492978871
1133.2188257693178 8446.708702545217
1134.0909652546961 8357.749426447652
1134.96288950919 8364.571472056783
1135.8345985943506 8505.408317010246
1136.7060925717087 8208.557086809284
1137.57737150277 8312.319852100136
1138.4484354490069 8291.967215754124
1139.3192844718778 8079.9275623774865
1140.1899186327992 7892.00736880307
1141.060337993178 8134.415729542478
1141.930542614382 7948.949251989946
1142.8005325577597 7829.576875070173
1143.670307884635 7640.479260607533
1144.5398686563003 7733.7899967554895
1145.409214934025 7604.089911239181
1146.2783467790541 7394.594373671638
1147.1472642526023 7380.283372940384
1148.0159674158622 7445.323539951055
1148.8844563300026 7207.674146866835
1149.7527310561618 7148.811023781772
1150.6207916554504 7050.453196644812
1151.4886381889592 7076.805150084814
1152.3562707177498 7059.495404648439
1153.2236893028585 6960.305857602018
1154.090894005296 6903.466935900411
1154.9578848860474 7048.804509484721
1155.8246620060709 6909.075374473337
1156.6912254262988 6739.792130959121
1157.5575752076438 6797.407746508683
1158.42371141098 6864.1358362068595
1159.2896340971656 6840.871818380496
1160.1553433270346 6739.504067044189
1161.0208391613887 6652.8319335376045
1161.8861216610057 6783.164594544083
1162.75119088664 6780.065335337332
1163.6160468990201 6671.837770410835
1164.4806897588442 6649.310778787117
1165.3451195267917 6737.029211668826
1166.2093362635114 6656.660879211415
1167.0733400296285 6724.998772057776
1167.9371308857444 6614.730094597697
1168.8007088924278 6561.175167273895
1169.6640741102328 6654.312721085762
1170.5272265996773 6519.525961664482
1171.390166421259 6522.9743816460295
1172.252893635452 6625.458830045315
1173.1154083026995 6619.423988112833
1173.977710483421 6658.103226762226
1174.8398002380145 6492.353532231853
1175.7016776268483 6598.004575865894
1176.563342710264 6602.892761084428
1177.4247955485826 6562.9217643249085
1178.2860362020947 6624.446691894562
1179.147064731069 6427.44878902872
1180.0078811957483 6640.295416466217
1180.8684856563486 6487.6060811906
1181.7288781730604 6554.826580651645
1182.589058806052 6679.130017950107
1183.4490276154593 6818.444719487411
1184.3087846614017 6578.473710744615
1185.1683300039676 6666.024399459942
1186.027663703222 6818.511300133992
1186.8867858192025 6722.415252343085
1187.7456964119228 6786.8087803857225
1188.6043955413716 6842.633478020662
1189.4628832675116 6858.574810632177
1190.3211596502842 6987.866421497571
1191.179224749596 6989.011302664665
1192.0370786253388 6881.691617717064
1192.8947213373758 7088.787970212729
1193.7521529455407 7198.907170296964
1194.6093735096438 6966.664265496927
1195.466383089477 7066.822212554226
1196.3231817447977 7151.118173016902
1197.1797695353398 7299.372478031046
1198.0361465208189 7034.0341896837035
1198.8923127609214 6958.845125096738
1199.7482683153048 7176.3088335196935
1200.6040132436028 7264.099882563505
1201.459547605431 7081.409179593398
1202.3148714603722 7181.392136768217
1203.1699848679855 7076.681212377097
1204.0248878878065 7218.342554199735
1204.8795805793507 6981.310280154571
1205.7340630020935 7066.647801682969
1206.5883352155033 7119.89751773052
1207.4423972790064 7161.664295801063
1208.2962492520237 6912.098630852874
1209.1498911939307 6895.234175172884
1210.0033231640937 6953.756114141501
1210.8565452218427 6917.719269841019
1211.7095574264913 6721.056174873163
1212.5623598373222 6673.403571646025
1213.4149525135963 6725.362358014888
1214.2673355145507 6731.150414773289
1215.1195088993936 6651.59312384326
1215.9714727273113 6586.082392260786
1216.8232270574663 6726.890068584175
1217.6747719489904 6402.178065474313
1218.5261074609934 6380.89831721743
1219.3772336525653 6459.408889043028
1220.2281505827668 6539.739995217343
1221.0788583106296 6562.341469707171
1221.9293568951707 6228.367543932488
1222.7796463953746 6263.529211945213
1223.629726870202 6352.3148861167265
1224.4795983785934 6374.548924250435
1225.3292609794553 6324.238540260898
1226.1787147316809 6259.674764446432
1227.0279596941327 6297.335713022568
1227.8769959256424 6185.5189313536985
1228.7258234850306 6364.934261152105
1229.5744424310833 6063.554497608331
1230.422852822563 6344.240702643903
1231.2710547182105 6372.755136242011
1232.119048176739 6151.822047227431
1232.9668332568417 6016.081115193714
1233.8144100171812 6275.896374461507
1234.6617785163999 6226.5011127149755
1235.508938813111 6070.233427041088
1236.3558909659114 6101.257842047571
1237.2026350333617 6245.540363010992
1238.049171074008 6341.189254492561
1238.8954991463652 6120.627445224751
1239.741619308932 6095.282713002003
1240.587531620169 5039.287042326898
1241.4332361385277 6250.409966107961
1242.2787329224248 5991.156304101588
1243.1240220302534 5897.017792502856
1243.9691035203869 6008.221373643641
1244.813977451171 6256.936683980971
1245.6586438809263 6162.32142396505
1246.5031028679496 5932.867578715169
1247.3473544705157 6165.399571044966
1248.1913987468706 6073.098482525362
1249.0352357552383 5903.642085882686
1249.8788655538228 5984.870092606268
1250.7222882007918 6063.605881589721
1251.565503754302 6088.8107828984375
1252.4085122724755 5875.749353846042
1253.2513138134182 6125.8094884391085
1254.0939084352049 6074.145055432663
1254.9362961958905 5963.225432806738
1255.7784771535007 5938.359632491716
1256.6204513660432 6080.28382595507
1257.4622188915 6154.0490099854605
1258.3037797878242 5998.47644559669
1259.1451341129468 5974.7487059952855
1259.9862819247755 6057.902680372116
1260.8272232811978 5976.60622286007
1261.6679582400666 6184.823599564923
1262.5084868592203 5856.929366055461
1263.34880919647 5842.851615204044
1264.1889253095997 5954.520427202432
1265.0288352563712 6079.787993664389
1265.8685390945266 5848.309580969762
1266.7080368817751 5899.736484162233
1267.5473286758115 6121.69332385696
1268.386414534294 5921.859587911082
1269.2252945148703 5757.822831584741
1270.0639686751547 5798.62953425447
1270.9024370727402 5880.403814152658
1271.7406997651997 5774.201694144169
1272.5787568100714 5661.1660398199865
1273.4166082648808 5734.350719561096
1274.2542541871244 5847.092490038991
1275.091694634275 5984.938678135692
1275.9289296637817 5611.438479148325
1276.7659593330663 5783.840524746074
1277.6027836995308 5802.512233583466
1278.4394028205552 5818.974547976561
1279.2758167534867 5724.316590388529
1280.112025555658 5604.610986147132
1280.9480292843746 5815.570170282326
1281.7838279969128 5608.156747171974
1282.6194217505326 5643.930499203914
1283.4548106024686 5589.256524957478
1284.289994609926 5665.5378302333365
1285.1249738300921 5832.70904677563
1285.959748320127 5648.925469431231
1286.7943181371702 5745.27092980776
1287.6286833383328 5730.893607640562
1288.4628439807038 5707.7141451578855
1289.2968001213521 5555.138816533601
1290.1305518173194 5593.467181179838
1290.9640991256183 5775.616941110447
1291.7974421032523 5548.726070931602
1292.630580807183 5602.150475728977
1293.463515294361 5683.172721673048
1294.29624562171 5784.503494901538
1295.12877184613 5593.550866280242
1295.961094024493 5617.953910343242
1296.79321221365 5705.632994393078
1297.6251264704333 5764.295353115224
1298.4568368516466 5918.5902951415665
1299.2883434140658 5702.094000207314
1300.1196462144526 5572.4957714862885
1300.9507453095375 5807.544931413204
1301.7816407560313 5748.940289905632
1302.6123326106172 5746.9515730783305
1303.4428209299622 5608.577054729385
1304.2731057707024 5840.651791360969
1305.1031871894502 5649.19022752881
1305.933065242798 5804.764722735616
1306.7627399873181 5694.203982231171
1307.5922114795467 6114.986223276918
1308.4214797760123 6109.400943728726
1309.2505449332057 5830.589785230574
1310.0794070076026 5825.441809412094
1310.9080660556538 5995.263930547002
1311.736522133786 6033.597966198757
1312.5647752983987 5841.135324379073
1313.3928256058734 5643.237842835575
1314.2206731125661 5949.8383130902075
1315.048317874809 5842.292886099197
1315.8757599489109 5851.557753563556
1316.7029993911547 5844.708159050131
1317.5300362578055 6020.6352756431
1318.356870605101 5809.418589700546
1319.183502489257 5822.954059143086
1320.0099319664623 5873.559245563658
1320.836159092889 5957.329067550086
1321.66218392468 5996.811660717984
1322.4880065179532 5754.0196247633885
1323.3136269288134 5894.269728226994
1324.1390452133292 5997.815561779924
1324.9642614275563 6096.546204028657
1325.7892756275214 5894.051523283304
1326.6140878692295 5837.356419129799
1327.4386982086617 6150.702135926758
1328.2631067017755 5901.277026096692
1329.0873134045069 5973.547300230716
1329.911318372764 5880.452225026684
1330.735121662441 6022.2903119479515
1331.558723329399 5845.569805023483
1332.3821234294774 5841.0545513928355
1333.2053220185007 5861.518696908155
1334.0283191522612 5852.190680233183
1334.851114886529 5895.222982725723
1335.6737092770582 5839.776750382498
1336.4961023795695 5822.924935895963
1337.3182942497697 5734.741056260433
1338.1402849433325 5803.551369543783
1338.962074515921 5741.31061389323
1339.7836630231632 5647.67221173669
1340.6050505206676 6067.690088435031
1341.426237064028 5958.315642862175
1342.2472227088037 5813.150364753148
1343.0680075105338 5636.744352296426
1343.888591524741 5672.169064759239
1344.7089748069138 5832.9316039765845
1345.5291574125276 5744.6946106978085
1346.3491393970307 5617.932676998428
1347.168920815846 5882.252821116364
1347.9885017243778 5860.762069242522
1348.8078821780036 5675.970609384674
1349.6270622320844 5647.37895133589
1350.4460419419447 5634.290682664433
1351.2648213629054 5765.41210694798
1352.0834005502438 5479.184986106733
1352.90177955923 5429.940160965003
1353.7199584451064 5765.43238752256
1354.5379372630887 5731.694709488059
1355.355716068374 5576.7816559805315
1356.1732949161305 5460.005597120537
1356.9906738615155 5586.739766942901
1357.8078529596478 5583.893619499826
1358.6248322656375 5729.1859047824855
1359.441611834567 5575.038387580806
1360.2581917214866 5699.849434057241
1361.0745719814367 5555.533378498412
1361.890752669433 5525.222850503109
1362.7067338404577 5540.63373310302
1363.5225155494845 5705.820552314724
1364.3380978514506 5649.281088032533
1365.1534808012839 5466.632028353903
1365.9686644538815 5288.271636936129
1366.783648864117 5689.923872616162
1367.5984340868417 5652.144538472736
1368.413020176893 5531.907935736317
1369.2274071890715 5344.3947767736545
1370.0415951781652 5578.717546245103
1370.8555841989346 5519.151976538311
1371.6693743061223 5402.900816158952
1372.48296555444 5368.284502427939
1373.2963579985844 5526.817173414335
1374.1095516932255 5538.951963324203
1374.9225466930166 5252.014546785669
1375.7353430525782 5501.947477595437
1376.5479408265164 5343.926474692941
1377.36034006941 5450.118494678452
1378.1725408358216 5512.128515724686
1378.9845431802805 5169.488568842658
1379.796347157304 5613.9426765673725
1380.6079528213813 5510.232821980039
1381.4193602269788 5257.483726252548
1382.230569428546 5235.945829231441
1383.0415804805016 5470.712467439109
1383.852393437246 5440.663744383395
1384.6630083531563 5400.922943625555
1385.4734252825892 5254.724940360962
1386.2836442798798 5374.372655641837
1387.0936653993322 5434.363596891049
1387.9034886952395 5374.322447518625
1388.713114221864 5391.619240615515
1389.5225420334482 5422.304800854972
1390.331772184214 5333.819763125797
1391.1408047283585 5157.2913169307385
1391.9496397200564 5346.217752169852
1392.758277213461 5347.986205697611
1393.5667172627054 5315.654641629692
1394.3749599218918 5243.7706769147
1395.1830052451114 5132.834197217051
1395.9908532864265 5311.970638421279
1396.7985040998774 5376.562277459083
1397.6059577394808 5192.950175705992
1398.4132142592352 5121.778759013896
1399.2202737131156 5216.288899079654
1400.027136155073 5409.654389397743
1400.8338016390353 5213.5040924380355
1401.6402702189134 5184.563558855537
1402.446541948586 5206.580368283619
1403.2526168819204 5162.423333559294
1404.058495072757 5080.118397600309
1404.8641765749107 5160.082117104599
1405.6696614421799 5169.070885693532
1406.4749497283356 5440.209764224566
1407.280041487129 5073.001467227979
1408.084936772295 4922.235318345158
1408.8896356375335 5305.560881574468
1409.6941381365323 5126.057959736642
1410.498444322955 4941.303699226566
1411.3025542504402 5033.5959073251925
1412.106467972606 5117.40299390194
1412.9101855430508 5084.541218412464
1413.7137070153458 4830.191876485
1414.5170324430437 5017.161835826502
1415.320161879672 5067.844479475179
1416.1230953787435 5227.08091121578
1416.925832993742 4879.320700414335
1417.7283747781275 4775.9328448641945
1418.5307207853439 4997.797374882741
1419.3328710688093 4914.051551894938
1420.134825681922 4667.454137208099
1420.9365846780584 4736.498382084733
1421.7381481105713 4987.3205487007
1422.539516032788 4834.14156102717
1423.3406884980232 4677.546052420136
1424.1416655595604 4635.963764471586
1424.942447270665 4756.468156876399
1425.7430336845828 4890.038559132149
1426.5434248545298 4605.604625948777
1427.3436208337116 4700.536834658279
1428.143621675301 4656.2607239021445
1428.9434274324558 4910.950385658441
1429.7430381583108 4565.087628829458
1430.5424539059713 4561.486742864369
1431.3416747285337 5001.277168317056
1432.1407006790632 4781.103494452184
1432.9395318106053 4600.435752741429
1433.7381681761835 4490.925666496565
1434.5366098288014 4531.736508422886
1435.3348568214424 4826.6778355012675
1436.1329092070573 4664.04981719746
1436.9307670385879 4686.08174687686
1437.7284303689503 4818.026291976941
1438.5258992510335 4856.1431762882585
1439.3231737377118 4689.575493874162
1440.1202538818306 4626.826958240875
1440.9171397362225 4665.394320923631
1441.7138313536925 4738.937604347998
1442.5103287870243 4535.096462491745
1443.3066320889775 4468.353552584152
1444.1027413122956 4700.235031326595
1444.8986565096966 4691.657623712481
1445.694377733882 4636.472255562294
1446.4899050375207 4475.46777746506
1447.2852384732687 4596.195596095777
1448.0803780937622 4672.112698472464
1448.8753239516063 4473.779065593232
1449.6700760993954 4308.870951785873
1450.464634589689 4438.891482076091
1451.2589994750397 4726.291304080947
1452.0531708079689 4443.25407860747
1452.8471486409799 4356.486733763062
1453.6409330265524 4679.484323600868
1454.4345240171442 4437.810237932738
1455.2279216651987 4399.881451255762
1456.0211260231263 4376.966062697282
1456.8141371433194 4552.097410720349
1457.6069550781594 4659.162975105681
1458.3995798799897 4290.363505661412
1459.1920116011424 4323.2098725930955
1459.98425029393 4307.898277636307
1460.7762960106338 4294.8366045948005
1461.5681488035225 4361.366216012897
1462.3598087248392 4447.675340236679
1463.1512758268036 4588.186955099148
1463.942550161617 4339.495074806395
1464.7336317814625 4335.394339405213
1465.524520738496 4348.213802099118
1466.3152170848552 4456.83227418272
1467.1057208726506 4338.250219625063
1467.8960321539817 4354.520244181851
1468.6861509809169 4282.302061286506
1469.4760774055085 4230.870559579545
1470.265811479785 4350.780420466207
1471.055353255755 4225.057093745296
1471.844702785409 4124.316083329096
1472.6338601207044 4271.59256286739
1473.4228253135934 4314.090255974743
1474.2115984159936 4136.699424547116
1475.0001794798063 4040.466527989215
1475.7885685569145 4277.709708327337
1476.576765699172 4278.408240241253
1477.3647709584238 4155.559461510598
1478.1525843864802 4429.557679384392
1478.9402060351367 4382.460047461467
1479.7276359561693 4356.286343302154
1480.514874201328 4201.754422182211
1481.3019208223468 4029.7195253019136
1482.0887758709323 4074.2458612671676
1482.8754393987747 4409.010298191592
1483.6619114575406 4080.5769818858585
1484.4481920988783 4208.7158564265565
1485.2342813744108 4278.505553213748
1486.0201793357446 4368.05273866524
1486.8058860344572 4177.4691642722055
1487.591401522117 4204.4401565717135
1488.3767258502594 4284.949761086306
1489.1618590704056 4297.907833591428
1489.9468012340494 3992.956708079171
1490.7315523926754 4242.426795019561
1491.5161125977356 4337.445051903347
1492.3004819006637 4300.896205264171
1493.084660352877 4131.3343209090835
1493.8686480057622 4281.061546145545
1494.6524449106964 4396.312047538181
1495.4360511190262 4488.382967690612
1496.219466682087 4286.125592333044
1497.0026916511779 4203.139583893953
1497.7857260775945 4264.752809328937
1498.5685700125996 4395.22639154465
1499.3512235074395 4150.5372792934495
1500.133686613337 4114.631636717042
1500.9159593814966 4218.40429791287
1501.698041863101 4585.698224996004
1502.4799341093094 4173.544252008724
1503.2616361712662 4030.0659499481903
1504.043148100087 4303.7445137822
1504.8244699468742 4278.560263763158
1505.6056017626997 4037.449348242992
1506.3865435986281 4047.4277959104606
1507.1672955056893 4241.611897249718
1507.9478575348967 4136.140919062642
1508.7282297372512 4433.0898906941375
1509.5084121637192 4184.025657399993
1510.2884048652577 4178.350722312208
1511.0682078927948 4139.5247623283485
1511.8478212972423 4087.447485799506
1512.6272451294917 4069.429499305046
1513.4064794404076 4253.850522804774
1514.1855242808433 4216.87816369423
1514.9643797016215 4152.28704825507
1515.743045753552 4210.449503457679
1516.5215224874191 4221.892125705965
1517.2998099539836 4032.048094137232
1518.077908203999 4180.336016700687
1518.8558172881785 4054.869309946166
1519.633537257234 4292.380878651498
1520.4110681618404 4244.249971695357
1521.1884100526604 4129.041179343255
1521.9655629803365 4079.133106195841
1522.7425269954856 4343.570848184071
1523.5193021487103 4509.19575405638
1524.2958884905856 4084.386844652124
1525.0722860716687 4181.228100174154
1525.848494942502 4108.184922819546
1526.624515153595 4153.4634719757
1527.4003467554485 4126.2614259577385
1528.175989798534 4327.7201084712815
1528.9514443333064 4335.606253380818
1529.726710410203 4352.684355203173
1530.5017880796331 4032.12637190123
1531.276677391992 4113.640439769448
1532.0513783976457 4391.3491555885985
1532.825891146953 4251.404235918443
1533.6002156902414 4210.024171951573
1534.3743520778207 4228.49719523034
1535.1483003599806 4204.346318002607
1535.9220605869923 4332.474683597169
1536.6956328091019 4279.55794592228
1537.4690170765407 4270.8091890164815
1538.242213439511 4326.163904878974
1539.015221948208 4216.1257995875585
1539.78804265279 4209.7241910571
1540.560675603405 4202.685616327278
1541.3331208501804 4372.771430467657
1542.1053784432224 4460.085342654073
1542.8774484326168 4310.5642057302075
1543.649330868422 4232.978670365077
1544.4210258006842 4200.148230283274
1545.1925332794308 4299.0813250987685
1545.9638533546604 4301.579433471643
1546.7349860763552 4170.617465981071
1547.5059314944829 4551.557489998877
1548.27668965898 4280.2545127585145
1549.0472606197673 4418.530275156687
1549.817644426752 4142.338172859434
1550.5878411298072 4506.829624810058
1551.3578507787988 4306.7347476634295
1552.1276734235635 4185.505553173401
1552.8973091139233 4389.029691943735
1553.6667578996767 4523.594501010734
1554.436019830604 4267.175290513367
1555.20509495646 4226.820539520891
1555.9739833269869 4226.028323974157
1556.7426849919011 4271.783583853041
1557.511200000903 4459.090642617876
1558.2795284036674 4382.203649960188
1559.0476702498509 4173.82899742582
1559.8156255890954 4482.1101302152865
1560.5833944710157 4687.481044739998
1561.3509769452048 4225.920875794886
1562.1183730612447 4291.610553228699
1562.8855828686865 4435.41234002268
1563.6526064170703 4585.558329731279
1564.4194437559127 4417.54398961307
1565.1860949347047 4181.03168757336
1565.9525600029283 4596.92796611315
1566.7188390100328 4611.33427864441
1567.4849320054564 4249.137779354916
1568.250839038612 4233.9083289459795
1569.0165601588997 4378.069839754155
1569.7820954156887 4544.017273795513
1570.5474448583373 4221.800244647522
1571.31260853618 4264.063533431321
1572.0775864985299 4183.482432492016
1572.8423787946813 4333.942218793318
1573.6069854739108 4185.918212092116
1574.371406585471 4306.201093455638
1575.1356421785986 4310.30719153114
1575.899692302506 4178.57243347395
1576.6635570063845 4317.372904014804
1577.4272363394157 4250.293601213296
1578.190730350747 4317.5370145115985
1578.9540390895163 4405.151315699839
1579.7171626048384 4035.0841917955468
1580.480100945806 4097.334565789146
1581.2428541614918 4191.850132728292
1582.0054223009538 4364.281571993445
1582.767805413223 4230.881621600847
1583.5300035473156 4154.297723009262
1584.292016752228 4409.418214052778
1585.0538450769309 4354.5059507857895
1585.8154885703807 4021.874950466799
1586.5769472815136 4075.320839311331
1587.3382212592405 4284.8948286980785
1588.099310552463 4378.081802142207
1588.8602152100484 4213.556056407776
1589.6209352808564 4317.4290421867
1590.3814708137234 4328.82302222237
1591.14182185746 4266.5759881841095
1591.9019884608679 4108.153786909764
1592.6619706727215 4123.964992384752
1593.4217685417734 4272.840957758608
1594.1813821167616 4433.059984109857
1594.9408114464022 4158.0732064854565
1595.7000565793933 4220.675344294852
1596.459117564409 4352.049127968714
1597.2179944501113 4277.443439999567
1597.9766872851324 4040.2015389875874
1598.735196118092 4301.768651364053
1599.4935209975883 4356.004527081649
1600.2516619721973 4449.676982051872
1601.0096190904787 4123.804534775897
1601.7673924009723 4151.9992142246865
1602.524981952196 4188.1958358558895
1603.2823877926476 4164.460688438581
1604.0396099708087 4053.2727593358322
1604.7966485351371 4096.221977347038
1605.5535035340745 4149.692094307722
1606.3101750160404 4299.777746229759
1607.0666630294363 4022.1402184476347
1607.822967622642 3989.1397735452824
1608.5790888440224 4244.627274151055
1609.3350267419137 4322.377460902829
1610.0907813646445 4123.060490998083
1610.8463527605145 4066.5041538992728
1611.601740977805 4332.998090868607
1612.356946064785 4138.215120668853
1613.1119680696902 3933.244568012828
1613.8668070407512 4045.74886603603
1614.6214630261748 4023.012815132177
1615.375936074137 4220.182717099237
1616.1302262328118 4083.439535123106
1616.8843335503425 4186.663163360357
1617.638258074854 3980.4418209633195
1618.391999854457 4140.504324117041
1619.1455589372363 4185.883452077456
1619.8989353712623 4122.69828483064
1620.65212920458 3895.9332773946358
1621.4051404852235 3940.3758342895467
1622.1579692611976 4207.433289826223
1622.9106155804966 3984.6732291108733
1623.663079491087 4002.520779597007
1624.4153610409248 4030.762376689836
1625.1674602779385 3935.072659822859
1625.9193772500403 3913.356408794922
1626.6711120051277 4330.9897546202765
1627.4226645910676 4077.126818957503
1628.174035055721 3965.3499708930476
1628.9252234469168 4070.6581878653205
1629.676229812474 3863.8565797439637
1630.4270542001905 4254.688114053121
1631.1776966578382 3999.6898228160294
1631.9281572331747 3874.4085764003203
1632.678435973945 4159.865976862512
1633.4285329278573 4024.090810897616
1634.1784481426203 3884.1353229485794
1634.9281816659113 3895.2343098482525
1635.677733545388 4157.9371924581465
1636.4271038286934 4036.8342093149136
1637.176292563452 4217.485503361059
1637.9252997972635 4045.945715486051
1638.674125577716 4204.775133505483
1639.4227699523672 4454.573877653303
1640.171232968767 3924.407603137981
1640.9195146744423 4025.8443374049266
1641.6676151168977 4228.38493950423
1642.4155343436178 4291.53600754609
1643.1632724020765 4121.859285146427
1643.9108293397167 4196.587912992193
1644.658205203974 4122.1182949425765
1645.4054000422566 4580.016791861338
1646.1524139019566 4117.23781723152
1646.8992468304423 3960.177092643358
1647.6458988750728 4032.776798065292
1648.3923700831765 4208.403833268304
1649.1386605020743 4075.6213031761276
1649.8847701790564 4221.583529391408
1650.6306991614038 4202.117338775005
1651.3764474963682 4281.293599603048
1652.1220152311944 4000.7355847797758
1652.867402413096 4171.296509716445
1653.6126090892776 4292.377061740301
1654.3576353069184 4417.271394031729
1655.1024811131829 4117.020474411156
1655.8471465552066 4063.3877326941792
1656.5916316801213 4362.368332205219
1657.3359365350298 4213.105878198179
1658.0800611670165 4003.7535633443085
1658.824005623148 4142.358545263525
1659.5677699504722 3957.38695118721
1660.3113541960192 4149.909048420832
1661.054758406799 4083.931550760073
1661.7979826297997 3963.557018987227
1662.5410269119966 4086.955688847841
1663.283891300338 4116.0270425994995
1664.0265758417645 3993.2530285054863
1664.7690805831826 4047.2534775958675
1665.5114055714948 4068.5999286421634
1666.2535508535748 4315.508944710197
1666.9955164762814 3776.8311901726056
1667.7373024864555 3898.489604424183
1668.478908930916 3986.67366820113
1669.220335856462 3929.114436138777
1669.9615833098778 3836.4597545391202
1670.7026513379296 3848.125071713877
1671.44353998736 3986.4885488455307
1672.1842493048916 3842.5209169034374
1672.9247793372379 3794.091504322828
1673.6651301310812 3943.474527591191
1674.4053017330934 3822.939316685059
1675.1452941899242 3951.0948765403314
1675.885107548207 3422.3094822010753
1676.6247418545518 3525.3785489518377
1677.3641971555535 3640.008448603393
1678.1034734977893 3847.8864926411434
1678.8425709278108 3760.023692468513
1679.5814894921605 3834.8580954557206
1680.320229237359 3917.4682440572724
1681.0587902098978 3795.6242041583696
1681.7971724562685 3605.810118329551
1682.5353760229264 3461.065343616455
1683.2734009563173 3722.7436313094936
1684.0112473028657 3476.160195456169
1684.7489151089794 3705.044607244511
1685.4864044210462 3706.78845706446
1686.2237152854377 3331.374796147832
1686.960847748498 3724.569112527658
1687.6978018565642 3349.6937764298827
1688.434577655944 3359.1286072082344
1689.1711751929379 3329.534932966851
1689.9075945138156 3464.7364321536284
1690.6438356648396 3387.268810272747
1691.3798986922448 3023.7512340960757
1692.1157836422499 3275.9939075326733
1692.851490561059 3328.097416930589
1693.587019494853 3350.125899272057
1694.3223704897991 3189.5730466204145
1695.0575435920364 3081.8953933266503
1695.792538847696 3539.8719346287426
1696.527356302886 3248.6250415512827
1697.2619960036936 3079.855964656822
1697.9964579961907 3037.4786244737015
1698.730742326432 2816.6017800190557
1699.4648490404488 2880.3221265546736
1700.1987781842563 3032.065844318483
1700.9325298038548 3222.1565835633587
1701.6661039452174 3252.6713479025057
1702.3995006543082 3047.7895659810606
1703.1327199770658 3173.9158679816524
1703.865761959416 2993.9658760530497
1704.598626647261 3146.279857976557
1705.3313140864866 2903.798494020893
1706.0638243229587 2864.3128923637614
1706.7961574025303 3079.1570943018774
1707.528313371029 2943.852589528415
1708.260292274268 2797.8628920664487
1708.9920941580403 2961.127607562357
1709.7237190681226 2962.447838858785
1710.4551670502697 2920.643078118451
1711.18643815022 2669.091606748497
1711.9175324136959 3252.1783669009683
1712.6484498863938 2895.278034921271
1713.379190614005 2749.5062361154805
1714.109754642188 2869.4796213547697
1714.8401420165883 2735.790632262607
1715.570352782839 3237.7853372751133
1716.3003869865497 2912.50051339557
1717.0302446733076 2737.143450177488
1717.7599258886876 2919.297807927802
1718.4894306782444 3115.148302778404
1719.2187590875183 2674.2078736736394
1719.9479111620203 3027.058882498096
1720.6768869472544 2709.428963640075
1721.4056864887025 3026.234538447815
1722.1343098318284 3115.0363039629465
1722.8627570220742 2835.721191749427
1723.591028104871 2685.0153208246306
1724.3191231256242 2616.61764108487
1725.0470421297232 2788.5742905638995
1725.7747851625427 2892.111249364121
1726.5023522694337 2843.4610218685257
1727.2297434957363 2729.0107320038883
1727.9569588867635 2621.84452748952
1728.6839984878152 2792.8179469370807
1729.4108623441734 2478.9581717634646
1730.1375505011038 2889.740477738954
1730.8640630038426 2641.127240756784
1731.5903998976264 2600.4408296892298
1732.316561227657 2743.213565158967
1733.0425470391274 2538.6862303094917
1733.7683573772065 2736.7431630510578
1734.4939922870508 2718.7743806476883
1735.2194518137949 2763.053519755163
1735.9447360025606 2729.6122557979807
1736.669844898439 2631.8639162540453
1737.3947785465189 2463.51466660542
1738.1195369918605 2444.3196344899366
1738.8441202795093 2657.2445439208254
1739.5685284544943 2706.6046908072544
1740.292761561821 2748.9761298565945
1741.0168196464838 2763.6989790151692
1741.7407027534518 2696.38594133128
1742.464410927687 2731.75581602239
1743.187944214118 2643.7163363587565
1743.9113026576688 2665.496335682456
1744.634486303241 2657.5143791209625
1745.3574951957125 2672.7761818720187
1746.0803293799509 2840.6398262533517
1746.8029889008048 2659.19304650663
1747.5254738031017 2739.697581403505
1748.2477841316504 2539.417484671433
1748.969919931249 2682.6080219936866
1749.6918812466665 2697.6731638638507
1750.4136681226646 2695.7459257574756
1751.1352806039777 2612.4670206736882
1751.856718735331 2421.245280613174
1752.5779825614281 2393.5938873126042
1753.2990721269507 2732.2191030041226
1754.0199874765676 2671.494563230302
1754.7407286549314 2459.388213389648
1755.4612957066693 2504.931122108743
1756.1816886763954 2498.0180590419145
1756.9019076087097 2592.421617369352
1757.6219525481865 2604.5379123604243
1758.3418235393856 2659.414380730984
1759.061520626854 2578.6282632887946
1759.7810438551096 2691.9019685597405
1760.5003932686614 2421.889915419649
1761.2195689119999 2697.4705986015074
1761.938570829594 2711.3444115632983
1762.657399065898 2628.8317531739513
1763.376053665348 2396.365349933162
1764.0945346723602 2426.336530881729
1764.812842131334 2704.344576741006
1765.5309760866512 2434.9868490308518
1766.2489365826787 2433.245130326358
1766.9667236637597 2528.642342435318
1767.684337374223 2283.2277248934233
1768.401777758383 2317.2141702051426
1769.1190448605284 2401.2113972924744
1769.836138724937 2330.9976242318253
1770.5530593958665 2491.456756925075
1771.2698069175603 2614.9658843078064
1771.9863813342326 2566.2253754497474
1772.702782690094 2422.5665046486606
1773.4190110293293 2603.4181452541334
1774.1350663961111 2568.34517517907
1774.8509488345844 2487.503270219332
1775.5666583888924 2439.879463679424
1776.2821951031437 2659.743788949557
1776.9975590214362 2459.264113575703
1777.7127501878585 2580.2014728380573
1778.4277686464684 2545.2591709983476
1779.1426144413108 2753.2317871908954
1779.8572876164162 2652.1236214404817
1780.571788215797 2233.091039123639
1781.2861162834415 2509.275070365573
1782.0002718633277 2419.2689356252217
1782.7142549994132 2494.9401519802605
1783.4280657356376 2475.5664982699864
1784.141704115922 2369.690550477485
1784.855170184177 2462.0694882956977
1785.5684639842839 2514.0347720485356
1786.2815855601148 2153.6203082844813
1786.9945349555237 2511.973602593057
1787.707312214343 2293.6133770828696
1788.4199173803918 2758.215449723285
1789.132350497468 2360.022643386723
1789.8446116093583 2371.3043924392905
1790.556700759822 2355.1460753151537
1791.2686179926077 2469.2391213911405
1791.9803633514493 2341.691690730562
1792.6919368800554 2234.217520892311
1793.4033386221236 2610.596426140693
1794.1145686213295 2539.0325131451036
1794.8256269213307 2630.0850775692334
1795.536513565774 2458.3924804660624
1796.247228598284 2149.4110395332636
1796.9577720624693 2318.2525740856017
1797.6681440019165 2434.829505412471
1798.3783444602013 2491.533350330504
1799.0883734808776 2530.9566129260074
1799.7982311074884 2564.5442318322866
1800.5079173835475 2541.96033461111
1801.2174323525633 2541.462335631055
1801.9267760580187 2341.7887166345495
1802.635948543386 2491.294600894089
1803.3449498521113 2221.6557085501163
1804.0537800276325 2682.267381220455
1804.7624391133668 2377.5766208176215
1805.47092715271 2167.807056305087
1806.1792441890484 2271.1893394526896
1806.8873902657433 2449.4321294793144
1807.5953654261448 2272.6716423318367
1808.3031697135812 2332.4598350601073
1809.0108031713662 2274.2738430613663
1809.71826584279 2266.7032207761395
1810.425557771141 2326.4693907234387
1811.1326789996747 2821.0055839205115
1811.839629571632 2415.836355246546
1812.5464095302468 2351.9962144976353
1813.2530189187182 2353.0634008913744
1813.959457780249 2394.9596326727997
1814.6657261580076 2410.978246946374
1815.371824095153 2293.377879658814
1816.0777516348262 2473.2195101602397
1816.78350882015 1985.2921677320846
1817.4890956942272 2222.1836312892547
1818.1945123001533 2287.824151081426
1818.8997586809928 2320.0841391463155
1819.6048348798067 2261.060456707705
1820.3097409396287 2455.100708402304
1821.0144769034796 2581.3183472003175
1821.7190428143622 2435.646514163583
1822.423438715261 2429.059196332197
1823.1276646491478 2398.81533221712
1823.8317206589727 2341.555084991431
1824.5356067876692 2389.1996248021223
1825.2393230781581 2338.4824953513744
1825.942869573335 2133.885148200846
1826.646246316086 2180.5854604983992
1827.3494533492758 2380.374506047081
1828.052490715756 2362.4416112914337
1828.7553584583547 2350.4462329267544
1829.458056619891 2366.285311533226
1830.1605852431585 2326.6572105005916
1830.8629443709433 2189.4056244374533
1831.5651340460063 2157.4720642100588
1832.2671543110919 2156.8193345459463
1832.9690052089318 2385.70725303673
1833.6706867822395 1987.148786380433
1834.3721990737104 2378.7405209459266
1835.0735421260233 2366.3759114544628
1835.774715981841 2172.4839556580114
1836.4757206838058 2563.17605602537
1837.1765562745459 2186.0946037967856
1837.8772227966747 2105.0479718186093
1838.5777202927839 2280.667426232013
1839.2780488054523 2151.1189324103016
1839.9782083772352 2197.568946604714
1840.6781990506806 2517.1713412183
1841.378020868313 2291.0322376840954
1842.0776738726418 2277.0605670140835
1842.777158106157 2129.229901825794
1843.4764736113375 2130.4700595553463
1844.1756204306403 2342.7822879384375
1844.8745986065078 2265.9411604739803
1845.5734081813607 2028.7556010147273
1846.2720491976124 2130.289109122413
1846.970521697649 2198.270070852417
1847.6688257238511 2219.0720149076824
1848.3669613185684 2123.8726724843414
1849.0649285241452 1976.1601818982604
1849.7627273829057 2312.6098426636736
1850.460357937156 2205.004826600799
1851.1578202291857 2004.0068573292945
1851.8551143012664 2224.6337054227142
1852.5522401956569 2207.14410802838
1853.2491979545957 2444.9833951305604
1853.9459876203055 2027.091770265232
1854.6426092349902 2196.0217849976034
1855.3390628408451 2105.050164706729
1856.0353484800362 2398.950297661537
1856.7314661947203 2279.8640871443686
1857.4274160270397 2024.1469190314085
1858.123198019115 2081.0941621639386
1858.8188122130487 1960.7185808981862
1859.5142586509319 2250.673507740695
1860.209537374838 2209.088343252972
1860.9046484268183 2269.772228556671
1861.599591848917 2460.7354849333688
1862.294367683151 2207.1560585186157
1862.988975971528 2074.8763831832853
1863.6834167560355 2272.9825408444713
1864.3776900786452 2374.713538610112
1865.0717959813119 2131.576615893847
1865.7657345059724 1965.7150768036324
1866.4595056945564 2287.394578312509
1867.1531095889586 2334.586870014385
1867.846546231076 2012.273223849876
1868.5398156627743 2319.233168177304
1869.2329179259123 2214.431446324866
1869.9258530623283 2340.753218011204
1870.618621113843 2118.2368135189745
1871.3112221222636 2014.6425560749085
1872.0036561293764 2150.593727848063
1872.695923176956 2150.465999611529
1873.3880233067594 2246.1947624168515
1874.0799565605212 2010.2115966518165
1874.7717229799673 2091.925043613677
1875.4633226068036 2370.413473516934
1876.1547554827175 2181.74004421227
1876.8460216493859 2006.0177800838107
1877.5371211484617 2146.4097358143335
1878.2280540215852 2143.721072073583
1878.9188203103804 2066.6366230267768
1879.6094200564548 2141.7858384967226
1880.299853301396 2069.8475775932
1880.9901200867826 2278.148542854006
1881.6802204541673 2253.212571310096
1882.3701544450942 2230.86919936301
1883.059922101087 2028.8377593641121
1883.7495234636517 2004.8979684318322
1884.4389585742792 1980.891511925904
1885.1282274744517 2119.4412808865163
1885.8173302056166 2570.2364463019426
1886.506266809225 2233.7972793215476
1887.195037326701 1906.7519141116063
1887.8836417994517 2076.053485740335
1888.5720802688702 2343.1012868955504
1889.260352776333 2256.2664374609712
1889.9484593632042 2374.414171348816
1890.63640007082 2056.36318108957
1891.3241749405151 1954.8884754404546
1892.0117840135954 2241.056006771403
1892.6992273313572 2109.065474935123
1893.3865049350788 1973.2441261826432
1894.0736168660223 2374.3758583281024
1894.7605631654333 2190.6965008899683
1895.4473438745408 1867.8519052019615
1896.133959034556 2009.3430911461633
1896.820408686679 2150.921729818433
1897.506692872088 2337.294708055173
1898.192811631945 2110.0682790447217
1898.8787650073991 2209.835607343275
1899.5645530395832 2220.247813260183
1900.2501757696118 2303.203232250863
1900.9356332385796 2020.49357449087
1901.620925487574 2441.8874522976685
1902.3060525576602 2114.7157707779656
1902.9910144898859 2235.7538974496465
1903.6758113252872 2127.142961307203
1904.3604431048789 2098.4859612166124
1905.0449098696663 2366.8584270987108
1905.7292116606295 2021.0319596796812
1906.4133485187394 2135.589791064079
1907.0973204849488 1772.2435409759692
1907.7811276001976 1956.2557427023032
1908.4647699053967 2100.279509388226
1909.1482474414588 2029.4685178212399
1909.8315602492694 1958.4210771390365
1910.5147083696957 2281.717917381876
1911.1976918436012 1972.846264017487
1911.880510711815 1916.4291916264654
1912.5631650151681 1939.0415300123527
1913.2456547944657 1961.633804874033
1913.927980090495 2106.884606571258
1914.6101409440362 1989.3276688799797
1915.2921373958416 2228.1023455715276
1915.9739694866603 1944.1621729867172
1916.655637257214 2347.9548711570806
1917.3371407482136 2023.9258945740032
1918.0184800003572 2281.1044849427126
1918.6996550543154 2298.520151480651
1919.3806659507554 2176.72117938987
1920.0615127303208 2080.6370530698355
1920.7421954336423 2230.444660353526
1921.4227141013343 2167.540926774368
1922.103068773993 2024.577112786888
1922.783259492202 2096.3687196351607
1923.4632862965227 2087.3381208183173
1924.1431492275078 1991.7831207066295
1924.8228483256917 1980.0850333168673
1925.5023836315922 2066.3961432986607
1926.1817551857057 1764.6378186007867
1926.8609630285227 2254.6126179429207
1927.5400072005123 2245.3135042344484
1928.218887742125 1879.5896218921505
1928.8976046938005 1924.4976531129385
1929.5761580959588 2202.1614838149085
1930.2545479890086 2161.4166229430853
1930.9327744133352 1770.1539092433832
1931.6108374093164 1998.0589436098303
1932.2887370173066 1893.039336867893
1932.9664732776473 1787.7283332703287
1933.6440462306673 2061.659839363362
1934.3214559166754 2114.945769933765
1934.9987023759659 2225.0494314989473
1935.675785648813 2290.8264422784805
1936.3527057754836 1794.4819336135217
1937.029462796223 1862.3364056655223
1937.70605675126 1930.3793561442308
1938.3824876808085 1897.3149658945026
1939.058755625072 2096.5776481606563
1939.7348606242267 2051.3072500579447
1940.4108027184448 2054.6265530788924
1941.0865819478713 2161.153455514451
1941.7621983526478 1825.92726270945
1942.4376519728921 1878.7693613942197
1943.1129428487038 1998.817776242939
1943.7880710201734 2103.7295764510427
1944.4630365273733 2097.3411836671576
1945.1378394103576 1753.2298065814969
1945.8124797091714 1784.3677503677136
1946.4869574638324 1815.5051113020672
1947.161272714353 2014.0337452101016
1947.8354255007234 2139.4942169116953
1948.5094158629272 2040.9132074036904
1949.1832438409183 2108.5284857486927
1949.8569094746435 2140.43375855182
1950.530412804037 2287.7155115880914
1951.2037538690092 2243.196429076541
1951.8769327094578 1964.596249039779
1952.5499493652678 1894.3702025324135
1953.222803876306 2225.5724423468314
1953.895496282421 2101.7369997479577
1954.5680266234522 2074.0229802387885
1955.2403949392155 2069.5700165419785
1955.9126012695142 1865.1362270183897
1956.5846456541403 1963.898940403668
1957.2565281328643 2085.270994619874
1957.9282487454457 2056.3973330799927
1958.5998075316202 2260.2845868268078
1959.27120453112 1871.5711570526669
1959.9424397836501 1941.612449840104
1960.613513328908 2097.0619519897928
1961.2844252065697 2259.611823041425
1961.9551754563017 1874.5869942998106
1962.6257641177453 1966.3383061037398
1963.29619123054 1838.9035489516111
1963.966456834296 1866.6268774731948
1964.6365609686181 1752.5793564667013
1965.306503673086 2115.97125081968
1965.976284987275 1805.735692981716
1966.645904950734 2030.4347022092272
1967.315363603002 1788.763217244775
1967.9846609836077 1955.2932923749202
1968.6537971320486 1992.552370221953
1969.3227720878222 2122.568670191435
1969.9915858904042 2040.2679125847776
1970.660238579252 2132.8405007857077
1971.3287301938108 1931.0529651654288
1971.997060773514 1858.8223701278534
1972.665230357772 1834.2359783935383
1973.3332389859843 1914.7956118677423
1974.0010866975335 1728.0592564325034
1974.6687735317864 2012.2653716446796
1975.3362995280932 2065.641118568335
1976.003664725793 2174.6598189440406
1976.6708691642052 1740.7692063569914
1977.3379128826364 2022.554118130259
1978.004795920373 2172.146540492887
1978.6715183166925 1859.5764492114104
1979.3380801108524 2112.8258958407678
1980.0044813420973 1904.636517880604
1980.6707220496555 1597.4881146091868
1981.3368022727373 2093.0552803581386
1982.0027220505417 2037.7868980181258
1982.66848142225 1569.3794386317536
1983.3340804270283 1719.099921864321
1983.999519104027 1962.408863251158
1984.6647974923835 2088.8271404022084
1985.329915631215 2137.128979275313
1985.99487355963 1849.6393526671793
1986.6596713167146 1808.086079766033
1987.3243089415428 1766.3795599448513
1987.9887864731754 2010.8667482745211
1988.6531039506553 1840.03324523612
1989.3172614130071 1868.367372249873
1989.9812588992481 1896.7798260793602
1990.645096448372 1663.7642844996942
1991.3087740993633 1904.2382188220377
1991.9722918911848 1941.46444305688
1992.635649862792 1915.886858362533
1993.2988480531185 1965.4399635408001
1993.9618865010852 2134.0760013458535
1994.6247652455968 1793.3971892656687
1995.287484325545 1849.3313497403171
1995.9500437798033 1885.0858560220925
1996.6124436472292 1801.54924959111
1997.2746839666706 2059.255846931221
1997.936764776954 1798.739697753725
1998.598686116895 1861.3561525034324
1999.2604480252903 2069.7466545640536
1999.9220505409212 2082.381305627946
2000.5834937025593 1809.107651626311
2001.2447775489582 1817.1298171108094
2001.9059021188514 1974.3946867871884
2002.5668674509616 1758.5362642089888
2003.2276735839987 1889.9034784880246
2003.8883205566508 2067.8129565384565
2004.5488084075987 1893.5603941724798
2005.2091371755014 1811.1078523802887
2005.8693068990033 1626.179363052925
2006.5293176167397 1688.0701738586795
2007.1891693673224 1750.2188246743285
2007.848862189354 1686.5851733656552
2008.5083961214223 1922.0907960108725
2009.1677712020955 1818.238269076271
2009.8269874699254 1672.6171595176238
2010.4860449634598 1702.3812815921556
2011.1449437212177 1732.3237801177797
2011.8036837817108 2168.529151306054
2012.4622651834325 2005.2330674546527
2013.1206879648653 2007.1773493587057
2013.7789521644736 1803.3893603970726
2014.4370578207036 2054.8367848489506
2015.0950049719922 1855.2260358981634
2015.7527936567585 2011.9878931346684
2016.4104239134067 1739.2483756907088
2017.067895780323 1635.9588108187345
2017.725209295886 1532.3280129196241
2018.3823644984514 2108.2908533391414
2019.0393614263648 1952.9021817436776
2019.6962001179545 1836.4189920907097
2020.3528806115355 2095.57308543564
2021.0094029454067 1968.3082068258987
2021.6657671578487 1604.711985409685
2022.321973287133 1941.7206066619797
2022.9780213715148 1766.7664271098843
2023.6339114492293 1911.0392399432578
2024.2896435585026 1868.937799012423
2024.9452177375442 1978.5269739591815
2025.600634024544 2004.4893975325572
2026.2558924576842 1975.5171985091147
2026.9109930751292 2177.935771711921
2027.565935915025 2208.234281625452
2028.2207210155066 2238.6095269100542
2028.8753484146964 2323.9333578655574
2029.529818150695 2196.012817363987
2030.1841302615903 2067.5354859429185
2030.8382847854573 1737.4919087972908
2031.4922817603601 1913.860015416596
2032.1461212243357 1885.6572829244458
2032.7998032154192 1742.0066501626934
2033.4533277716218 1823.949140954402
2034.1066949309443 1799.2730554786517
2034.7599047313688 1660.0304162522389
2035.4129572108704 2017.8874429836637
2036.0658524074006 1911.478923087338
2036.7185903589016 1987.8892992412189
2037.3711711032956 1965.2351408920779
2038.023594678496 1909.5716673898514
2038.675861122394 1791.0012782202834
2039.3279704728757 2039.6742624404683
2039.9799227678031 1656.6277250300893
2040.6317180450278 1857.223810565742
2041.2833563423865 1900.6987995137392
2041.9348376977014 2266.7170122208486
2042.5861621487784 2003.451192211125
2043.2373297334088 1809.6283202549057
2043.8883404893695 1975.6071540692672
2044.5391944544208 2015.530979281462
2045.1898916663158 2243.1276033343097
2045.8404321627804 2206.8654486579553
2046.4908159815368 1815.4561998796864
2047.1410431602853 1813.2234481865266
2047.7911137367173 1716.713947380662
2048.441027748504 1702.998114409281
2049.090785233302 1689.205511833205
2049.7403862287592 1842.6128138285435
2050.389830772503 1763.7233760197814
2051.0391189021466 1684.8094736450003
2051.688250655294 1894.7920264830245
2052.337226069527 1648.478613295531
2052.986045182417 2006.3962774571748
2053.634708031521 1543.85120798586
2054.283214654375 2064.8348674020863
2054.931565088511 1616.436670920973
2055.579759371436 1720.613870580836
2056.2277975406523 1882.5257986370289
2056.8756796336384 2118.0402701856806
2057.5234056878617 1670.0217350716143
2058.1709757407752 1719.4889528160318
2058.8183898298194 2028.1320809002948
2059.465647992416 2001.3790141353177
2060.1127502659747 2016.3860842715635
2060.759696687888 1727.6374775887089
2061.4064872955405 1874.028230802064
2062.053122126292 1673.690560128148
2062.699601217497 1473.3799010846362
2063.345924606485 1623.479526479894
2063.992092330587 1862.2505014009578
2064.638104427102 1768.7663900833486
2065.283960933324 2205.437085905281
2065.92966188653 2004.1945346440548
2066.5752073239855 2095.9532471877505
2067.2205972829397 1771.7536539151474
2067.86583180062 1919.2426309662005
2068.5109109142522 1781.305891352586
2069.15583466104 1796.9313691569532
2069.8006030781708 1645.1651422043353
2070.445216202821 1746.1876363438805
2071.089674072153 2033.0867301157002
2071.7339767233116 2037.4308624812245
2072.3781241934303 1810.1891617537362
2073.0221165196253 1904.6644436094816
2073.6659537390024 1753.7578030419706
2074.3096358886505 1948.9929016454348
2074.953163005637 1774.076067326359
2075.596535127028 1623.0177622786184
2076.2397522898664 1651.5330479670552
2076.882814531182 1804.956932145134
2077.5257218879924 1738.4850956720013
2078.1684743973 1619.1517606052075
2078.8110720960885 1711.9750898400223
2079.453515021336 2145.955342930332
2080.095803209997 1878.295838057035
2080.7379366990135 1844.815165503287
2081.37991552532 1982.6438950844536
2082.0217397258275 1929.5440462608954
2082.6634093374414 1666.8511834185513
2083.3049243970418 1784.1355820190067
2083.9462849415067 1936.2627004635092
2084.587491007689 1944.5430688499014
2085.2285426324324 1847.9250209711772
2085.869439852564 1755.8784196015172
2086.510182704902 1649.8510560441578
2087.1507712262483 1859.640899059233
2087.791205453381 1658.4959853832836
2088.4314854230743 1919.593869694334
2089.0716111720867 1852.7030108361882
2089.7115827371617 1517.4446873038517
2090.351400155023 1596.051368683377
2090.991063462385 1674.8789141035236
2091.6305726959527 1466.8877513825994
2092.2699278924047 1591.9577388255962
2092.9091290884153 1717.3503206706077
2093.548176320641 1584.8674225673299
2094.187069625721 1570.231764393931
2094.8258090402887 1555.5634311473427
2095.464394600951 1843.2685709135808
2096.102826344313 1874.6368076721562
2096.741104306955 2071.7200129042894
2097.379228525453 1721.2240961161376
2098.017199036358 1876.7794637666161
2098.6550158762147 2032.6593781009335
2099.2926790815527 1987.6859331566927
2099.9301886888825 1913.0521727123512
2100.5675447347076 1736.5420640714867
2101.2047472555114 1881.609792841366
2101.841796287761 1772.2247502285056
2102.47869186792 1924.7682252971827
2103.1154340324265 1732.0985586079455
2103.752022817709 1794.6142043861757
2104.388458260184 1789.4436057888615
2105.024740396251 1942.739927647243
2105.660869262292 1644.3489444942595
2106.296844894685 2009.2412802466933
2106.93266732978 1858.5625885608192
2107.5683366039284 1583.091667637979
2108.2038527534532 1883.4263712036213
2108.8392158146726 1897.7635562376902
2109.4744258238843 1707.9335694180058
2110.1094828173755 1728.1599701436942
2110.744386831422 1759.3079906764774
2111.3791379022787 1790.5659836229456
2112.01373606619 2141.960297554996
2112.648181359389 1824.3338679058456
2113.28247381809 1918.7388923075755
2113.916613478492 1983.0051690539663
2114.550600376786 1870.105093354178
2115.1844345491445 1731.3087533177154
2115.818116031729 1633.4596658551127
2116.451644860679 1851.9575006267933
2117.085021072133 1531.9529343032173
2117.718244702204 1551.7042193421116
2118.3513157869984 1638.5883029712531
2118.984234362604 1539.7430506969204
2119.617000465092 1695.1375957024109
2120.249614130529 2041.7397714396016
2120.8820753949585 1832.5978798216238
2121.5143842944162 1706.5695873540067
2122.14654086492 1677.4053856007936
2122.7785451424734 1986.2249558911922
2123.4103971630702 1902.937452180163
2124.042096962681 1819.665641359341
2124.6736445772767 1926.8627780759584
2125.305040042802 1609.676639702793
2125.936283395191 1751.5875397767545
2126.567374670365 1912.3582785654387
2127.198313904233 1661.8155542797952
2127.8291011326855 1646.897861354307
2128.4597363916037 1631.7532490470546
2129.0902197168507 1807.2395470770261
2129.720551144279 1993.4245191845512
2130.3507307097225 2179.737027635369
2130.980758449008 1988.0171233110693
2131.6106343979427 2032.8204847058266
2132.2403585923203 2077.569071200931
2132.8699310679276 1865.2093080514253
2133.499351860526 1902.31984691794
2134.1286210058715 1730.8588636678808
2134.7577385397053 1898.597659365309
2135.3867044977487 2066.604580342995
2136.0155189157176 2079.1510560981956
2136.644181829308 2035.5034731134874
2137.2726932742025 1807.7134399703632
2137.901053286074 1991.0089454316653
2138.5292619005777 1593.5556598158196
2139.1573191533535 1730.6300787901698
2139.7852250800315 1817.6921682088246
2140.4129797162295 1828.1769420413523
2141.0405830975433 1419.2214618799567
2141.6680352595613 1466.5955216714033
2142.2953362378576 1514.0770378380919
2142.9224860679915 1727.7979933692138
2143.549484785508 1616.9384205655608
2144.1763324259373 1700.7910121193108
2144.803029024799 1647.9160549740748
2145.429574617594 1597.3979740883544
2146.0559692398165 1685.0286594435952
2146.682212926942 1626.589696622186
2147.308305714432 1617.5087365605527
2147.9342476377333 1902.1043797695384
2148.5600387322847 2213.7142399881677
2149.185679033506 1829.242041789059
2149.8111685768017 1634.2418904353292
2150.4365073975678 1616.3525238126906
2151.061695531187 1744.0984415780022
2151.686733013021 2037.0365183968254
2152.311619878423 1867.778975256079
2152.9363561627342 1702.0353738309645
2153.560941901278 1653.7743373332826
2154.1853771293663 1779.7044123424153
2154.809661882293 1683.5747916562063
2155.433796195348 2198.47748159995
2156.0577801037944 2098.1407588979314
2156.681613642895 1997.4934859532536
2157.3052968478896 1783.456880725505
2157.928829754006 1799.551590478964
2158.552212396462 1858.1948337307708
2159.1754448104566 1748.3205324888877
2159.7985270311783 1589.5391517657595
2160.4214590938027 1241.1828740353399
2161.0442410334927 1471.8304291353397
2161.6668728853874 1781.7536544764184
2162.289354684628 1598.507314816224
2162.911686466332 1643.9584983397338
2163.533868265602 1882.4169338278364
2164.1559001175337 2049.9389827038585
2164.7777820572046 1832.3952401482907
2165.399514119681 1807.8702452876012
2166.021096340013 1585.8092574079164
2166.6425287532384 1864.019625546869
2167.263811394385 1459.593652167674
2167.8849442984574 1490.9199809086927
2168.505927500455 1522.4619761050012
2169.126761035366 1952.3914325099443
2169.7474449381552 1608.4666335889988
2170.367979243778 1844.2164545751868
2170.9883639871823 1460.1238852771467
2171.608599203293 1628.1572445039644
2172.2286849270276 2061.4304095842745
2172.8486211932886 2240.508829455605
2173.4684080369625 1809.9085180380985
2174.0880454929265 1408.4874518183267
2174.7075335960417 1371.933780888855
2175.3268723811543 1467.5482703428117
2175.9460618831 1563.4244105168034
2176.565102136701 1611.846055240065
2177.1839931767627 1724.8243257458482
2177.802735038078 1838.1259507712534
2178.421327755432 1576.984304404124
2179.0397713635866 1496.4069105968006
2179.658065897298 1494.3117506262288
2180.276211391305 1394.5868350315784
2180.8942078803357 1677.185108137562
2181.5120553991 1645.6058432667753
2182.129753982299 1431.5540560718568
2182.7473036646206 1712.3756070673626
2183.3647044807367 1730.4654008963134
2183.9819564653044 1495.7036922499792
2184.599059652968 1828.9357982220256
2185.216014078367 1781.288077535679
2185.832819776113 1873.2572920826601
2186.4494767808137 1965.337632480126
2187.065985127063 1597.943651485305
2187.682344849436 1595.44122817519
2188.298555982501 1610.421991455374
2188.9146185608097 1625.3262408324108
2189.530532618901 1826.2936843900166
2190.1462981912937 1767.959113310421
2190.761915312507 1875.5626228345013
2191.377384017036 1708.372779958112
2191.9927043393654 1611.8317200746374
2192.6078763139667 1858.968030618241
2193.2228999753006 1488.009528477325
2193.837775357808 1739.6920331257702
2194.452502495922 1429.4680233408758
2195.0670814240602 1633.6559737185105
2195.6815121766285 1418.6563349192677
2196.2957947880186 1391.9464549258996
2196.9099292926057 1365.1875001804246
2197.523915724758 1669.1756681477218
2198.137754118825 1581.4531789709993
2198.7514445091456 2029.7849020985777
2199.3649869300443 2067.9883001633293
2199.9783814158327 2106.367777276939
2200.5916280008096 2002.4312339745852
2201.2047267192593 2047.862084083911
2201.8176776054515 1742.5887247833148
2202.430480693649 1600.4050714122336
2203.0431360180955 1873.578031476447
2203.6556436130195 1574.648315748378
2204.268003512645 1845.8194874694477
2204.8802157511727 1650.872622728722
2205.492280362796 1956.617192014562
2206.1041973816937 1784.4912032992113
2206.715966842032 1684.7598973582838
2207.3275887779655 1830.3683198312483
2207.93906322363 1742.8100582506006
2208.550390213153 1937.7100644304435
2209.1615697806465 2019.9852224803803
2209.7726019602105 1670.5740155264734
2210.3834867859277 1595.5270931539392
2210.9942242918787 1637.3639271704021
2211.6048145121167 1691.7982656638555
2212.2152574806914 2223.8768315455977
2212.825553231638 2252.398474857866
2213.435701798975 2281.092623730973
2214.045703216707 1842.281432275596
2214.655557518832 1148.1745361369813
2215.2652647393297 1517.8016306452898
2215.874824912169 1663.4243331461796
2216.4842380713 1809.5630933341465
2217.09350425067 1487.4536129061662
2217.7026234842033 2014.9384602470086
2218.311595805819 1917.6411353318958
2218.9204212494133 1638.661803369762
2219.52909984888 2113.7004714873087
2220.137631638092 1436.207914689558
2220.7460166509154 2056.4798998976903
2221.354254921198 1472.0037494816067
2221.9623464827764 1767.5899706713008
2222.5702913694713 1649.9973528759517
2223.178089615096 1897.4055537754375
2223.7857412534486 1608.4560974121637
2224.39324631831 1337.6858283748902
2225.000604843457 1529.2132510505833
2225.607816862641 1842.2292962260362
2226.214882409611 1800.3798598407993
2226.8218015180973 2025.721618227021
2227.4285742218217 1794.2100532880427
2228.0352005544864 1621.627868785471
2228.6416805497847 1360.450917352265
2229.248014241399 1701.5986219992906
2229.8542016629945 1364.7829023566624
2230.460242848223 1807.8414061042185
2231.0661378307304 1667.408304518994
2231.671886644139 1526.8560695463739
2232.277489322065 1373.8119428915275
2232.8829458981127 1364.514734423973
2233.48825640587 1615.6042432631975
2234.0934208789095 2187.274287462571
2234.6984393507955 2013.9449626927224
2235.3033118550793 1637.818509632406
2235.9080384252975 1579.2088013346158
2236.5126190949723 1336.631505806506
2237.1170538976166 1423.8980670298492
2237.721342866729 1335.867614747442
2238.32548603579 1576.9566170849898
2238.9294834382763 1773.0180174417533
2239.533335107646 1579.4845197408426
2240.1370410773434 1736.212888871305
2240.740601380803 1524.7060790144565
2241.3440160514474 1658.1409777138513
2241.9472851226783 1850.634872427913
2242.550408627896 1671.1619461796922
2243.1533866004793 1659.320433007375
2243.756219073799 1647.4867278809274
2244.3589060812064 1389.2597858695729
2244.961447656049 1461.3858272671991
2245.5638438316564 1527.763666438045
2246.166094641343 1776.2828150053253
2246.7682001184166 1502.5582279997802
2247.3701602961664 1438.8186416347928
2247.971975207871 2026.3658714278179
2248.5736448867974 1936.245499047135
2249.175169366197 1523.2641273899178
2249.7765486793123 1737.3762853062467
2250.3777828593684 1618.1543109657782
2250.9788719395783 1644.6869366678034
2251.579815953146 1771.0814312496673
2252.1806149332606 1745.3533122088434
2252.781268913097 1719.5461664584443
2253.381777925817 1535.3191016734254
2253.9821420045737 1815.8107678345236
2254.5823611825035 1927.6425845807069
2255.1824354927303 1921.403169276131
2255.782364968365 1665.0653898288815
2256.38214964251 1408.4247066215448
2256.9817895482483 1461.9723158176616
2257.5812847186553 1604.2233039458665
2258.180635186791 1611.535198871189
2258.779840985704 1761.7660869316792
2259.37890214843 1915.3111416138418
2259.97781870799 1593.145793105306
2260.5765906973957 1749.8717531389418
2261.175218149645 1644.2935033129313
2261.773701097718 1524.1516456550598
2262.3720395745895 1403.761477738026
2262.970233613216 1288.4159695346032
2263.568283246548 1384.0528526577234
2264.1661885075137 1479.7786699113544
2264.763949429038 1518.7357467113331
2265.3615660440246 2026.5823434255963
2265.959038385374 1346.2330564927438
2266.5563664859637 2012.751529324285
2267.153550378669 1395.3899297849225
2267.7505900963424 1909.4596868859687
2268.3474856718312 1614.1468500109809
2268.9442371379664 1708.7404849846087
2269.5408445275643 1563.9669776387593
2270.1373078734377 1461.7225425792333
2270.7336272083758 1713.378964894308
2271.32980256516 1608.7691682170368
2271.925833976562 1777.5139618209428
2272.5217214753357 1620.5010882558183
2273.117465094223 1463.1410785311448
2273.7130648659586 1452.2779095398228
2274.308520823257 1542.9553092711044
2274.903832998827 1667.6948754996442
2275.4990014253563 1536.7024164558088
2276.094026135528 1450.1883396851017
2276.6889071620117 1835.4019866243202
2277.2836445374614 1740.3669840128837
2277.878238294519 1560.7415419344798
2278.472688465812 1392.3730758651245
2279.066995083962 1223.7033642508839
2279.6611581815705 1635.5835209967095
2280.255177791232 1528.166317442961
2280.8490539455233 1671.5034160442297
2281.442786677013 1815.1781497385887
2282.0363760182554 1875.9836449864201
2282.6298220017943 1603.7105119806115
2283.223124660155 1971.8254220071024
2283.816284025859 1533.823773992092
2284.4093001314086 1531.6870452638557
2285.002173009292 1529.5778299504752
2285.5949026919952 1686.4565259827982
2286.1874892119777 1672.7225699829032
2286.7799326016993 1726.3957804875622
2287.3722328936 1486.1756394326615
2287.964390120109 1611.1326090128912
2288.556404313642 1736.2093195393657
2289.1482755066027 2029.2371816077987
2289.7400037313873 1655.4883969895338
2290.3315890203703 1522.6178573453076
2290.9230314059205 1872.9490470581254
2291.5143309203904 1607.3006694386586
2292.1054875961236 1532.7502440465644
2292.6965014654506 2012.521604529316
2293.287372560684 1519.8572115635068
2293.878100914131 1493.6788234338367
2294.468686558086 1467.492624901079
2295.059129524827 1717.2479021881522
2295.649429846617 2047.1553212385184
2296.239587555716 1757.6281629586451
2296.8296026843636 1461.0217491552442
2297.419475264791 1575.0301624840076
2298.0092053292137 1689.1531776205088
2298.598792909839 1791.366671645618
2299.1882380388597 1688.6697945736287
2299.777540748455 1720.305437564147
2300.3667010707904 1751.8735493372394
2300.9557190380256 2006.3827279911657
2301.544594682302 2102.1835461575456
2302.1333280357503 1541.180371758582
2302.721919130485 1696.2905823400747
2303.3103679986198 2125.026596656424
2303.898674672242 1994.5813426937852
2304.486839183437 1521.1661171111223
2305.0748615642697 1519.3772403778444
2305.6627418468015 1775.903106264488
2306.2504800630704 1551.726898354702
2306.8380762451143 1644.063367848378
2307.425530424949 1687.24047469668
2308.012842634582 1730.5035409224743
2308.6000129060103 2121.93174687712
2309.187041271214 1790.4950424245526
2309.773927762164 2073.9539180228358
2310.3606724108213 1867.16306995481
2310.9472752491274 1891.4379068915289
2311.5337363090184 1915.8121223664439
2312.120055622414 1712.2567462241707
2312.706233221221 1671.845809774411
2313.2922691373424 1203.6642981614923
2313.8781634026564 1343.7663298888363
2314.463916049037 1484.1900539277613
2315.049527108342 1806.645216936582
2315.6349966124235 2004.7038867329934
2316.2203245931123 1761.431946314923
2316.8055110822315 1476.2994356930162
2317.3905561115935 1368.9170775298653
2317.9754597129977 1673.1064796012076
2318.560221918229 1541.6963336234853
2319.1448427590603 1410.0214655709767
2319.729322267256 1285.5620753024584
2320.313660474563 1494.8645264423833
2320.8978574127195 1673.1690328631757
2321.481913113452 1852.0288500919512
2322.0658276084705 1512.582417341457
2322.6496009294806 1462.9308998765894
2323.233233108165 1697.5791057697793
2323.8167241762058 1520.689913662523
2324.4000741652617 1579.8133844534464
2324.983283106987 1791.8601208985215
2325.5663510330232 1655.25701100151
2326.1492779749933 1518.1462563736236
2326.7320639645204 1654.4453346525424
2327.3147090332004 1991.5104103077779
2327.897213212629 1532.112971956434
2328.4795765343843 1779.729662277135
2329.0617990300307 1405.5980499367165
2329.643880731124 2079.6093672494058
2330.22582166921 1534.368629959045
2330.807621875816 1385.629197393465
2331.3892813824623 1236.7705970273382
2331.9708002206517 1421.1398805717931
2332.5521784218818 1882.7828757710272
2333.133416017634 1823.5172308992674
2333.7145130393765 1957.3384629235002
2334.295469518571 2091.4866419344444
2334.876285486658 1904.4518674156698
2335.456960975076 1910.8301223659419
2336.037496015242 1917.2557315192535
2336.6178906385667 1631.9495738122089
2337.198144876451 1692.109361725214
2337.778258760278 1591.1769275451375
2338.3582323214214 1643.7061799957494
2338.938065591243 1696.3162543338087
2339.517758601087 1949.519850934108
2340.0973113822965 1631.1255215677897
2340.676723966193 1500.0127175360399
2341.255996384094 1734.6519628117912
2341.835128667295 1843.5808413116556
2342.4141208470883 1833.3428453751778
2342.992972954751 1852.534261592829
2343.5716850215467 1826.6691878402082
2344.1502570787306 1129.0866372777373
2344.7286891575386 1475.8143467757284
2345.3069812892045 1617.9203475210202
2345.885133504944 1760.1433868574077
2346.4631458359618 1357.457944255014
2347.04101831345 1342.6762473404012
2347.6187509685915 1533.5486825235796
2348.196343832553 1461.2072492353236
2348.7737969364935 1445.5121160769536
2349.351110311558 1429.827207984095
2349.9282839888765 1416.7862678779527
2350.5053179995757 1475.5029997410024
2351.0822123747585 1056.5321953078358
2351.658967145526 1132.7152007764228
2352.2355823429643 1209.0925173019223
2352.812057998144 1719.1391008632374
2353.3883941421263 1487.1885466967508
2353.9645908059647 1615.3195085010068
2354.540648020693 1416.3642122945414
2355.116565817336 1647.8801743513227
2355.6923442269126 1409.7707238461558
2356.2679832804224 1564.0880981340802
2356.8434830088518 1728.422926687935
2357.41884344318 1424.0267597637517
2357.994064614377 1756.7219650241
