#exp_cfg={"servo_angle": 0.0, "laser_lim": 100.0, "servo_angle_to": 18.0, "laser_wup": 0.0, "bt_dev": "EnSpectr-25AE3", "laser_wdn_max": 0.0, "frames": 10.0, "servo_used": 0, "servo_calib_use": 0, "laser_wdn_min": 0.0, "servo_pix_from": 90.0, "cooler_tout": 300.0, "servo_angle_from": 0.0, "servo_calib": "[-1.9174921013161362e-09, 3.9322238269163779e-05, -0.27385609119055809, 653.59552119713567]", "laser_autoctl": 0, "servo_pix_to": 3682.0, "laser_pw": 100.0, "cooler_on": 0, "laser_volt": 4.0, "cooler_autoctl": 0, "cooler_curr": 70.0, "cooler_startup": 10.0, "laser_fixed_pw": 0, "gain": 1.3, "offset": 2.53059635486, "servo_calib_degree": 3.0, "laser_curr": 55.0, "shutter": 8200.0, "servo_calib_step": 1.0, "laser_fixed_curr": 0, "exp": 2000.0, "ccd_volt": 4.7, "bt_addr": "00:06:66:62:5A:E3", "servo_delay": 500.0, "laser_autooff": 1}
#proc_cfg={"flat_auto_wnd": 200.0, "flat_auto_fr": 200.0, "flat_auto_shift": 5.0, "yconv": 1, "flatten": 1, "flatten_strength": 100.0, "xfrom": 300.0, "auto_max_frame": 2000.0, "auto_signal": 48000.0, "flat_auto_tol": 0.1, "autoclip": 1, "xrel_range": 0.0, "flat_auto_to": 4000.0, "intensity_adj": 1.0, "xrel": 7852.0, "rmhot": 1, "flat_auto_slit": 4.999999999999997, "auto_ini_exp": 300.0, "auto_off": 0, "xto": 2860.0, "flat_auto_ref": "", "flat_auto_rank": 1, "autobackg": 0, "xrel_adj": 0.0, "auto_black_lvl": 1, "base_wnd": 100.0, "sub_baseline": 0, "xconv": 2, "auto_max_exp": 1000.0, "auto_total_exp": 10000.0, "auto_exp": 0, "rmripple": 0, "black_lvl": 8274.4125, "shutter_clip_adj": 0.0, "auto_bckg": 0, "flat_auto_thr": 0.9, "subbackg": 1}
316.8218498245369 12756.589024326058
317.89969571804795 12526.61102144221
318.977263876126 12530.049192490302
320.05455438786703 12427.908141073856
321.1315673423287 12313.103742604259
322.2083028285215 12390.21031896114
323.2847609354267 12258.422627410388
324.3609417519747 12252.6660430585
325.43684536705587 12123.574678616334
326.5124718695279 12189.109431556744
327.58782134820103 12079.77080905993
328.66289389184385 12123.292723991315
329.7376895891921 11947.22902961725
330.8122085289342 11983.454107469805
331.88645079971866 12021.92679845115
332.9604164901575 11861.06754551685
334.03410568881554 11859.270262546728
335.1075184842266 11992.42774529265
336.18065496487543 11796.836395189248
337.2535152192122 11872.046858388592
338.32609933564163 11883.636284944248
339.39840740253203 11783.423600908634
340.4704395082099 11710.902468560413
341.5421957409617 11631.463232675107
342.6136761890357 11782.962439194249
343.6848809406365 11606.226014109781
344.75581008392874 11564.300223394695
345.82646370703696 11608.540385143118
346.8968418980512 11530.840192843994
347.96694474501055 11586.094573602133
349.0367723359268 11545.107936944743
350.106324758759 11521.832189799177
351.1756021014353 11396.937513012806
352.2446044518383 11430.372880779694
353.31333189781435 11502.543720551748
354.38178452716966 11389.40892230425
355.449962427665 11383.953387527075
356.51786568702846 11353.544485536559
357.58549439294256 11389.562406476589
358.6528486330535 11500.543053794807
359.71992849496564 11342.25411424909
360.7867340662433 11402.49102721237
361.8532654344144 11420.598040720626
362.9195226869597 11437.04605734185
363.9855059113288 11317.0055317898
365.05121519492604 11238.288222074116
366.11665062511565 11317.042100240953
367.1818122892273 11348.963704189096
368.2467002745434 11390.594633022825
369.31131466831175 11298.582614881774
370.375655557742 11266.198377102062
371.4397230299983 11304.105050250275
372.5035171722102 11314.976619923153
373.5670380714637 11285.07433428073
374.6302858148101 11375.922776639743
375.6932604892554 11324.956312765311
376.7559621817709 11345.154777537526
377.81839097928605 11258.978070943685
378.8805469686886 11303.121155755984
379.94243023683157 11374.12094859535
381.0040408705263 11343.087375136263
382.0653789565458 11150.190511101739
383.1264445816196 11215.189150554022
384.1872378324406 11199.838072648725
385.2477587956637 11192.098654761017
386.3080075579037 11126.477738152698
387.3679842057336 11040.946108750066
388.4276888256918 11186.064130003968
389.48712150426945 11046.149387811995
390.54628232792857 11111.87403396835
391.6051713830857 11055.72636544616
392.66378875611736 11088.201256047225
393.7221345333637 11006.514102451216
394.7802088011249 11014.56863319278
395.838011645661 10995.150246914729
396.89554315319765 10934.255122461273
397.9528034099112 10831.93349291306
399.00979250194723 10779.719908873118
400.06651051541485 10840.910382297647
401.1229575363741 10897.582422414129
402.17913365085224 10803.86210067498
403.23503894483656 10871.06590631404
404.2906735042761 10769.798825782516
405.3460374150818 10716.830078512005
406.401130763119 10731.775629268905
407.455953634224 10742.848621324778
408.5105061141876 10670.26350793172
409.56478828876243 10549.488669811408
410.6188002436629 10630.384623868453
411.6725420645689 10606.510695412
412.72601383711117 10619.357427819692
413.77921564689314 10689.160844069143
414.8321475794728 10573.684433042252
415.88480972036814 10486.242367324037
416.93720215506437 10481.541028343878
417.9893249690049 10430.995163122276
419.04117824759123 10388.915921772725
420.09276207619223 10472.283047719484
421.144076540133 10443.457681560898
422.1951217247042 10452.16917926425
423.24589771515275 10449.535910988885
424.2964045966928 10425.773351660764
425.34664245449494 10413.710405195356
426.3966113736933 10361.844239607544
427.4463114393875 10319.389950129602
428.49574273662984 10343.218810957818
429.5449053504417 10269.925593876917
430.5937993658026 10373.329500243171
431.6424248676558 10216.926665294373
432.6907819409007 10234.410172520882
433.73887067040596 10260.728413892626
434.7866911409965 10265.435499559217
435.8342434374608 10239.2325464096
436.88152764455117 10158.116295737633
437.9285438469724 10143.481205312459
438.9752921294057 10086.591246029831
440.02177257648145 10122.792923785413
441.06798527279716 10010.425474404185
442.1139303029122 10274.742928950403
443.1596077513459 10319.010681203432
444.2050177025794 10113.240808508028
445.25016024105753 10058.048044155512
446.2950354511886 10067.627001758005
447.33964341733736 10090.654088283887
448.383984223834 10083.068023853582
449.4280579549686 9953.181297584324
450.471864694995 9981.892321566951
451.5154045281306 10019.698215097447
452.5586775385509 9987.231617522502
453.60168381039693 9947.692391246512
454.64442342776783 10025.29649676661
455.6868964747264 9977.85941236635
456.7291030353008 9927.078224425617
457.77104319347563 9966.233027295491
458.8127170332027 9951.746933699176
459.854124638392 9986.856848301793
460.895266092919 10041.160555015946
461.93614148061897 9990.253729487518
462.97675088529104 9979.88122090301
464.01709439069236 9957.216162624754
465.0571720805492 9964.070023099008
466.0969840385442 9987.01384489027
467.1365303483253 10019.844179078847
468.17581109350067 9915.223979801645
469.2148263576437 9951.909881600954
470.2535762242878 10039.259898835904
471.29206077693016 10079.894580794167
472.33028009902773 10101.049758256955
473.3682342740012 10048.260009953383
474.40592338523857 10023.546177857537
475.4433475160804 10096.691229709671
476.4805067498364 10060.526470960478
477.51740116978 10124.106122983021
478.5540308591426 10210.642061214614
479.59039590112116 10327.264439698387
480.6264963788726 10264.975251309897
481.6623323755193 10507.670090462074
482.6979039741436 10403.423913483097
483.7332112577915 10623.960921987831
484.76825430947247 10788.449061742012
485.80303321215797 10805.96856165918
486.837548048783 10865.85985212856
487.8717989022425 11019.897162760859
488.90578585539697 11069.537313274886
489.9395089910686 11168.532099380347
490.97296839203955 11102.847564320551
492.00616414106116 10995.881081912645
493.0390963208429 11033.006570390733
494.0717650140559 11001.622591847428
495.10417030333883 10954.452893789998
496.1363122712901 10938.129990888403
497.16819100046814 10787.49439223954
498.1998065734024 10682.524672368747
499.2311590725767 10602.894435399527
500.26224858044407 10546.502479223644
501.2930751794156 10452.617400614407
502.3236389518679 10448.320864090472
503.35393998014115 10241.425595371878
504.38397834653733 10196.197651429475
505.4137541333221 10181.571145832444
506.4432674227228 10030.119417635147
507.4725182969323 10003.115836637513
508.5015068381035 9922.704855129596
509.53023312835467 9947.358916171455
510.55869724976765 9885.00537882228
511.58689928438434 9759.794254370576
512.6148393142121 9714.293364730325
513.6425174212218 9817.933531418825
514.6699336873462 9808.773779420952
515.6970881944835 9816.11962220512
516.7239810244901 9745.377876085118
517.7506122591931 9839.007958250515
518.7769819803761 9798.952660658175
519.8030902697901 9817.565251394644
520.8289372091476 9812.647747835053
521.8545228801249 9868.420891906198
522.8798473643619 9787.211671418441
523.9049107434621 9868.395648483807
524.9297130989908 9851.980667266322
525.9542545124805 9833.659134330663
526.9785350654201 9766.88003807682
528.0025548392696 9813.95021608243
529.0263139154504 9771.779060294703
530.0498123753423 9910.134021010617
531.073050300296 9790.408383543825
532.0960277716204 9662.379295034663
533.1187448705896 9778.497678740194
534.1412016784416 9691.408718468556
535.1633982763833 9670.58290611293
536.1853347455726 9610.466296807645
537.2070111671401 9576.245245976019
538.2284276221817 9595.031571968453
539.2495841917516 9468.006708249757
540.2704809568677 9404.752457569819
541.2911179985167 9425.280616247492
542.3114953976419 9371.627459735586
543.3316132351592 9298.456027041913
544.3514715919409 9239.037755691324
545.3710705488247 9243.232073248615
546.3904101866156 9264.9907132528
547.4094905860784 9242.91164609543
548.4283118279418 9184.657855331612
549.4468739929034 9231.842680656131
550.4651771616191 9204.726159560949
551.4832214147063 9097.114086347194
552.501006832761 9151.911744580175
553.5185334963226 9073.573077039502
554.5358014859103 9068.866215591841
555.5528108820035 9168.739437432247
556.5695617650363 9050.133627379302
557.5860542154242 9121.338040245795
558.6022883135283 9094.975100602293
559.6182641396881 8985.880908972844
560.6339817741991 9055.94622217052
561.6494412973225 9094.117280680986
562.6646427892883 9125.78506588275
563.6795863302796 9066.948349166363
564.694272000459 8975.633328901113
565.7086998799423 9190.567106706296
566.7228700488104 9078.327869175688
567.7367825871115 8974.686571495378
568.7504375748576 9058.46577572574
569.7638350920224 9042.137413066712
570.7769752185486 8999.926117947862
571.7898580343353 9069.27298822259
572.802483619258 8966.985820528886
573.8148520531431 9183.669206681636
574.8269634157932 9121.225374321595
575.8388177869692 9064.182040905773
576.8504152463938 9086.782674249727
577.8617558737587 9238.91780020776
578.8728397487175 9107.56753747771
579.883666950891 9186.64002874117
580.8942375598654 9299.449748642317
581.9045516551851 9373.66832624133
582.9146093163617 9594.734065614564
583.924410622878 9438.599458069551
584.9339556541727 9460.112128795288
585.9432444896538 9594.577918348043
586.9522772086875 9505.227087422354
587.9610538906127 9513.688050702589
588.9695746147318 9493.720656469408
589.9778394603054 9625.52569759473
590.985848506567 9443.447252664191
591.9936018327098 9466.192540567114
593.0010995178891 9252.973537621667
594.0083416412344 9355.526473167283
595.0153282818283 9175.090176045866
596.0220595187293 9205.958021160144
597.0285354309508 9217.934847514509
598.0347560974806 9112.989616558918
599.0407215972609 9064.391563559788
600.0464320092051 9054.802868469244
601.0518874121954 9044.953711343453
602.0570878850685 8996.519100535903
603.062033506636 9049.624719108991
604.0667243556636 8975.29962793933
605.0711605108936 8910.946502812454
606.0753420510264 9213.315760806003
607.0792690547278 9017.008827679962
608.082941600629 8889.687620083449
609.0863597673306 9001.050568802679
610.0895236333909 9030.69905058968
611.0924332773357 9161.519359667456
612.0950887776617 9002.180931343963
613.0974902128219 9037.017607612719
614.0996376612384 9192.90271530098
615.1015312013005 9222.999173802888
616.1031709113595 9282.449814780384
617.1045568697336 9207.826809012528
618.1056891547069 9308.925200496731
619.1065678445229 9397.204261623792
620.1071930173985 9598.282252747802
621.1075647515099 9568.638347184145
622.1076831250048 9596.903664306787
623.1075482159849 9731.534738286395
624.1071601025305 9826.383328743254
625.1065188626781 9878.166337947912
626.105624574433 10180.655740192386
627.1044773157682 10222.759473429618
628.1030771646128 10311.958562862214
629.1014241988742 10380.297425946952
630.0995184964158 10530.547010191765
631.0973601350688 10623.239236323838
632.0949491926294 10813.032877814698
633.0922857468631 10554.471254232609
634.089369875499 10705.146878281505
635.0862016562278 10779.13394053399
636.0827811667077 10545.851394978328
637.0791084845641 10615.403452759001
638.0751836873878 10440.000059745962
639.0710068527369 10529.559818191785
640.0665780581294 10340.517913707112
641.0618973810506 10244.797821732445
642.0569648989604 10230.399371040778
643.0517806892676 9954.352635954805
644.0463448293649 9873.717055669935
645.040657396592 9751.696473336871
646.0347184682723 9685.866384404899
647.0285281216875 9458.97966600605
648.0220864340772 9398.81470342
649.0153934826558 9268.064358508453
650.0084493446047 9255.070745670677
651.0012540970674 9199.558589474611
651.9938078171526 9075.882121618326
652.9861105819346 8968.987574423885
653.9781624684565 9076.446001404918
654.9699635537254 8845.727042926957
655.9615139147136 8831.084109406997
656.9528136283589 8714.283422637847
657.9438627715699 8848.322569175638
658.9346614212154 8794.14564456188
659.925209654135 8649.62768107744
660.9155075471263 8669.860668675416
661.9055551769616 8642.184897445843
662.895352620375 8737.29453844975
663.8848999540678 8553.43449634103
664.8741972547068 8473.571643984822
665.863244598926 8522.76132363524
666.8520420633213 8504.828602571668
667.8405897244611 8474.546913831407
668.8288876588758 8350.756001318503
669.8169359430613 8488.559270244645
670.8047346534822 8436.436557577146
671.7922838665672 8324.383006596732
672.7795836587156 8416.863242739562
673.766634106285 8580.186325591058
674.7534352856092 8348.365243983662
675.7399872729766 8403.349998706546
676.7262901446538 8416.446073620533
677.712343976862 8391.889520611267
678.6981488457986 8421.35464755059
679.6837048276229 8317.481026600672
680.6690119984596 8386.882274421087
681.6540704344043 8348.734777302156
682.6388802115107 8317.105205959031
683.6234414058108 8328.775503885237
684.6077540932874 8268.269906031928
685.591818349907 8313.929613808208
686.575634251587 8296.890910705863
687.5592018742263 8209.33858763636
688.5425212936734 8067.671172184948
689.5255925857564 8224.080902214653
690.5084158262707 8211.607891066022
691.4909910909646 8150.0268669066045
692.4733184555644 8081.52968057035
693.4553979957618 8159.363686837098
694.4372297872123 8154.670150814629
695.4188139055404 8074.196491399831
696.4001504263324 7897.340578264909
697.3812394251509 8087.32112646984
698.3620809775111 8136.19004943832
699.3426751589104 7947.288929513913
700.3230220448004 7894.263385705269
701.3031217106054 7956.030092705807
702.2829742317172 8123.945161378373
703.2625796834873 7873.922503257794
704.2419381412474 7834.0990841829625
705.22104968028 7915.306222192358
706.1999143758458 7839.304844480095
707.178532303169 7855.4395623594555
708.1569035374378 7823.733955818886
709.1350281538107 7926.0388875900535
710.1129062274158 7822.644639438391
711.0905378333373 7906.022781824451
712.0679230466376 7873.873306191427
713.0450619423427 7996.43101322428
714.0219545954424 8005.962654533687
714.9986010808989 7887.78275646132
715.9750014736292 7861.379551878691
716.9511558485392 7993.620733252808
717.9270642804786 7992.825761938331
718.9027268442787 8012.685390486101
719.8781436147328 7974.926677781851
720.8533146666014 7883.856010973757
721.828240074612 7948.969185116743
722.8029199134635 7954.544951058624
723.7773542578125 7891.126118802512
724.751543182294 7808.135315212775
725.7254867615029 8006.226289107236
726.6991850700015 7776.38648618138
727.6726381823228 7845.616209720603
728.6458461729599 7856.9965316733815
729.6188091163858 7843.203316491215
730.5915270870246 7864.390266066317
731.5640001592856 7794.097686706986
732.536228407529 7764.065847921667
733.5082119060917 7797.876563892062
734.4799507292755 7707.918770270022
735.4514449513481 7701.650652144851
736.4226946465496 7838.069816998213
737.3936998890786 7839.095510693616
738.3644607531078 7697.480665406712
739.3349773127793 7757.12972999864
740.3052496421951 7658.7966384114625
741.27527781543 7701.176975793009
742.2450619065221 7607.334042396922
743.2146019894826 7713.426991026601
744.183898138288 7738.826723446646
745.1529504268801 7636.485469403599
746.1217589291682 7536.075426941595
747.0903237190341 7623.385829660854
748.058644870318 7629.7933785593805
749.0267224568397 7504.369286875709
749.994556552374 7465.715236273072
750.9621472306771 7615.750225254806
751.9294945654583 7604.276957168986
752.8965986304011 7571.090947810412
753.8634594991636 7494.39914963913
754.8300772453586 7607.560347082146
755.7964519425768 7535.060391543751
756.762583664371 7658.7787576203555
757.7284724842611 7592.355052952587
758.6941184757416 7524.738526082796
759.6595217122667 7517.635420513118
760.6246822672638 7574.063411732185
761.5896002141235 7413.030355183511
762.5542756262093 7516.283213432168
763.5187085768503 7550.262367589501
764.4828991393406 7482.750094641505
765.4468473869474 7458.000864905986
766.4105533929032 7464.49967315345
767.3740172304078 7390.3152522334185
768.3372389726283 7451.42343418411
769.3002186926988 7335.46955403366
770.2629564637282 7367.638971699373
771.2254523587872 7353.0043157858945
772.1877064509154 7251.816916509696
773.1497188131179 7186.050195856098
774.1114895183728 7153.504993019284
775.0730186396268 7176.791266041895
776.0343062497905 7169.505192350896
776.9953524217381 7125.414375590856
777.9561572283274 7163.32359866295
778.9167207423689 7115.423351011178
779.8770430366476 7072.980188250427
780.8371241839159 7062.719984952988
781.7969642568951 7067.300347973729
782.7565633282757 7228.590901642134
783.7159214707099 7055.508296913938
784.6750387568281 7112.429519101244
785.6339152592227 7000.028557749101
786.5925510504512 6978.740506800597
787.5509462030477 7134.836237676469
788.5091007895098 6970.1769991560595
789.4670148823006 7069.590609307798
790.4246885538596 7015.233822990718
791.3821218765861 7040.967072713223
792.3393149228505 6918.266120196841
793.2962677649975 7089.082311994042
794.2529804753303 7070.086533208547
795.20945312613 7062.979599615981
796.1656857896378 6920.179892296566
797.1216785380675 6916.831590060712
798.0774314435985 7090.52271248392
799.0329445783846 7214.648092847523
799.9882180145414 7183.975944182321
800.9432518241574 7143.597993764818
801.89804607929 7235.150480046765
802.852600851962 7186.854063524772
803.8069162141637 7230.104101190712
804.760992237856 7267.075674620586
805.714828994971 7299.839581439979
806.6684265574077 7389.896129789848
807.6217849970271 7331.539671040175
808.574904385674 7225.194471357051
809.527784795142 7341.580340904757
810.4804262972102 7280.797637572275
811.4328289636178 7213.186145910782
812.3849928660748 7088.842578877651
813.3369180762638 7068.1636403157845
814.2886046658241 7142.880384104143
815.2400527063783 6983.71289067412
816.1912622695108 6945.106557138208
817.1422334267718 6992.504072303207
818.0929662496856 6908.536922447509
819.0434608097457 6781.708266933796
819.9937171784059 6834.72205341722
820.9437354271013 6738.140719774473
821.8935156272255 6886.132177731745
822.8430578501484 6716.507293389435
823.7923621672016 6577.323960003768
824.7414286496896 6716.110104350055
825.6902573688876 6684.822481779802
826.6388483960363 6639.523032807972
827.5872018023492 6545.892919625995
828.5353176590033 6698.93007935247
829.4831960371503 6567.127526446241
830.4308370079016 6495.557911326659
831.3782406423525 6590.051437416996
832.3254070115545 6577.159600306305
833.2723361865319 6483.177967481146
834.2190282382799 6400.186711516193
835.1654832377644 6476.519447032351
836.1117012559116 6456.262446036658
837.0576823636256 6619.716453443543
838.003426631778 6420.749392823087
838.9489341312074 6387.589032708271
839.8942049327197 6553.859240126524
840.8392391070975 6571.616586855828
841.7840367250865 6454.488971784308
842.7285978573982 6384.179813275657
843.672922574724 6533.3494860388
844.6170109477152 6397.713146803942
845.560863046996 6462.165585991714
846.5044789431595 6390.006531201525
847.4478587067697 6349.674354774193
848.3910024083561 6532.923882121102
849.333910118421 6382.173142628291
850.2765819074339 6271.78389860465
851.2190178458332 6494.954474034269
852.161218004032 6502.057139791181
853.1031824524016 6435.222784655803
854.0449112612987 6343.269465836032
854.9864045010327 6433.948419552164
855.9276622418947 6344.427163660877
856.8686845541379 6463.996497856512
857.8094715079915 6423.489897383832
858.7500231736467 6512.35959972481
859.690339621271 6441.6726100156075
860.6304209209939 6425.991685837418
861.5702671429244 6311.759446234383
862.5098783571284 6431.5094158063075
863.4492546336569 6437.195026642984
864.3883960425155 6385.580088112614
865.3273026536863 6278.3436695760265
866.2659745371238 6288.614654680872
867.2044117627465 6504.984454447201
868.1426144004472 6321.832368218129
869.0805825200823 6359.819319976153
870.0183161914847 6370.864596189653
870.9558154844526 6474.611788871283
871.8930804687552 6429.542042693758
872.8301112141307 6284.567195846133
873.7669077902865 6467.548536651295
874.7034702669062 6620.200241746478
875.6397987136315 6498.7436225168285
876.5758932000863 6491.211089358281
877.5117537958522 6597.331475526126
878.4473805704911 6471.975032740889
879.3827735935283 6541.970520827168
880.3179329344603 6593.310763218321
881.2528586627541 6664.261712827622
882.1875508478479 6623.413201198285
883.1220095591489 6564.943326297005
884.0562348660296 6506.838912463014
884.9902268378391 6642.152807002387
885.9239855438955 6508.65303578881
886.8575110534839 6445.194985189189
887.7908034358588 6544.721063682622
888.7238627602474 6558.303535528978
889.6566890958475 6500.058442119824
890.5892825118208 6328.767186193504
891.5216430773125 6382.973245460027
892.4537708614189 6383.267515642102
893.3856659332196 6337.444683726273
894.3173283617652 6175.137920934324
895.2487582160684 6341.579759435919
896.179955565116 6172.584465052663
897.110920477864 6180.714626222124
898.0416530232451 6164.408295435557
898.9721532701478 6124.277117023376
899.9024212874428 6270.127333179398
900.8324571439662 6059.463635491179
901.7622609085302 6051.922277343521
902.6918326499072 6078.270890624581
903.6211724368477 6124.786284404513
904.5502803380696 6247.264775413527
905.4791564222614 6254.406158441577
906.4078007580792 6037.844082517648
907.3362134141571 6023.9092442005485
908.2643944590909 6193.312254525405
909.1923439614493 5928.4913022225355
910.1200619897754 5971.7429313874945
911.0475486125779 6159.149199719957
911.9748038983344 6017.4359989952645
912.9018279155007 6010.480786828301
913.8286207324982 5934.226836633564
914.7551824177117 5997.7120706927935
915.6815130395116 5963.810170206864
916.6076126662283 5918.119433261234
917.533481366163 5903.65836449855
918.4591192075914 5958.940417476368
919.3845262587565 5978.611491805995
920.3097025878706 5909.047845173423
921.2346482631237 5852.9192305051565
922.1593633526682 5865.400838309983
923.0838479246304 6023.702480536968
924.0081020471061 6095.9483114515
924.9321257881656 5872.93577896554
925.8559192158464 5879.083401183518
926.7794823981512 5829.675523556455
927.7028154030686 5775.7168391177975
928.6259182985414 5760.428464972107
929.5487911524906 5946.349665102722
930.4714340328119 5998.191458234342
931.3938470073608 5751.336736947987
932.3160301439748 5796.314393003798
933.2379835104548 5869.263003737769
934.1597071745709 6031.215522489687
935.0812012040769 5840.699995644312
936.002465666681 5960.9078896630635
936.9235006300696 5909.762898291217
937.8443061619055 5918.038253849714
938.7648823298077 5753.831681203028
939.6852292013809 5765.537419390765
940.6053468441951 5847.105408708119
941.5252353257874 5722.910611196186
942.4448947136698 5734.455035758951
943.364325075323 5738.229206106243
944.2835264782043 5775.960116011338
945.2024989897309 5778.838678823049
946.1212426773054 5741.944245125185
947.0397576082851 5791.789201465719
947.9580438500125 5871.731380586491
948.8761014697939 5904.702488360811
949.7939305349064 5780.487579329453
950.7115311125999 5695.5971075016405
951.6289032700952 5685.114119563259
952.5460470745875 5836.045504761482
953.4629625932339 5744.135154010493
954.3796498931715 5765.941673521921
955.2961090415029 5868.378136786997
956.2123401053068 5778.473592214953
957.1283431516276 5742.447344403809
958.0441182474842 5657.622482530379
958.9596654598663 5805.709959882379
959.8749848557309 5747.780401224031
960.7900765020167 5689.255034813611
961.7049404656209 5624.694662407315
962.6195768134185 5748.438945569526
963.5339856122537 5764.619851945607
964.4481669289453 5756.582979937582
965.3621208302793 5752.323825061926
966.2758473830145 5673.3296675459405
967.1893466538822 5815.4573798758165
968.1026187095813 5701.355591011638
969.0156636167867 5701.428102837845
969.9284814421426 5762.2841035762995
970.8410722522622 5675.753581569561
971.753436113735 5708.158866901503
972.6655730931161 5605.289693611963
973.5774832569368 5725.32953584492
974.4891666716958 5674.0890936229425
975.4006234038698 5545.593412585697
976.3118535198955 5549.886879056318
977.2228570861935 5716.302080094937
978.1336341691494 5751.279854601485
979.0441848351202 5493.640880326663
979.9545091504333 5634.139897835296
980.864607181391 5688.530205773424
981.7744789942699 5705.080277230563
982.6841246553086 5678.097809536293
983.5935442307236 5669.042858450623
984.5027377867027 5611.755719317342
985.4117053894024 5664.702059331032
986.3204471049557 5633.475290684109
987.2289629994648 5732.482586928616
988.1372531390007 5793.948171270125
989.0453175896091 5659.072351651612
989.9531564173067 5757.9976884522575
990.860769688079 5602.9949901759155
991.7681574678918 5644.955773083599
992.6753198226706 5658.749218321614
993.582256818323 5669.474448750263
994.4889685207218 5653.980745858666
995.3954549957143 5850.196164643868
996.301716309119 5740.464985673413
997.2077525267232 5693.940097987323
998.1135637142943 5623.0047657018185
999.0191499375615 5737.267433132089
999.924511262232 5743.413168682099
1000.8296477539861 5780.026843140994
1001.7345594784656 5670.298222568955
1002.6392465012996 5657.660716410299
1003.5437088880753 5819.956063470874
1004.4479467043584 5752.832684448074
1005.3519600156869 5661.641087273365
1006.2557488875718 5823.969914591262
1007.1593133854858 5787.50112513741
1008.0626535748888 5644.303112600997
1008.9657695212009 5580.4637934588845
1009.8686612898182 5804.316400718982
1010.7713289461135 5806.067305766847
1011.6737725554212 5708.5491446603555
1012.5759921830577 5639.561305335612
1013.4779878943027 5770.917245375929
1014.379759754418 5787.197462777539
1015.2813078286254 5639.769198427836
1016.18263218213 5627.850313653064
1017.0837328801026 5620.337756411522
1017.9846099876886 5690.877042189754
1018.8852635700023 5567.602755575759
1019.7856936921362 5496.165006019461
1020.6859004191447 5742.399072527226
1021.5858838160675 5532.469441802003
1022.4856439479063 5469.0782513391305
1023.3851808796389 5388.770547510668
1024.2844946762143 5705.072896513704
1025.183585402554 5582.706827887595
1026.082453123554 5420.531146755177
1026.9810979040776 5519.287163031471
1027.8795198089647 5487.292391240619
1028.777718903024 5484.565013440662
1029.6756952510368 5432.577707513958
1030.5734489177648 5509.948896840325
1031.4709799679313 5461.879877182906
1032.3682884662358 5702.935306034407
1033.2653744773506 5325.189290959153
1034.1622380659192 5409.495471234424
1035.058879296559 5540.675644572306
1035.9552982338591 5717.091613306767
1036.8514949423825 5662.513495163896
1037.7474694866614 5581.883350984825
1038.6432219312028 5628.704266001205
1039.5387523404825 5838.889698887578
1040.4340607789582 5768.393580713434
1041.3291473110476 5846.648596661923
1042.2240120011465 5992.149528165787
1043.1186549136273 6152.262781974509
1044.0130761128294 6017.554385095229
1044.9072756630649 6017.40206774602
1045.8012536286205 6245.686633430497
1046.6950100737577 6289.782731615173
1047.588545062701 6375.97933920987
1048.481858659663 6386.361099217869
1049.3749509288118 6534.452967624639
1050.2678219343034 6370.502092386745
1051.1604717402515 6419.1514491526
1052.0529004107575 6350.458362596206
1052.9451080098825 6460.715522765102
1053.8370946016694 6453.125459947962
1054.7288602501267 6386.968163775498
1055.6204050192446 6350.144455991409
1056.511728972977 6331.528814901075
1057.402832175254 6235.165237015236
1058.2937146899785 6122.170026037451
1059.1843765810263 6060.403682207237
1060.0748179122456 6055.427208854386
1060.9650387474576 6011.632569904505
1061.855039150456 5963.822260688126
1062.7448191850071 5856.34373691196
1063.6343789148505 5770.726265621646
1064.5237184037014 5922.86666280712
1065.412837715241 5784.1752594835325
1066.3017369131267 5671.365821313861
1067.190416060992 5627.468516598295
1068.0788752224398 5558.407711591397
1068.9671144610438 5486.356161897358
1069.8551338403558 5677.414141739041
1070.7429334239023 5615.408206430415
1071.6305132751695 5475.60775263223
1072.517873457633 5519.1426552591865
1073.4050140347335 5449.679535338467
1074.2919350698776 5480.240911270999
1075.1786366264623 5495.138667959194
1076.0651187678395 5428.237379551471
1076.95138155735 5333.802837777691
1077.8374250582929 5281.410292037041
1078.7232493339507 5432.278952571532
1079.608854447577 5272.689588237425
1080.4942404623907 5248.321476854919
1081.3794074415982 5351.277803579406
1082.2643554483657 5384.709555925898
1083.149084545841 5254.333319917301
1084.033594797138 5175.853278969985
1084.9178862653516 5225.600715828341
1085.8019590135427 5385.794052042354
1086.6858131047484 5061.995379380981
1087.5694486019802 5237.473047442695
1088.4528655682225 5159.282021228498
1089.3360640664287 5309.74997506116
1090.2190441595321 5188.869483166369
1091.1018059104317 5177.815774450595
1091.98434938201 5286.293394997732
1092.866674637111 5339.027193370939
1093.748781738559 5213.83784436635
1094.6306707491512 5059.8570277538765
1095.5123417316554 5160.31202425946
1096.3937947488157 5140.801891083609
1097.2750298633455 5084.870308897805
1098.156047137938 5077.467988723654
1099.0368466352556 5172.169929229155
1099.9174284179317 5259.456545964326
1100.7977925485757 5005.899737195712
1101.6779390897755 5134.850320502765
1102.5578681040806 5114.176643419045
1103.4375796540226 5121.6809054219175
1104.3170738021054 5099.622395352523
1105.1963506108077 4855.527727470337
1106.0754101425773 4984.804598842097
1106.9542524598382 5158.319868937304
1107.8328776249855 5076.700801724603
1108.7112857003904 5040.987628682831
1109.5894767483987 5055.772026515637
1110.4674508313292 5263.465089196377
1111.3452080114657 5022.02330602519
1112.2227483510815 5139.747861794487
1113.1000719124077 5228.476316515589
1113.9771787576592 5272.770896371057
1114.854068949022 5137.888241671712
1115.7307425486542 5292.1028719461265
1116.6071996186893 5359.263485847204
1117.483440221229 5406.335801276469
1118.3594644183577 5276.824623219183
1119.235272272128 5327.169653458595
1120.1108638445658 5378.468407868697
1120.9862391976712 5565.316629354957
1121.8613983934229 5430.883024881957
1122.7363414937627 5508.682638622842
1123.6110685606182 5522.734579074362
1124.485579655884 5684.223983987741
1125.359874841426 5618.110953118034
1126.2339541790916 5555.662741447881
1127.1078177306936 5817.342223165921
1127.9814655580267 5679.415408374802
1128.854897722851 5668.691394169546
1129.7281142869106 5639.129623897943
1130.6011153119125 5738.554985303892
1131.473900859548 5821.83897222046
1132.3464709914697 5696.1762813748655
1133.2188257693178 5715.944109123681
1134.0909652546961 5549.647725592553
1134.96288950919 5520.0251829085955
1135.8345985943506 5644.17277535535
1136.7060925717087 5386.5435634164705
1137.57737150277 5528.152282507384
1138.4484354490069 5637.146991466496
1139.3192844718778 5391.122312696682
1140.1899186327992 5284.633646695329
1141.060337993178 5493.223395820875
1141.930542614382 5420.3109278587635
1142.8005325577597 5231.927441115307
1143.670307884635 5105.038454670546
1144.5398686563003 5262.060959705163
1145.409214934025 5203.478013230705
1146.2783467790541 4995.05181201936
1147.1472642526023 5113.022562841044
1148.0159674158622 5210.734212097744
1148.8844563300026 5049.4471671154
1149.7527310561618 4991.54748549083
1150.6207916554504 5014.88621016087
1151.4886381889592 4896.489112065961
1152.3562707177498 5040.322035041592
1153.2236893028585 4996.186500023538
1154.090894005296 4858.797474947282
1154.9578848860474 4951.590682928816
1155.8246620060709 4878.2578257296755
1156.6912254262988 4791.615950018743
1157.5575752076438 4825.650200251591
1158.42371141098 5009.998046540828
1159.2896340971656 4959.263047822837
1160.1553433270346 4887.389979135339
1161.0208391613887 4910.726630547291
1161.8861216610057 4902.834913490278
1162.75119088664 4933.663794434292
1163.6160468990201 4855.887490347019
1164.4806897588442 4773.524866298743
1165.3451195267917 4955.341340574847
1166.2093362635114 4889.076972061628
1167.0733400296285 4899.906517052729
1167.9371308857444 4817.494914583626
1168.8007088924278 4807.815844793445
1169.6640741102328 4923.487708716466
1170.5272265996773 4760.1322665111975
1171.390166421259 4781.142600736903
1172.252893635452 4772.760638229998
1173.1154083026995 4908.973756756637
1173.977710483421 4869.808781937015
1174.8398002380145 4710.266634117372
1175.7016776268483 4858.797678966909
1176.563342710264 4777.052855138242
1177.4247955485826 4685.328666161247
1178.2860362020947 4800.014895331227
1179.147064731069 4674.142881184476
1180.0078811957483 4791.778450921518
1180.8684856563486 4726.163169157688
1181.7288781730604 4816.2082830746995
1182.589058806052 4861.384296717221
1183.4490276154593 5000.874244848836
1184.3087846614017 4773.732263108647
1185.1683300039676 4862.315678108953
1186.027663703222 4969.4488681687335
1186.8867858192025 4819.185643600573
1187.7456964119228 4903.016656366477
1188.6043955413716 4976.650136734361
1189.4628832675116 5020.2102683163275
1190.3211596502842 5170.689085024456
1191.179224749596 5086.343753289182
1192.0370786253388 4835.456798035445
1192.8947213373758 5133.830450185925
1193.7521529455407 5292.595599712535
1194.6093735096438 4927.922132945404
1195.466383089477 5126.833113867768
1196.3231817447977 5041.712733864364
1197.1797695353398 5236.546080354226
1198.0361465208189 5065.969708155167
1198.8923127609214 5001.683534130197
1199.7482683153048 5133.651028924661
1200.6040132436028 5220.905541471972
1201.459547605431 5029.799675004658
1202.3148714603722 5148.062973603164
1203.1699848679855 4991.222738584154
1204.0248878878065 5177.07514075075
1204.8795805793507 4828.907672044994
1205.7340630020935 5028.19130459534
1206.5883352155033 5196.320725724532
1207.4423972790064 5060.3302391534
1208.2962492520237 4898.3070581438715
1209.1498911939307 4947.124639876995
1210.0033231640937 4987.03432846152
1210.8565452218427 4996.944357548407
1211.7095574264913 4740.401477002382
1212.5623598373222 4712.309326038637
1213.4149525135963 4740.485688804868
1214.2673355145507 4808.929343112889
1215.1195088993936 4780.5381467339
1215.9714727273113 4747.487500478044
1216.8232270574663 4914.11460182072
1217.6747719489904 4538.895683895642
1218.5261074609934 4667.672884195405
1219.3772336525653 4765.513736295324
1220.2281505827668 4803.961604367927
1221.0788583106296 4831.092799783823
1221.9293568951707 4644.729882563635
1222.7796463953746 4571.744245054031
1223.629726870202 4719.91827150504
1224.4795983785934 4725.713491700313
1225.3292609794553 4648.58547285668
1226.1787147316809 4550.42274962081
1227.0279596941327 4704.393239020157
1227.8769959256424 4526.360821164913
1228.7258234850306 4790.443623142668
1229.5744424310833 4472.0645891288395
1230.422852822563 4775.516835178544
1231.2710547182105 4842.044448184202
1232.119048176739 4708.965559784215
1232.9668332568417 4539.716104158053
1233.8144100171812 4716.2452854187495
1234.6617785163999 4681.275159568177
1235.508938813111 4461.75547798264
1236.3558909659114 4561.434249432556
1237.2026350333617 4739.710216272742
1238.049171074008 4768.19453381115
1238.8954991463652 4551.727019628131
1239.741619308932 4594.33586159653
1240.587531620169 4659.619442711083
1241.4332361385277 4723.837660139349
1242.2787329224248 4598.485128310071
1243.1240220302534 4528.065548440691
1243.9691035203869 4580.384620219325
1244.813977451171 4779.5171088938305
1245.6586438809263 4684.63543808669
1246.5031028679496 4332.999795392587
1247.3473544705157 4690.608510731024
1248.1913987468706 4681.157026086824
1249.0352357552383 4397.517094035613
1249.8788655538228 4482.903398962495
1250.7222882007918 4670.672160798237
1251.565503754302 4616.844831451683
1252.4085122724755 4360.437612600924
1253.2513138134182 4676.663672577526
1254.0939084352049 4567.143920621469
1254.9362961958905 4659.731867203502
1255.7784771535007 4573.458078215646
1256.6204513660432 4624.680536734935
1257.4622188915 4763.447800117776
1258.3037797878242 4584.634820725004
1259.1451341129468 4476.903729983173
1259.9862819247755 4625.7479775028
1260.8272232811978 4558.382115835421
1261.6679582400666 4792.34203950549
1262.5084868592203 4429.194246684532
1263.34880919647 4422.824491074698
1264.1889253095997 4510.894585360932
1265.0288352563712 4644.305469691857
1265.8685390945266 4446.203964573894
1266.7080368817751 4612.9878375653825
1267.5473286758115 4667.111144598715
1268.386414534294 4632.531642373839
1269.2252945148703 4291.701450119898
1270.0639686751547 4488.559738847441
1270.9024370727402 4469.150884694507
1271.7406997651997 4375.07272953902
1272.5787568100714 4265.5142998430365
1273.4166082648808 4421.474770759677
1274.2542541871244 4437.732659525836
1275.091694634275 4612.852735689601
1275.9289296637817 4279.691611083093
1276.7659593330663 4493.102144125985
1277.6027836995308 4446.598280673574
1278.4394028205552 4574.4553785310745
1279.2758167534867 4450.0185534627735
1280.112025555658 4414.446958982675
1280.9480292843746 4489.391385807793
1281.7838279969128 4356.535477001797
1282.6194217505326 4396.995393213306
1283.4548106024686 4278.88781189596
1284.289994609926 4373.440883836107
1285.1249738300921 4524.287710241877
1285.959748320127 4364.144704687724
1286.7943181371702 4451.426174359909
1287.6286833383328 4416.213615387092
1288.4628439807038 4513.1093810311
1289.2968001213521 4326.5214343320795
1290.1305518173194 4348.927457399018
1290.9640991256183 4475.871299010165
1291.7974421032523 4393.671408253376
1292.630580807183 4270.427569810789
1293.463515294361 4398.454397384794
1294.29624562171 4547.379558062121
1295.12877184613 4371.560864557618
1295.961094024493 4320.792210038894
1296.79321221365 4492.757412301363
1297.6251264704333 4462.273465152012
1298.4568368516466 4677.247380175935
1299.2883434140658 4497.258773120168
1300.1196462144526 4275.78821834619
1300.9507453095375 4511.1114997005425
1301.7816407560313 4454.759326084126
1302.6123326106172 4413.244532208018
1303.4428209299622 4343.786198537373
1304.2731057707024 4548.742277283094
1305.1031871894502 4393.460471529933
1305.933065242798 4507.9171616661115
1306.7627399873181 4432.634542711758
1307.5922114795467 4840.768643745059
1308.4214797760123 4743.947740531365
1309.2505449332057 4481.996749865096
1310.0794070076026 4622.138056602932
1310.9080660556538 4696.640189425971
1311.736522133786 4710.856908746341
1312.5647752983987 4480.703970909699
1313.3928256058734 4422.639263884608
1314.2206731125661 4632.719546566789
1315.048317874809 4611.872134758696
1315.8757599489109 4396.944129202874
1316.7029993911547 4593.839741486035
1317.5300362578055 4741.083752433247
1318.356870605101 4471.32037996863
1319.183502489257 4407.493253638151
1320.0099319664623 4603.213537041983
1320.836159092889 4618.602456487502
1321.66218392468 4591.579280850497
1322.4880065179532 4434.8031269238945
1323.3136269288134 4515.474766276092
1324.1390452133292 4654.838525396752
1324.9642614275563 4749.761535169679
1325.7892756275214 4534.797578539181
1326.6140878692295 4415.686475751803
1327.4386982086617 4954.729840946153
1328.2631067017755 4533.250271020543
1329.0873134045069 4652.939285340142
1329.911318372764 4528.66701252804
1330.735121662441 4525.246423701185
1331.558723329399 4518.0294401814535
1332.3821234294774 4487.572988512373
1333.2053220185007 4562.582295902992
1334.0283191522612 4411.927769842727
1334.851114886529 4619.369178368795
1335.6737092770582 4409.064789453287
1336.4961023795695 4458.113794367789
1337.3182942497697 4465.702914735889
1338.1402849433325 4450.782846099684
1338.962074515921 4289.718846652466
1339.7836630231632 4241.380886301232
1340.6050505206676 4818.661481056393
1341.426237064028 4585.4749292166
1342.2472227088037 4323.532147586049
1343.0680075105338 4333.105207916952
1343.888591524741 4435.808215769509
1344.7089748069138 4631.337936934286
1345.5291574125276 4405.37533535373
1346.3491393970307 4291.062106028478
1347.168920815846 4513.88292827405
1347.9885017243778 4528.744500607592
1348.8078821780036 4338.7957140273675
1349.6270622320844 4404.9242116425585
1350.4460419419447 4305.573219880265
1351.2648213629054 4539.920919166526
1352.0834005502438 4254.9052716740625
1352.90177955923 4290.322285164234
1353.7199584451064 4451.141694575
1354.5379372630887 4436.77541207061
1355.355716068374 4382.2629196751495
1356.1732949161305 4203.275933457704
1356.9906738615155 4340.447725285394
1357.8078529596478 4384.707116927734
1358.6248322656375 4521.011429795086
1359.441611834567 4277.998956177191
1360.2581917214866 4539.265934949815
1361.0745719814367 4453.786686338567
1361.890752669433 4285.960141550789
1362.7067338404577 4234.255489331453
1363.5225155494845 4532.773780153534
1364.3380978514506 4610.908797900809
1365.1534808012839 4170.380963802323
1365.9686644538815 4014.182073615706
1366.783648864117 4421.118787010594
1367.5984340868417 4509.518074433285
1368.413020176893 4336.403278711589
1369.2274071890715 4146.937211378316
1370.0415951781652 4487.72248215387
1370.8555841989346 4302.514386380257
1371.6693743061223 4172.741830817348
1372.48296555444 4096.422617697043
1373.2963579985844 4290.979679657327
1374.1095516932255 4357.8393632199395
1374.9225466930166 4060.650070288449
1375.7353430525782 4259.236706689619
1376.5479408265164 4157.6094390528115
1377.36034006941 4323.453548613301
1378.1725408358216 4422.734232177996
1378.9845431802805 4017.4227144441475
1379.796347157304 4640.943762630518
1380.6079528213813 4314.500982902935
1381.4193602269788 4071.752712908473
1382.230569428546 4153.484968104471
1383.0415804805016 4434.801079281964
1383.852393437246 4354.241329213257
1384.6630083531563 4237.083883361517
1385.4734252825892 4138.556606378826
1386.2836442798798 4129.100097388157
1387.0936653993322 4237.340593332433
1387.9034886952395 4219.166863510579
1388.713114221864 4275.171685098574
1389.5225420334482 4339.776221066331
1390.331772184214 4112.277050228866
1391.1408047283585 3950.2793116864973
1391.9496397200564 4059.9171356431157
1392.758277213461 4217.081121639013
1393.5667172627054 4289.55041446024
1394.3749599218918 4137.331393366059
1395.1830052451114 4025.9774214100676
1395.9908532864265 4102.024163442522
1396.7985040998774 4315.408118118638
1397.6059577394808 3997.8338089854574
1398.4132142592352 4049.5886404813377
1399.2202737131156 4054.925124602529
1400.027136155073 4223.970340637317
1400.8338016390353 4025.068164074672
1401.6402702189134 4028.499940591614
1402.446541948586 4133.254103152327
1403.2526168819204 4066.525381204313
1404.058495072757 4054.959631561229
1404.8641765749107 4011.0168008873975
1405.6696614421799 4168.024086510559
1406.4749497283356 4408.18378276892
1407.280041487129 3965.767276280248
1408.084936772295 3841.789586191774
1408.8896356375335 4227.936477383227
1409.6941381365323 4079.723951407473
1410.498444322955 3895.654282214804
1411.3025542504402 4001.2212843720226
1412.106467972606 4078.0069838965455
1412.9101855430508 4011.1776348935614
1413.7137070153458 3842.599982947248
1414.5170324430437 3846.4583585732994
1415.320161879672 4035.322681860171
1416.1230953787435 4122.449694249053
1416.925832993742 3876.301276208207
1417.7283747781275 3717.904165857416
1418.5307207853439 4028.4114290741027
1419.3328710688093 3946.0606656726477
1420.134825681922 3651.5661917157654
1420.9365846780584 3761.814486261507
1421.7381481105713 4127.0886009620035
1422.539516032788 3980.807671296261
1423.3406884980232 3698.782124339198
1424.1416655595604 3709.543151937434
1424.942447270665 3786.114076648347
1425.7430336845828 3989.995801701819
1426.5434248545298 3563.8732894722393
1427.3436208337116 3788.481685358838
1428.143621675301 3748.2783859738643
1428.9434274324558 3981.8530832810566
1429.7430381583108 3694.45282437217
1430.5424539059713 3714.630257890738
1431.3416747285337 4144.524681363242
1432.1407006790632 3820.488197009928
1432.9395318106053 3848.8257971965236
1433.7381681761835 3658.463072297228
1434.5366098288014 3887.4467530008214
1435.3348568214424 3885.1731379292323
1436.1329092070573 3699.0030089621773
1436.9307670385879 3799.909592753327
1437.7284303689503 3902.681405886752
1438.5258992510335 3998.887987728627
1439.3231737377118 3738.370649570744
1440.1202538818306 3798.5071416336323
1440.9171397362225 3758.247399346829
1441.7138313536925 3643.421489658417
1442.5103287870243 3654.4096720669304
1443.3066320889775 3542.71245736996
1444.1027413122956 3912.9772029984842
1444.8986565096966 3717.623584005968
1445.694377733882 3721.5397500719127
1446.4899050375207 3537.2610097139623
1447.2852384732687 3678.326337329426
1448.0803780937622 3822.3317607287922
1448.8753239516063 3610.0536055752273
1449.6700760993954 3440.4168290730463
1450.464634589689 3585.3017504125137
1451.2589994750397 3825.3873433222166
1452.0531708079689 3553.212333367813
1452.8471486409799 3485.412963482955
1453.6409330265524 3935.3877205368785
1454.4345240171442 3577.6284049076216
1455.2279216651987 3602.1180727351057
1456.0211260231263 3579.2152113720413
1456.8141371433194 3698.7629199657667
1457.6069550781594 3738.564543811079
1458.3995798799897 3485.0533480944687
1459.1920116011424 3442.4275518457193
1459.98425029393 3402.05696301024
1460.7762960106338 3576.0473162353364
1461.5681488035225 3658.919717252257
1462.3598087248392 3696.424240008423
1463.1512758268036 3916.212913605821
1463.942550161617 3551.0862472436665
1464.7336317814625 3521.9639842019083
1465.524520738496 3662.0491973445737
1466.3152170848552 3505.65728973577
1467.1057208726506 3565.8477193076565
1467.8960321539817 3550.038246419699
1468.6861509809169 3493.12372176207
1469.4760774055085 3582.9249406201466
1470.265811479785 3611.7096188896003
1471.055353255755 3418.833624779197
1471.844702785409 3392.7827918256035
1472.6338601207044 3400.139546530587
1473.4228253135934 3667.5676662377277
1474.2115984159936 3422.903438736499
1475.0001794798063 3376.1812879984946
1475.7885685569145 3630.6195761561116
1476.576765699172 3515.5515062503546
1477.3647709584238 3429.821469307197
1478.1525843864802 3700.9407271118966
1478.9402060351367 3622.101373075892
1479.7276359561693 3702.2281296729257
1480.514874201328 3476.4947791998284
1481.3019208223468 3365.501539975673
1482.0887758709323 3227.7199372781865
1482.8754393987747 3608.185706048482
1483.6619114575406 3382.2653456062485
1484.4481920988783 3494.6597581950277
1485.2342813744108 3516.6959848159095
1486.0201793357446 3744.4233821391776
1486.8058860344572 3438.4675921822827
1487.591401522117 3546.2275901079256
1488.3767258502594 3498.105917000884
1489.1618590704056 3485.594223727033
1489.9468012340494 3235.3655326470735
1490.7315523926754 3675.2316971198757
1491.5161125977356 3651.4538355058235
1492.3004819006637 3551.9445840687076
1493.084660352877 3399.798855602118
1493.8686480057622 3637.9227803193025
1494.6524449106964 3735.4973787437884
1495.4360511190262 3734.071997323865
1496.219466682087 3556.4625024117654
1497.0026916511779 3519.0699820607406
1497.7857260775945 3614.3711624880975
1498.5685700125996 3685.2435983253977
1499.3512235074395 3398.241816498208
1500.133686613337 3380.463918834744
1500.9159593814966 3446.0354482254197
1501.698041863101 3934.579545842258
1502.4799341093094 3284.3377343838583
1503.2616361712662 3292.7483348443575
1504.043148100087 3519.5593817243157
1504.8244699468742 3587.5439304651127
1505.6056017626997 3280.7692168032872
1506.3865435986281 3311.101218161246
1507.1672955056893 3506.341602903831
1507.9478575348967 3343.3296975440217
1508.7282297372512 3640.6566639892444
1509.5084121637192 3470.6710837248866
1510.2884048652577 3464.3112110220404
1511.0682078927948 3421.2298200237296
1511.8478212972423 3397.7322589736045
1512.6272451294917 3458.8068439917756
1513.4064794404076 3505.613168061513
1514.1855242808433 3614.768154877261
1514.9643797016215 3479.411257145689
1515.743045753552 3618.2075909608584
1516.5215224874191 3521.7119982446648
1517.2998099539836 3241.4580751554345
1518.077908203999 3399.0764177491446
1518.8558172881785 3444.3883296277804
1519.633537257234 3546.7163061066
1520.4110681618404 3568.2232768474205
1521.1884100526604 3514.17830819336
1521.9655629803365 3474.1743756884002
1522.7425269954856 3671.4552100600195
1523.5193021487103 3838.3916780088875
1524.2958884905856 3366.5082053810656
1525.0722860716687 3448.714452206743
1525.848494942502 3357.3455552061982
1526.624515153595 3454.895689948581
1527.4003467554485 3405.700067450022
1528.175989798534 3583.9095769205887
1528.9514443333064 3468.2312015523066
1529.726710410203 3706.373908781729
1530.5017880796331 3340.4110039267216
1531.276677391992 3443.6724825506762
1532.0513783976457 3641.3832788507307
1532.825891146953 3462.1003653734433
1533.6002156902414 3535.7552128181414
1534.3743520778207 3548.899184393153
1535.1483003599806 3435.318311874752
1535.9220605869923 3499.876462232871
1536.6956328091019 3661.866153891712
1537.4690170765407 3380.706771380458
1538.242213439511 3506.0598547195814
1539.015221948208 3473.5396706107485
1539.78804265279 3509.9876089748636
1540.560675603405 3254.985317309004
1541.3331208501804 3717.9175753953436
1542.1053784432224 3654.7147465460016
1542.8774484326168 3546.371171088882
1543.649330868422 3518.1529629962993
1544.4210258006842 3542.872121161648
1545.1925332794308 3547.1148921494505
1545.9638533546604 3529.703277401162
1546.7349860763552 3424.379316491542
1547.5059314944829 3865.35575712982
1548.27668965898 3553.330957349368
1549.0472606197673 3521.652208106066
1549.817644426752 3394.5558499359004
1550.5878411298072 3618.8966800401467
1551.3578507787988 3516.0418268393973
1552.1276734235635 3334.3014431107817
1552.8973091139233 3474.0559915585955
1553.6667578996767 3653.16216562368
1554.436019830604 3455.251841148948
1555.20509495646 3486.1620809279457
1555.9739833269869 3344.405327092082
1556.7426849919011 3369.213904018151
1557.511200000903 3596.3857740736553
1558.2795284036674 3471.4200997111934
1559.0476702498509 3445.039421550295
1559.8156255890954 3659.0013265655725
1560.5833944710157 3766.7323917197145
1561.3509769452048 3347.066760337066
1562.1183730612447 3470.5291535486003
1562.8855828686865 3431.640880702648
1563.6526064170703 3720.2766005479803
1564.4194437559127 3585.1537742104265
1565.1860949347047 3431.9912100694464
1565.9525600029283 3828.558951606562
1566.7188390100328 3812.10322022395
1567.4849320054564 3365.245663292196
1568.250839038612 3369.689913515171
1569.0165601588997 3448.320092231455
1569.7820954156887 3667.4264532156244
1570.5474448583373 3417.1283116143254
1571.31260853618 3370.1037902670796
1572.0775864985299 3216.1970409171477
1572.8423787946813 3504.9966995229493
1573.6069854739108 3277.732992889893
1574.371406585471 3450.7557910643472
1575.1356421785986 3617.32984572602
1575.899692302506 3364.6872669978075
1576.6635570063845 3450.785428369128
1577.4272363394157 3305.5399177849913
1578.190730350747 3191.2445984088345
1578.9540390895163 3466.9673518173317
1579.7171626048384 3106.725982551093
1580.480100945806 3279.8126076302588
1581.2428541614918 3331.703256191681
1582.0054223009538 3472.6280669451808
1582.767805413223 3341.0798621682093
1583.5300035473156 3381.4552233885165
1584.292016752228 3481.7557641458566
1585.0538450769309 3593.119881449128
1585.8154885703807 3224.0382139660655
1586.5769472815136 3151.252025175865
1587.3382212592405 3396.9717386622774
1588.099310552463 3553.8745143522356
1588.8602152100484 3501.6938594687263
1589.6209352808564 3436.9926240940986
1590.3814708137234 3405.0925793210904
1591.14182185746 3460.5960701424474
1591.9019884608679 3350.996588813352
1592.6619706727215 3116.7867613591993
1593.4217685417734 3415.2339647962385
1594.1813821167616 3460.212545668443
1594.9408114464022 3156.924457599117
1595.7000565793933 3354.22279258276
1596.459117564409 3482.423576228755
1597.2179944501113 3314.756131812423
1597.9766872851324 3340.7361906460537
1598.735196118092 3503.8757097893204
1599.4935209975883 3420.4248989490707
1600.2516619721973 3537.19862403941
1601.0096190904787 3283.5128830293993
1601.7673924009723 3259.1810457824135
1602.524981952196 3260.705561665143
1603.2823877926476 3246.8292583919124
1604.0396099708087 3141.5710905053265
1604.7966485351371 3064.6182774863737
1605.5535035340745 3200.032612592175
1606.3101750160404 3440.8810322218487
1607.0666630294363 3147.36020246405
1607.822967622642 3055.0735201861057
1608.5790888440224 3281.970818837057
1609.3350267419137 3412.701782765268
1610.0907813646445 3149.4252577112557
1610.8463527605145 3160.0567954973294
1611.601740977805 3413.5128270183172
1612.356946064785 3298.7796810319137
1613.1119680696902 2909.3579458239933
1613.8668070407512 3184.332260548149
1614.6214630261748 3134.49149933587
1615.375936074137 3362.1925591551167
1616.1302262328118 3189.6163480028804
1616.8843335503425 3362.337102194718
1617.638258074854 3012.957376495765
1618.391999854457 3317.7648424317695
1619.1455589372363 3309.220363121511
1619.8989353712623 3229.6468961204982
1620.65212920458 3003.191564062607
1621.4051404852235 3133.2008057333724
1622.1579692611976 3189.8271394757917
1622.9106155804966 2998.5483673360673
1623.663079491087 3199.447496735278
1624.4153610409248 3301.0938279785014
1625.1674602779385 3077.6890050888346
1625.9193772500403 2921.2743267779706
1626.6711120051277 3358.2948456950676
1627.4226645910676 3289.182544432846
1628.174035055721 3034.5963164308396
1628.9252234469168 3301.396528001561
1629.676229812474 3126.0756744387904
1630.4270542001905 3534.172950284387
1631.1776966578382 3090.696896232525
1631.9281572331747 3108.8942234511405
1632.678435973945 3297.290081463335
1633.4285329278573 3243.2129778980666
1634.1784481426203 2885.4701347085156
1634.9281816659113 3109.092485709476
1635.677733545388 3380.074657679424
1636.4271038286934 3101.4398879337964
1637.176292563452 3245.1799829525053
1637.9252997972635 3286.09542024764
1638.674125577716 3331.386143808758
1639.4227699523672 3613.909589294919
1640.171232968767 2989.6862137818266
1640.9195146744423 3266.499256324929
1641.6676151168977 3454.539081844678
1642.4155343436178 3516.9526801610673
1643.1632724020765 3253.7186297590656
1643.9108293397167 3184.567431624733
1644.658205203974 3161.122895878468
1645.4054000422566 3837.7302967474798
1646.1524139019566 3236.6744970713216
1646.8992468304423 3152.4016587193137
1647.6458988750728 3241.950181448322
1648.3923700831765 3237.0361914921987
1649.1386605020743 3134.895693183139
1649.8847701790564 3439.32800127881
1650.6306991614038 3330.146570118212
1651.3764474963682 3333.9409033710494
1652.1220152311944 3041.5370431487836
1652.867402413096 3391.5216763543226
1653.6126090892776 3212.8070241624127
1654.3576353069184 3596.459746298811
1655.1024811131829 3295.415348323205
1655.8471465552066 3220.0796299563
1656.5916316801213 3364.204011876337
1657.3359365350298 3230.5647622809893
1658.0800611670165 3082.1890023518317
1658.824005623148 3260.1812000045425
1659.5677699504722 2964.1322381236982
1660.3113541960192 3245.046932933641
1661.054758406799 3049.377677589072
1661.7979826297997 2948.0074939585716
1662.5410269119966 2923.6860903895094
1663.283891300338 3181.748067847187
1664.0265758417645 2985.8858695537892
1664.7690805831826 3161.646715058023
1665.5114055714948 3138.193216031952
1666.2535508535748 3466.272244747147
1666.9955164762814 2726.996132046458
1667.7373024864555 3056.9471614145195
1668.478908930916 3088.41436127851
1669.220335856462 2988.322740202033
1669.9615833098778 2949.0610114513115
1670.7026513379296 2854.2143292124697
1671.44353998736 2964.904093812666
1672.1842493048916 2946.270543999085
1672.9247793372379 2814.513915518381
1673.6651301310812 3035.103117950743
1674.4053017330934 2814.501731331853
1675.1452941899242 3090.9855271745855
1675.885107548207 2556.3019553088106
1676.6247418545518 2555.36831024303
1677.3641971555535 2828.1400038042725
1678.1034734977893 2866.6654045406563
1678.8425709278108 2908.6351271386147
1679.5814894921605 2921.715374541729
1680.320229237359 3012.29101817261
1681.0587902098978 3041.6715091725455
1681.7971724562685 2723.200257859085
1682.5353760229264 2657.8841913916344
1683.2734009563173 2927.718858244179
1684.0112473028657 2659.001998979634
1684.7489151089794 2833.9468162753074
1685.4864044210462 2851.7247534908784
1686.2237152854377 2386.067224505109
1686.960847748498 2981.0930726488473
1687.6978018565642 2573.7514664259243
1688.434577655944 2541.9318820431427
1689.1711751929379 2552.9392319895865
1689.9075945138156 2775.264692193524
1690.6438356648396 2580.1750359396515
1691.3798986922448 2224.662353277389
1692.1157836422499 2578.8589828793615
1692.851490561059 2513.1323634412097
1693.587019494853 2626.438381599788
1694.3223704897991 2231.277577357575
1695.0575435920364 2297.494416297536
1695.792538847696 2392.143647888694
1696.527356302886 2486.8191987991686
1697.2619960036936 2302.3399758487126
1697.9964579961907 2370.7395488329184
1698.730742326432 2085.86867326294
1699.4648490404488 2182.875025839183
1700.1987781842563 2380.3779760752254
1700.9325298038548 2512.1972540219695
1701.6661039452174 2629.5536607436034
1702.3995006543082 2556.3592806996367
1703.1327199770658 2626.353513677574
1703.865761959416 2349.7537419481214
1704.598626647261 2719.971581811681
1705.3313140864866 2271.0710377244895
1706.0638243229587 2368.7831135597958
1706.7961574025303 2491.036626332635
1707.528313371029 2440.076613264119
1708.260292274268 2227.2036819871146
1708.9920941580403 2418.853352431106
1709.7237190681226 2512.2432220749024
1710.4551670502697 2382.8316252242844
1711.18643815022 2166.511705556239
1711.9175324136959 2279.9687960484794
1712.6484498863938 2393.6062128605527
1713.379190614005 2157.0172730554596
1714.109754642188 2291.417483477493
1714.8401420165883 2333.339088430419
1715.570352782839 2557.652335247459
1716.3003869865497 2328.5027121161174
1717.0302446733076 2156.3348200330965
1717.7599258886876 2333.490486800162
1718.4894306782444 2672.0959200432058
1719.2187590875183 2160.5677392702546
1719.9479111620203 2512.981534323489
1720.6768869472544 2255.5137235788634
1721.4056864887025 2587.654400806199
1722.1343098318284 2601.1348808829052
1722.8627570220742 2367.8768286406134
1723.591028104871 2128.934704518452
1724.3191231256242 2190.05708802965
1725.0470421297232 2335.3667908756643
1725.7747851625427 2410.7452201894143
1726.5023522694337 2452.898792748435
1727.2297434957363 2378.160288009185
1727.9569588867635 2132.8903255282594
1728.6839984878152 2390.3395021369333
1729.4108623441734 1933.6625871595857
1730.1375505011038 2390.90408107268
1730.8640630038426 2170.61679604551
1731.5903998976264 2162.017974774409
1732.316561227657 2307.3601979818495
1733.0425470391274 2122.0397107014273
1733.7683573772065 2268.756916495089
1734.4939922870508 2326.955867075123
1735.2194518137949 2248.3124331820823
1735.9447360025606 2376.487298232746
1736.669844898439 2173.172295881503
1737.3947785465189 2118.0663192379293
1738.1195369918605 2013.793181554888
1738.8441202795093 2141.531087742109
1739.5685284544943 2311.365902045397
1740.292761561821 2390.977667958607
1741.0168196464838 2310.5117486750387
1741.7407027534518 2294.270718841356
1742.464410927687 2330.1640964819608
1743.187944214118 2152.099397205833
1743.9113026576688 2255.6959039186527
1744.634486303241 2228.1959812687437
1745.3574951957125 2246.949258044082
1746.0803293799509 2444.451875431104
1746.8029889008048 2176.343595442464
1747.5254738031017 2394.4142544690008
1748.2477841316504 2099.610422930751
1748.969919931249 2209.131322235008
1749.6918812466665 2256.20892817028
1750.4136681226646 2516.3182732040627
1751.1352806039777 2170.1064364685517
1751.856718735331 1924.1067749021277
1752.5779825614281 1994.5584126420479
1753.2990721269507 2311.7384429916547
1754.0199874765676 2259.098410836441
1754.7407286549314 2061.337012249479
1755.4612957066693 2130.6403174907296
1756.1816886763954 2049.948707077633
1756.9019076087097 2272.9351449800765
1757.6219525481865 2207.3701727975435
1758.3418235393856 2170.4153824244218
1759.061520626854 2260.8747712691666
1759.7810438551096 2373.997037131133
1760.5003932686614 2023.8859565779592
1761.2195689119999 2431.038167477912
1761.938570829594 2296.488206105277
1762.657399065898 2316.5896737797857
1763.376053665348 1995.9503364836487
1764.0945346723602 1977.690947573199
1764.812842131334 2254.564922423052
1765.5309760866512 1957.2704468486486
1766.2489365826787 1966.918399337124
1766.9667236637597 2100.5237038940363
1767.684337374223 1805.7267515138167
1768.401777758383 1971.2184501798947
1769.1190448605284 2078.5812636140918
1769.836138724937 1915.3275757811123
1770.5530593958665 2223.616140795128
1771.2698069175603 2383.3429591074373
1771.9863813342326 2246.9111359204007
1772.702782690094 2097.34047916764
1773.4190110293293 2343.973627688307
1774.1350663961111 2203.428223214694
1774.8509488345844 2053.664109101476
1775.5666583888924 2201.3424724589386
1776.2821951031437 2317.1612078933404
1776.9975590214362 2097.256697916936
1777.7127501878585 2327.56364770595
1778.4277686464684 2209.1584925839043
1779.1426144413108 2394.426003728377
1779.8572876164162 2372.415144068315
1780.571788215797 1909.7737063441004
1781.2861162834415 2097.250564448315
1782.0002718633277 2026.1394617520702
1782.7142549994132 2280.1708081997594
1783.4280657356376 2197.7275007405424
1784.141704115922 2050.4622633820936
1784.855170184177 2113.5133615832683
1785.5684639842839 2193.4919616204293
1786.2815855601148 1806.9737370845828
1786.9945349555237 2226.5723389551285
1787.707312214343 1910.0223640495271
1788.4199173803918 1929.817612100327
1789.132350497468 1949.814803532264
1789.8446116093583 2045.127774578043
1790.556700759822 2037.5613319361503
1791.2686179926077 1935.6729282164529
1791.9803633514493 2012.8047680683144
1792.6919368800554 1844.6136157890378
1793.4033386221236 2254.853598071943
1794.1145686213295 2219.685224067786
1794.8256269213307 2267.0365631312975
1795.536513565774 2251.396762692063
1796.247228598284 1721.6502769944177
1796.9577720624693 1968.0172204645155
1797.6681440019165 2135.9941744631064
1798.3783444602013 2111.805652165948
1799.0883734808776 2087.4813083544113
1799.7982311074884 2151.9786643696507
1800.5079173835475 2169.4542129003953
1801.2174323525633 2125.7531383484775
1801.9267760580187 1972.0271702563846
1802.635948543386 2054.3447576844324
1803.3449498521113 1890.2737740882026
1804.0537800276325 2234.009656352433
1804.7624391133668 2089.666598147972
1805.47092715271 1796.0398548932778
1806.1792441890484 1964.6723671455688
1806.8873902657433 2210.7328186771024
1807.5953654261448 2042.1058633250136
1808.3031697135812 1961.3291514591594
1809.0108031713662 1912.0220900729878
1809.71826584279 1963.2672162882402
1810.425557771141 2044.4782251340312
1811.1326789996747 1970.7459133393381
1811.839629571632 1896.820458947399
1812.5464095302468 2002.8299408515256
1813.2530189187182 1964.5294471780858
1813.959457780249 1996.2452455394746
1814.6657261580076 2103.942403921581
1815.371824095153 2126.54191180287
1816.0777516348262 2151.7133781291145
1816.78350882015 1654.4384435527754
1817.4890956942272 1698.7733404330716
1818.1945123001533 1954.1136577921795
1818.8997586809928 2100.910055067114
1819.6048348798067 1917.7598658000836
1820.3097409396287 2021.9139061786987
1821.0144769034796 2235.979687591979
1821.7190428143622 2096.8636825547787
1822.423438715261 2248.799029611388
1823.1276646491478 1943.05839482652
1823.8317206589727 2066.262535328608
1824.5356067876692 2114.677514619546
1825.2393230781581 2042.8877610200936
1825.942869573335 1832.3429091702296
1826.646246316086 1773.8842220483032
1827.3494533492758 2120.7472180570594
1828.052490715756 2048.918767817088
1828.7553584583547 2066.2882198013076
1829.458056619891 2183.0373618146177
1830.1605852431585 1933.7178505441084
1830.8629443709433 1767.684319876389
1831.5651340460063 1935.2595112179024
1832.2671543110919 1856.9475426814229
1832.9690052089318 2089.04725572627
1833.6706867822395 1686.0864157520004
1834.3721990737104 2101.9555876715394
1835.0735421260233 2174.728187993513
1835.774715981841 1910.4141226238248
1836.4757206838058 2269.4364691691117
1837.1765562745459 1914.819648959738
1837.8772227966747 1836.6826767356226
1838.5777202927839 1984.4829007936648
1839.2780488054523 1924.2479536282358
1839.9782083772352 1808.3702814246947
1840.6781990506806 2233.386084257923
1841.378020868313 1993.6580783066297
1842.0776738726418 1925.594572111399
1842.777158106157 1834.1178467251157
1843.4764736113375 1855.7010236447604
1844.1756204306403 2025.3449783421195
1844.8745986065078 2078.252716836075
1845.5734081813607 1777.8387207355506
1846.2720491976124 1858.6714647249441
1846.970521697649 1816.058045113829
1847.6688257238511 2093.071121930908
1848.3669613185684 1997.97985695561
1849.0649285241452 1655.3165139176308
1849.7627273829057 2113.625385180618
1850.460357937156 1891.539215041541
1851.1578202291857 1563.228440612427
1851.8551143012664 1889.050379562219
1852.5522401956569 1836.3025721931724
1853.2491979545957 2120.604521275811
1853.9459876203055 1792.1939945751044
1854.6426092349902 1730.0953550608606
1855.3390628408451 1778.5217418406223
1856.0353484800362 2197.2976838419554
1856.7314661947203 2078.924581123532
1857.4274160270397 1854.1572983658548
1858.123198019115 1937.7768278822211
1858.8188122130487 1715.1673101271456
1859.5142586509319 1900.1302732522533
1860.209537374838 1798.4639863482455
1860.9046484268183 1816.3274084688699
1861.599591848917 1820.3053886286034
1862.294367683151 1824.2677815757404
1862.988975971528 1782.994798786886
1863.6834167560355 1866.9214221259651
1864.3776900786452 2069.356885856836
1865.0717959813119 1742.3650985195407
1865.7657345059724 1710.4902113272396
1866.4595056945564 1945.6002995543936
1867.1531095889586 2036.185543190951
1867.846546231076 1675.1761188183434
1868.5398156627743 2055.3208524806346
1869.2329179259123 1833.8630153597544
1869.9258530623283 2043.9682217644142
1870.618621113843 1791.3877447249001
1871.3112221222636 1668.220957138621
1872.0036561293764 1752.9608031369855
1872.695923176956 1945.0233852268964
1873.3880233067594 1969.3494815376876
1874.0799565605212 1734.918337577393
1874.7717229799673 1852.539168084903
1875.4633226068036 2057.661777477189
1876.1547554827175 2001.9722859831484
1876.8460216493859 1817.2727602825514
1877.5371211484617 1896.5285398523931
1878.2280540215852 2089.116034676089
1878.9188203103804 1657.9013631996895
1879.6094200564548 1881.5634340172205
1880.299853301396 1851.9812800139193
1880.9901200867826 2048.5827276129344
1881.6802204541673 1972.863408845035
1882.3701544450942 1968.0865000908984
1883.059922101087 1764.0883465682982
1883.7495234636517 1778.2261358994
1884.4389585742792 1792.353770903197
1885.1282274744517 1749.0044174319798
1885.8173302056166 1846.019557371482
1886.506266809225 1943.1670524489928
1887.195037326701 1742.7069931066358
1887.8836417994517 1771.6207379036616
1888.5720802688702 2050.966281259499
1889.260352776333 2088.2869027758215
1889.9484593632042 2092.5816483322565
1890.63640007082 1801.192391882561
1891.3241749405151 1666.3253828723023
1892.0117840135954 1901.0889480221492
1892.6992273313572 1846.974641291099
1893.3865049350788 1650.6944704706552
1894.0736168660223 1802.3046883356496
1894.7605631654333 1954.0899655821722
1895.4473438745408 1738.3173535275714
1896.133959034556 2074.9642439976396
1896.820408686679 1902.104509570084
1897.506692872088 2158.7573386275835
1898.192811631945 1894.387593225815
1898.8787650073991 1876.5134987644894
1899.5645530395832 2028.7294446457222
1900.2501757696118 1910.6170757063805
1900.9356332385796 1710.9494128780134
1901.620925487574 1767.65619404221
1902.3060525576602 1824.5996610063157
1902.9910144898859 2035.2721539937575
1903.6758113252872 1699.157279968157
1904.3604431048789 1954.9215850790558
1905.0449098696663 2025.4124722417305
1905.7292116606295 1757.6545763206955
1906.4133485187394 1933.1046421374972
1907.0973204849488 1625.3029238614154
1907.7811276001976 1733.19966128532
1908.4647699053967 1908.1400132183448
1909.1482474414588 1856.39506893525
1909.8315602492694 1804.459185515485
1910.5147083696957 2051.3656237805335
1911.1976918436012 1879.3034766026515
1911.880510711815 1759.3184323108355
1912.5631650151681 2019.4038579097028
1913.2456547944657 1657.7649484151013
1913.927980090495 1839.6893033557815
1914.6101409440362 1855.7579692095326
1915.2921373958416 2070.4250749163107
1915.9739694866603 1834.4275030182398
1916.655637257214 1988.415204142555
1917.3371407482136 1936.239745936328
1918.0184800003572 2147.037655144389
1918.6996550543154 1973.4003818578763
1919.3806659507554 1883.8451223665645
1920.0615127303208 1806.1396739305953
1920.7421954336423 2075.593584117978
1921.4227141013343 2051.633451786996
1922.103068773993 2015.5268244025058
1922.783259492202 2043.5928613176334
1923.4632862965227 1843.7254147642113
1924.1431492275078 1780.6151971539857
1924.8228483256917 1682.1002564331532
1925.5023836315922 1763.5314471712122
1926.1817551857057 1916.0916632289998
1926.8609630285227 2068.969889614523
1927.5400072005123 2039.879363000712
1928.218887742125 1688.9417927826785
1928.8976046938005 1682.1480836395963
1929.5761580959588 1966.1240436691974
1930.2545479890086 1872.55208482489
1930.9327744133352 1696.1619427837318
1931.6108374093164 1922.0976854215162
1932.2887370173066 2209.799431481538
1932.9664732776473 2097.783574908827
1933.6440462306673 1985.4342925694898
1934.3214559166754 1769.2606034486096
1934.9987023759659 2132.574967906687
1935.675785648813 1999.3506666799337
1936.3527057754836 2158.350193964077
1937.029462796223 1561.7079264360116
1937.70605675126 1707.3412085291566
1938.3824876808085 1713.0306976549043
1939.058755625072 1688.2968160429568
1939.7348606242267 1726.4569766287993
1940.4108027184448 1871.6195743914632
1941.0865819478713 1995.1359951062434
1941.7621983526478 1573.6180203186975
1942.4376519728921 1693.216512474511
1943.1129428487038 1803.4680405727995
1943.7880710201734 2111.663763984053
1944.4630365273733 1906.3707818755622
1945.1378394103576 1620.7384373648354
1945.8124797091714 1579.5248181232896
1946.4869574638324 1538.1741341668499
1947.161272714353 1771.1714874760012
1947.8354255007234 1962.0718620526015
1948.5094158629272 1771.5107913934316
1949.1832438409183 1965.6119881483926
1949.8569094746435 2000.293964621516
1950.530412804037 2110.6238383044274
1951.2037538690092 2035.8772890808784
1951.8769327094578 1797.8700452949524
1952.5499493652678 1824.668310327835
1953.222803876306 2033.2844177010024
1953.895496282421 1883.99817183933
1954.5680266234522 1860.0240428522513
1955.2403949392155 2004.5338271191151
1955.9126012695142 1573.816780219068
1956.5846456541403 1778.756635767105
1957.2565281328643 1768.190923203015
1957.9282487454457 2076.198716509257
1958.5998075316202 1949.60488536663
1959.27120453112 1750.491709041523
1959.9424397836501 1873.3200608354277
1960.613513328908 2013.0324567506796
1961.2844252065697 2033.2843356686694
1961.9551754563017 1797.296613705966
1962.6257641177453 1717.075074541492
1963.29619123054 1627.8088064859874
1963.966456834296 1709.5005049122549
1964.6365609686181 1529.4141914363981
1965.306503673086 1920.2557201408576
1965.976284987275 1741.9505933882126
1966.645904950734 1624.532605802025
1967.315363603002 1895.052470454769
1967.9846609836077 1798.666934717107
1968.6537971320486 1659.1776035404696
1969.3227720878222 1944.1078175066862
1969.9915858904042 1702.726028636021
1970.660238579252 1797.1617796140647
1971.3287301938108 1693.0981136941639
1971.997060773514 1658.3300782419988
1972.665230357772 1643.5160081203019
1973.3332389859843 1701.1603037647135
1974.0010866975335 1622.2767759395388
1974.6687735317864 1790.3335690969047
1975.3362995280932 1936.8400746473621
1976.003664725793 1782.4413654027417
1976.6708691642052 1614.7472047971635
1977.3379128826364 1698.4311411943509
1978.004795920373 2043.970556972114
1978.6715183166925 2122.8463862254866
1979.3380801108524 1977.5259175342642
1980.0044813420973 1832.091552117529
1980.6707220496555 1432.076929106989
1981.3368022727373 1760.7264366057502
1982.0027220505417 1926.0976022533382
1982.66848142225 1444.5838288799105
1983.3340804270283 1517.072860058342
1983.999519104027 1731.108794739422
1984.6647974923835 1850.2684460234632
1985.329915631215 1911.3890708619906
1985.99487355963 1733.2739669687394
1986.6596713167146 2018.6884893944691
1987.3243089415428 1567.2052379562556
1987.9887864731754 2066.5828243283145
1988.6531039506553 1635.472995071708
1989.3172614130071 1595.9710954490963
1989.9812588992481 1556.4261127513312
1990.645096448372 1531.5072347784558
1991.3087740993633 1922.7333415615333
1991.9722918911848 1779.5741258326739
1992.635649862792 1826.8853219335665
1993.2988480531185 1785.9818517735919
1993.9618865010852 1722.6976150175808
1994.6247652455968 1659.3617862968913
1995.287484325545 1669.3144227709568
1995.9500437798033 1642.6605422357486
1996.6124436472292 1562.9219398586672
1997.2746839666706 1903.1366713485427
1997.936764776954 1652.6651545711325
1998.598686116895 1620.839793222672
1999.2604480252903 2095.6651715313037
1999.9220505409212 1965.574617304522
2000.5834937025593 1583.1920906013959
2001.2447775489582 1711.3976553438595
2001.9059021188514 1736.7037258634675
2002.5668674509616 1669.1104284774035
2003.2276735839987 1688.9713486807661
2003.8883205566508 2042.273247329375
2004.5488084075987 1739.8792411706313
2005.2091371755014 1691.4422246755814
2005.8693068990033 1489.8708595294747
2006.5293176167397 1542.3317930373664
2007.1891693673224 1595.0213434179866
2007.848862189354 1428.5208957889017
2008.5083961214223 1808.117833892108
2009.1677712020955 1621.9885701890098
2009.8269874699254 1568.7851829248286
2010.4860449634598 1541.6047181864958
2011.1449437212177 1514.4438819998736
2011.8036837817108 2015.1519548465162
2012.4622651834325 1865.2417965279371
2013.1206879648653 1820.849831923236
2013.7789521644736 1635.1526406569544
2014.4370578207036 1853.2191826254195
2015.0950049719922 1724.916083366498
2015.7527936567585 1918.3982460378295
2016.4104239134067 1770.1604982120705
2017.067895780323 2297.346763624098
2017.725209295886 2182.4622349203773
2018.3823644984514 2067.2046471914628
2019.0393614263648 1784.300459447326
2019.6962001179545 1755.8680309886252
2020.3528806115355 1919.0601555856806
2021.0094029454067 1787.2896403738487
2021.6657671578487 1469.3659840406294
2022.321973287133 1790.1414396895375
2022.9780213715148 1623.5340913331047
2023.6339114492293 1669.9784242472676
2024.2896435585026 1648.9827805504858
2024.9452177375442 1637.6892119861673
2025.600634024544 1888.3615615792155
2026.2558924576842 1794.4063301885603
2026.9109930751292 1942.432555481694
2027.565935915025 2031.3744196199082
2028.2207210155066 2120.5969692595727
2028.8753484146964 2153.5372852029786
2029.529818150695 2050.925524385653
2030.1841302615903 1947.8485307440042
2030.8382847854573 1490.912417776805
2031.4922817603601 1903.211792245312
2032.1461212243357 1674.5577250536942
2032.7998032154192 1493.3786392204304
2033.4533277716218 1594.8213509352202
2034.1066949309443 1578.7223199005489
2034.7599047313688 1517.3690019155174
2035.4129572108704 1955.451253215586
2036.0658524074006 1777.4091863254525
2036.7185903589016 1737.9888251806174
2037.3711711032956 1775.8005581013706
2038.023594678496 1728.8010679718268
2038.675861122394 1575.792406842239
2039.3279704728757 1569.2168966047916
2039.9799227678031 1562.7707880286773
2040.6317180450278 1612.418578264718
2041.2833563423865 1630.0379578934183
2041.9348376977014 1759.4328644804577
2042.5861621487784 1889.080090940987
2043.2373297334088 1760.8832435219952
2043.8883404893695 1862.0941670137424
2044.5391944544208 1843.8282276025989
2045.1898916663158 1928.1853125007287
2045.8404321627804 2063.962052594851
2046.4908159815368 1627.6708949096196
2047.1410431602853 1689.1748862719019
2047.7911137367173 1628.4640307197644
2048.441027748504 1591.1540448526919
2049.090785233302 1553.7486163700391
2049.7403862287592 1588.11642079326
2050.389830772503 1571.4349083887787
2051.0391189021466 1554.7820313809887
2051.688250655294 1900.7111109473294
2052.337226069527 1477.8118064669623
2052.986045182417 1954.9204572137012
2053.634708031521 1322.250066160828
2054.283214654375 1814.8662468813436
2054.931565088511 1534.3692818348743
2055.579759371436 1534.5791459084016
2056.2277975406523 1618.3516185620626
2056.8756796336384 1508.1319056510822
2057.5234056878617 1397.5704715867366
2058.1709757407752 1629.2074233923177
2058.8183898298194 1969.535188083945
2059.465647992416 1775.101381862233
2060.1127502659747 1887.5193710057251
2060.759696687888 1900.7464872570133
2061.4064872955405 1913.9946084883773
2062.053122126292 2012.8987894767865
2062.699601217497 1820.0293905264784
2063.345924606485 1627.1828239165015
2063.992092330587 1557.3967815034193
2064.638104427102 1611.325594727412
2065.283960933324 1636.9552413179708
2065.92966188653 1662.6287471707815
2066.5752073239855 1837.1881073989957
2067.2205972829397 1512.875953382689
2067.86583180062 1719.3877894237369
2068.5109109142522 1653.0399205733477
2069.15583466104 1639.0100021830087
2069.8006030781708 1561.194190865173
2070.445216202821 1674.7108518574482
2071.089674072153 1900.0244620611552
2071.7339767233116 1951.0641641223701
2072.3781241934303 1643.9183768480602
2073.0221165196253 1755.435319435342
2073.6659537390024 1587.3204254844818
2074.3096358886505 1569.3500314497858
2074.953163005637 1551.4210616660225
2075.596535127028 1399.0798883917328
2076.2397522898664 1481.258446998775
2076.882814531182 1560.1111296796864
2077.5257218879924 1804.1285218553862
2078.1684743973 1562.1051708970247
2078.8110720960885 1482.7325815024988
2079.453515021336 1623.153385289078
2080.095803209997 1763.6931297043316
2080.7379366990135 1758.8932517138892
2081.37991552532 1850.6665390491974
2082.0217397258275 1874.6084241317185
2082.6634093374414 1503.6510033286436
2083.3049243970418 1638.1263226456156
2083.9462849415067 1780.9401899644454
2084.587491007689 1759.1175963366325
2085.2285426324324 1744.3254798253492
2085.869439852564 1708.8106591789049
2086.510182704902 1616.6202082947389
2087.1507712262483 1680.5367703780666
2087.791205453381 1444.4842412231212
2088.4314854230743 1912.9451569830228
2089.0716111720867 1742.7733908925597
2089.7115827371617 1376.0671768248649
2090.351400155023 1478.961470369767
2090.991063462385 1582.113872602788
2091.6305726959527 1513.77939357466
2092.2699278924047 1677.3670665908248
2092.9091290884153 1564.784888129162
2093.548176320641 1434.4726804536936
2094.187069625721 1407.391967211272
2094.8258090402887 1380.2513172043691
2095.464394600951 1638.4609519231828
2096.102826344313 1738.833949549887
2096.741104306955 1865.284037453248
2097.379228525453 1499.2699602898217
2098.017199036358 1356.1273641127484
2098.6550158762147 1569.7747260640867
2099.2926790815527 1783.8750720423093
2099.9301886888825 1683.0355866478676
2100.5675447347076 1564.219949915932
2101.2047472555114 1580.082447751743
2101.841796287761 1595.9817117781963
2102.47869186792 1665.3016024199183
2103.1154340324265 1477.1014992197333
2103.752022817709 1559.5488133339888
2104.388458260184 1541.029091445943
2105.024740396251 1532.0166452884514
2105.660869262292 1536.1246886127876
2106.296844894685 1880.593266769663
2106.93266732978 1785.9535852768763
2107.5683366039284 1664.8019172145773
2108.2038527534532 1666.8331811445428
2108.8392158146726 1937.678779173486
2109.4744258238843 1580.9033938439798
2110.1094828173755 1546.8350271684137
2110.744386831422 1960.7798938867356
2111.3791379022787 1763.1463813899154
2112.01373606619 1923.6902201015455
2112.648181359389 1800.4694472870528
2113.28247381809 1862.1501428435718
2113.916613478492 1719.0250294770976
2114.550600376786 1702.9129676945154
2115.1844345491445 1692.7423910694204
2115.818116031729 1531.585861936466
2116.451644860679 1714.6577609354451
2117.085021072133 1418.89894893722
2117.718244702204 1536.1648691244516
2118.3513157869984 1581.5087970817897
2118.984234362604 1502.1734348596588
2119.617000465092 1641.6334951783742
2120.249614130529 1609.8689670485007
2120.8820753949585 1578.057100956106
2121.5143842944162 1597.7521358131492
2122.14654086492 1624.9523056742169
2122.7785451424734 1730.9949626706843
2123.4103971630702 1761.1996982052228
2124.042096962681 1791.6684170826077
2124.6736445772767 1826.0756412543826
2125.305040042802 1572.961094577427
2125.936283395191 1587.4661655623172
2126.567374670365 1743.0694485039735
2127.198313904233 1493.5596105038935
2127.8291011326855 1471.0102943872744
2128.4597363916037 1448.2389935993983
2129.0902197168507 1633.5109698338508
2129.720551144279 1805.2511547608199
2130.3507307097225 1977.1115031053182
2130.980758449008 1904.870782927188
2131.6106343979427 1613.0261759648915
2132.2403585923203 1837.165179107539
2132.8699310679276 2026.5273427125455
2133.499351860526 1742.8356374589644
2134.1286210058715 1737.436513811162
2134.7577385397053 1870.1840165608642
2135.3867044977487 2003.160736115838
2136.0155189157176 2069.473129269268
2136.644181829308 1959.4550489649268
2137.2726932742025 1692.7623898326353
2137.901053286074 1608.2168174384406
2138.5292619005777 1523.6004196636686
2139.1573191533535 1725.938747693151
2139.7852250800315 1849.4608669192917
2140.4129797162295 1731.6031366871398
2141.0405830975433 1304.9208221127224
2141.6680352595613 1411.4496859514413
2142.2953362378576 1518.1987193868795
2142.9224860679915 1647.277833704733
2143.549484785508 1733.6181797453294
2144.1763324259373 1564.4168098357854
2144.803029024799 1650.7866784555104
2145.429574617594 1407.5094324312347
2146.0559692398165 1736.1346047563184
2146.682212926942 1562.148491325242
2147.308305714432 1753.8452188924762
2147.9342476377333 1920.2472907770666
2148.5600387322847 2114.7945081523467
2149.185679033506 1709.889584193673
2149.8111685768017 1517.3581678148678
2150.4365073975678 1570.7869510445662
2151.061695531187 1561.9375362372862
2151.686733013021 1894.3012467976318
2152.311619878423 1818.2467372169492
2152.9363561627342 1634.5300046943582
2153.560941901278 1379.8971819151543
2154.1853771293663 1596.6377643670533
2154.809661882293 1769.9165888052241
2155.433796195348 2013.8577947807287
2156.0577801037944 1840.167859594078
2156.681613642895 1666.1214284380026
2157.3052968478896 1322.0527527990557
2157.928829754006 1860.3669490516409
2158.552212396462 1850.8136223142997
2159.1754448104566 1710.0287975535539
2159.7985270311783 1508.7042073782338
2160.4214590938027 1119.0329273527182
2161.0442410334927 1301.8417669887344
2161.6668728853874 1691.6923083081388
2162.289354684628 1659.60538574251
2162.911686466332 1602.8994628114071
2163.533868265602 1719.5915415767308
2164.1559001175337 2069.724904738393
2164.7777820572046 1893.7068155954198
2165.399514119681 1795.2331862278982
2166.021096340013 1543.280930185735
2166.6425287532384 2048.9974316809084
2167.263811394385 1454.7339655724068
2167.8849442984574 1983.6328580886607
2168.505927500455 1606.258811354909
2169.126761035366 1717.7634208491259
2169.7474449381552 1597.0503783270447
2170.367979243778 1721.5386271465522
2170.9883639871823 1846.4363419164656
2171.608599203293 1597.0086046671715
2172.2286849270276 2090.691382516685
2172.8486211932886 1940.8271259186126
2173.4684080369625 1764.1414736909894
2174.0880454929265 1460.2902379265922
2174.7075335960417 1403.987054673218
2175.3268723811543 1373.3350398352727
2175.9460618831 1342.626069027043
2176.565102136701 1555.1821011907637
2177.1839931767627 1544.6101295085923
2177.802735038078 1534.0324026416934
2178.421327755432 1546.7196844356745
2179.0397713635866 1643.3879058795767
2179.658065897298 1514.6863592419822
2180.276211391305 1835.924469324559
2180.8942078803357 1637.4039355136915
2181.5120553991 1726.325937599544
2182.129753982299 1439.9556129451987
2182.7473036646206 1707.3625891459146
2183.3647044807367 1748.2935602196835
2183.9819564653044 1740.2747821947949
2184.599059652968 1732.2971267333414
2185.216014078367 1796.4835803682163
2185.832819776113 1839.1788856989544
2186.4494767808137 1881.8703045364412
2187.065985127063 1628.0799648743991
2187.682344849436 1811.2164671894764
2188.298555982501 1989.1117470473837
2188.9146185608097 1819.7580685907365
2189.530532618901 1840.2368015899963
2190.1462981912937 1675.8856530790308
2190.761915312507 1682.7366483841179
2191.377384017036 1688.309319823602
2191.9927043393654 1625.823203950191
2192.6078763139667 1854.5554676091022
2193.2228999753006 1491.7863648799992
2193.837775357808 1671.7037739948096
2194.452502495922 1209.5153263682096
2195.0670814240602 1579.2271720996055
2195.6815121766285 1279.158163860454
2196.2957947880186 1320.2505857239016
2196.9099292926057 1361.4305563907126
2197.523915724758 1648.9102839623333
2198.137754118825 1642.399933280216
2198.7514445091456 2057.7182158170185
2199.3649869300443 2068.3548462435783
2199.9783814158327 2079.103185909265
2200.5916280008096 2077.495118132666
2201.2047267192593 1778.1565419894837
2201.8176776054515 1611.2169102730222
2202.430480693649 1571.6152666246721
2203.0431360180955 1900.362982985606
2203.6556436130195 1841.6104903167616
2204.268003512645 1244.6751801559317
2204.8802157511727 1547.94255671135
2205.492280362796 1613.785968697023
2206.1041973816937 1679.8608456482136
2206.715966842032 1721.5865671560714
2207.3275887779655 1712.7987854138778
2207.93906322363 1722.0944864987846
2208.550390213153 1791.6939569454123
2209.1615697806465 1817.4605190809948
2209.7726019602105 1666.717912476719
2210.3834867859277 1341.884171712933
2210.9942242918787 1675.8628836200733
2211.6048145121167 1481.6892243334155
2212.2152574806914 2321.7653044456947
2212.825553231638 1509.8021887786854
2213.435701798975 2362.0968624548386
2214.045703216707 1878.042078062538
2214.655557518832 1176.8794528348678
2215.2652647393297 1318.2826755055166
2215.874824912169 1450.215975308407
2216.4842380713 1582.6101237575863
2217.09350425067 1526.2409013372733
2217.7026234842033 1850.0889636429376
2218.311595805819 1859.5470043713444
2218.9204212494133 1611.9111464029652
2219.52909984888 1932.5312507854928
2220.137631638092 1921.7115258999452
2220.7460166509154 1910.7475712019727
2221.354254921198 1384.9197719731976
2221.9623464827764 1736.3970745723987
2222.5702913694713 1663.307584409402
2223.178089615096 1614.5302553610568
2223.7857412534486 1565.662579532547
2224.39324631831 1351.0332008947253
2225.000604843457 1549.7817876850236
2225.607816862641 1822.4097112489521
2226.214882409611 1608.6820431461704
2226.8218015180973 1845.4451985052024
2227.4285742218217 1623.9387305821472
2228.0352005544864 1674.107661914922
2228.6416805497847 1590.3260611323658
2229.248014241399 1506.4155835224049
2229.8542016629945 1276.7535785350744
2230.460242848223 1537.0379436579392
2231.0661378307304 1487.8642777117398
2231.671886644139 1438.6744202539687
2232.277489322065 1324.8015497141319
2232.8829458981127 1212.2558696665378
2233.48825640587 1453.064168929356
2234.0934208789095 1718.2136156069387
2234.6984393507955 1983.7427299862998
2235.3033118550793 1695.0536741372277
2235.9080384252975 1637.9445105014047
2236.5126190949723 1497.6002686945508
2237.1170538976166 1535.3216576538605
2237.721342866729 1279.2307209546404
2238.32548603579 1432.4702850224085
2238.9294834382763 1684.0684822929245
2239.533335107646 1604.7912663633376
2240.1370410773434 1699.9305295218142
2240.740601380803 1450.226672377578
2241.3440160514474 1567.441485765139
2241.9472851226783 1842.2031583811472
2242.550408627896 1649.478850440243
2243.1533866004793 1563.2403419181585
2243.756219073799 1476.8807442186176
2244.3589060812064 1438.3402180438143
2244.961447656049 1454.3944337934174
2245.5638438316564 1636.0565695223218
2246.166094641343 1642.0427245989442
2246.7682001184166 1363.744848315932
2247.3701602961664 1458.4834306163916
2247.971975207871 1692.8927157996495
2248.5736448867974 1767.3163122033468
2249.175169366197 1565.286007777998
2249.7765486793123 1697.5961412597978
2250.3777828593684 1786.8269394142335
2250.9788719395783 1728.5384701154503
2251.579815953146 1704.3690739974695
2252.1806149332606 1484.6053850105068
2252.781268913097 1439.2272216393974
2253.381777925817 1393.7794280765459
2253.9821420045737 1660.7304605385386
2254.5823611825035 1811.3590199544865
2255.1824354927303 1602.9663377135873
2255.782364968365 1510.4319468956428
2256.38214964251 1417.8165467704637
2256.9817895482483 1403.8684381276898
2257.5812847186553 1347.9125606870095
2258.180635186791 1517.2803323297844
2258.779840985704 1515.5563217188032
2259.37890214843 1449.1526242932382
2259.97781870799 1489.606733258212
2260.5765906973957 1530.1453992364
2261.175218149645 1721.6567640051194
2261.773701097718 1815.3034789927256
2262.3720395745895 1449.5134587307496
2262.970233613216 1440.1097345842986
2263.568283246548 1421.5504813513373
2264.1661885075137 1442.3006347055293
2264.763949429038 1423.6118987939813
2265.3615660440246 2016.3639624195428
2265.959038385374 1361.820443802469
2266.5563664859637 1938.699367484563
2267.153550378669 1458.1417271619719
2267.7505900963424 1909.8639563258723
2268.3474856718312 1494.2075153917178
2268.9442371379664 1489.5697809679127
2269.5408445275643 1504.8427056209707
2270.1373078734377 1459.836387362015
2270.7336272083758 1414.7380653399343
2271.32980256516 1596.925733034071
2271.925833976562 1856.096772691178
2272.5217214753357 1930.0915744543859
2273.117465094223 1445.1179028791216
2273.7130648659586 1365.0523518599107
2274.308520823257 1494.1180216757734
2274.903832998827 1551.0306085874274
2275.4990014253563 1608.040795884899
2276.094026135528 1936.767704943708
2276.6889071620117 1844.308775680783
2277.2836445374614 1751.6007691510172
2277.878238294519 1824.2138441832444
2278.472688465812 1539.9027257538976
2279.066995083962 1255.1101766271263
2279.6611581815705 1456.0921936387922
2280.255177791232 1522.3703680679096
2280.8490539455233 1972.476450592363
2281.442786677013 1896.4308550643157
2282.0363760182554 1888.8453377014346
2282.6298220017943 1557.3965108530736
2283.223124660155 2012.7797499788564
2283.816284025859 1951.0174015166158
2284.4093001314086 1889.1954551943181
2285.002173009292 1445.504466081348
2285.5949026919952 1749.530680481988
2286.1874892119777 1467.6968643583782
2286.7799326016993 1736.2328633717614
2287.3722328936 1507.0246805251832
2287.964390120109 1643.0145642772172
2288.556404313642 1779.1427765744697
2289.1482755066027 2017.0480180064558
2289.7400037313873 1739.5011985576366
2290.3315890203703 1426.7497823230153
2290.9230314059205 1767.5263954682882
2291.5143309203904 1520.7634017897087
2292.1054875961236 1534.7529987975406
2292.6965014654506 2069.96282545078
2293.287372560684 1507.5945048476597
2293.878100914131 1480.6096607111583
2294.468686558086 1453.614863108524
2295.059129524827 1577.695880033344
2295.649429846617 1886.7497456235408
2296.239587555716 1592.2690946422586
2296.8296026843636 1665.6929472783418
2297.419475264791 1580.246072609963
2298.0092053292137 1494.5419890183855
2298.598792909839 2063.790405103469
2299.1882380388597 1567.4018118445615
2299.777540748455 1607.764899049923
2300.3667010707904 1648.0794195318115
2300.9557190380256 1963.4921265644502
2301.544594682302 2019.1395836051665
2302.1333280357503 1895.7409428336773
2302.721919130485 1772.2431424960675
2303.3103679986198 2009.6843044079858
2303.898674672242 1972.4821809085981
2304.486839183437 1484.5554695154449
2305.0748615642697 1532.7004714378986
2305.6627418468015 1656.9280106716756
2306.2504800630704 1453.6192119267391
2306.8380762451143 1811.0648094989308
2307.425530424949 1767.8141445656195
2308.012842634582 1724.4504382503176
2308.6000129060103 1904.913406853923
2309.187041271214 1734.0653198852492
2309.773927762164 1562.854536286499
2310.3606724108213 1883.8798318337235
2310.9472752491274 1878.8278113467754
2311.5337363090184 1873.803061569257
2312.120055622414 1603.1832818913379
2312.706233221221 1626.4589919112116
2313.2922691373424 1816.0827534698208
2313.8781634026564 1466.4209259348102
2314.463916049037 1629.167481512239
2315.049527108342 1808.726516627553
2315.6349966124235 1980.444826777019
2316.2203245931123 1892.0886740079764
2316.8055110822315 1716.8443214773172
2317.3905561115935 1541.1707340393937
2317.9754597129977 1375.8427779677847
2318.560221918229 1427.060625978276
2319.1448427590603 1478.4258574696698
2319.729322267256 1390.5593691582255
2320.313660474563 1412.2218206210005
2320.8978574127195 1621.2001567666937
2321.481913113452 1830.812377454799
2322.0658276084705 1549.7302715494704
2322.6496009294806 1541.9002956924799
2323.233233108165 1681.292176026273
2323.8167241762058 1563.0222012723548
2324.4000741652617 1627.2368849840584
2324.983283106987 1841.0251738033592
2325.5663510330232 2058.539147987969
2326.1492779749933 1609.5197022670018
2326.7320639645204 1740.850554762932
2327.3147090332004 2061.9627366587447
2327.897213212629 1524.1209904372852
2328.4795765343843 1754.8407377242243
2329.0617990300307 1289.4222270467703
2329.643880731124 1894.0182040726781
2330.22582166921 1470.5060195915853
2330.807621875816 1376.763753417705
2331.3892813824623 1282.9889221544977
2331.9708002206517 1341.847448934316
2332.5521784218818 1470.5401734116115
2333.133416017634 1599.558809209875
2333.7145130393765 1444.6762402177499
2334.295469518571 1872.1609906699457
2334.876285486658 2152.2120931459567
2335.456960975076 2053.002521205534
2336.037496015242 1953.6067484814546
2336.6178906385667 1716.2597933109864
2337.198144876451 1651.4443385401141
2337.778258760278 1559.04087323674
2338.3582323214214 1238.0055231456026
2338.938065591243 1615.964007581003
2339.517758601087 1913.830515712764
2340.0973113822965 1778.048783393639
2340.676723966193 1690.2128747124268
2341.255996384094 1845.6189668252432
2341.835128667295 1947.7469533333813
2342.4141208470883 1752.4827340352506
2342.992972954751 1738.6841171399617
2343.5716850215467 1719.6387424789257
2344.1502570787306 969.8881059139294
2344.7286891575386 1441.5347418106203
2345.3069812892045 2065.1921036272947
2345.885133504944 1910.240719987472
2346.4631458359618 1702.678584692971
2347.04101831345 1365.7896951798143
2347.6187509685915 1556.6765416844732
2348.196343832553 1538.4285102102647
2348.7737969364935 1727.8832351121182
2349.351110311558 1573.5167777582212
2349.9282839888765 1317.6257031279606
2350.5053179995757 1225.855467696142
2351.0822123747585 1263.5393187652924
2351.658967145526 2023.0830514894267
2352.2355823429643 1242.8709487924236
2352.812057998144 1947.74525261213
2353.3883941421263 1436.7125719929631
2353.9645908059647 1842.6253596317722
2354.540648020693 1499.5664987726655
2355.116565817336 1430.7125479856088
2355.6923442269126 1539.0242858998997
2356.2679832804224 1647.5646325975601
2356.8434830088518 1659.9401732354859
2357.41884344318 1373.1716240961034
2357.994064614377 1437.4211461760628
