#exp_cfg={"servo_angle": 0.0, "laser_lim": 100.0, "servo_angle_to": 18.0, "laser_wup": 0.0, "bt_dev": "EnSpectr-25AE3", "laser_wdn_max": 0.0, "frames": 10.0, "servo_used": 0, "servo_calib_use": 0, "laser_wdn_min": 0.0, "servo_pix_from": 90.0, "cooler_tout": 300.0, "servo_angle_from": 0.0, "servo_calib": "[-1.9174921013161362e-09, 3.9322238269163779e-05, -0.27385609119055809, 653.59552119713567]", "laser_autoctl": 0, "servo_pix_to": 3682.0, "laser_pw": 100.0, "cooler_on": 0, "laser_volt": 4.0, "cooler_autoctl": 0, "cooler_curr": 70.0, "cooler_startup": 10.0, "laser_fixed_pw": 0, "gain": 1.3, "offset": 2.53059635486, "servo_calib_degree": 3.0, "laser_curr": 55.0, "shutter": 8200.0, "servo_calib_step": 1.0, "laser_fixed_curr": 0, "exp": 2000.0, "ccd_volt": 4.7, "bt_addr": "00:06:66:62:5A:E3", "servo_delay": 500.0, "laser_autooff": 1}
#proc_cfg={"flat_auto_wnd": 200.0, "flat_auto_fr": 200.0, "flat_auto_shift": 5.0, "yconv": 1, "flatten": 1, "flatten_strength": 100.0, "xfrom": 300.0, "auto_max_frame": 2000.0, "auto_signal": 48000.0, "flat_auto_tol": 0.1, "autoclip": 1, "xrel_range": 0.0, "flat_auto_to": 4000.0, "intensity_adj": 1.0, "xrel": 7852.0, "rmhot": 1, "flat_auto_slit": 4.999999999999997, "auto_ini_exp": 300.0, "auto_off": 0, "xto": 2860.0, "flat_auto_ref": "", "flat_auto_rank": 1, "autobackg": 0, "xrel_adj": 0.0, "auto_black_lvl": 1, "base_wnd": 100.0, "sub_baseline": 0, "xconv": 2, "auto_max_exp": 1000.0, "auto_total_exp": 10000.0, "auto_exp": 0, "rmripple": 0, "black_lvl": 8271.225, "shutter_clip_adj": 0.0, "auto_bckg": 0, "flat_auto_thr": 0.9, "subbackg": 1}
316.8218498245369 14610.182113069352
317.89969571804795 14312.946655578931
318.977263876126 14355.617680366904
320.05455438786703 14140.314010799735
321.1315673423287 14195.455120413328
322.2083028285215 14204.294987787236
323.2847609354267 14031.085942360602
324.3609417519747 13955.323695223979
325.43684536705587 13877.95367374131
326.5124718695279 13844.752018611447
327.58782134820103 13827.838592524586
328.66289389184385 13818.626987370506
329.7376895891921 13558.00434145761
330.8122085289342 13616.674111582286
331.88645079971866 13598.611694632611
332.9604164901575 13500.503760300093
334.03410568881554 13489.03036860674
335.1075184842266 13578.794217074921
336.18065496487543 13346.02973688783
337.2535152192122 13452.98720956792
338.32609933564163 13426.592532419842
339.39840740253203 13299.040136427375
340.4704395082099 13308.35342757402
341.5421957409617 13154.761551651678
342.6136761890357 13277.923482674403
343.6848809406365 13134.22552135431
344.75581008392874 12975.302868082028
345.82646370703696 13035.879221623854
346.8968418980512 12968.521355337478
347.96694474501055 13067.348994517128
349.0367723359268 12974.700202425163
350.106324758759 12950.410018961566
351.1756021014353 12863.609211413926
352.2446044518383 12804.027705147982
353.31333189781435 12938.946395822193
354.38178452716966 12826.196463209377
355.449962427665 12815.403807053335
356.51786568702846 12781.881890721026
357.58549439294256 12846.08323745634
358.6528486330535 12801.436365396747
359.71992849496564 12768.12860097332
360.7867340662433 12717.94267394684
361.8532654344144 12800.313792250576
362.9195226869597 12851.055996979932
363.9855059113288 12679.763338156616
365.05121519492604 12609.259550954315
366.11665062511565 12740.0723853692
367.1818122892273 12686.503282003354
368.2467002745434 12766.54311021671
369.31131466831175 12678.03773640999
370.375655557742 12666.24125383839
371.4397230299983 12679.880878181768
372.5035171722102 12626.862854219848
373.5670380714637 12604.581304150128
374.6302858148101 12751.700618290777
375.6932604892554 12623.017826795021
376.7559621817709 12696.483091755665
377.81839097928605 12526.097823600201
378.8805469686886 12603.54785134443
379.94243023683157 12688.792463467558
381.0040408705263 12573.50419542702
382.0653789565458 12431.470647698414
383.1264445816196 12407.083926789415
384.1872378324406 12544.940598320212
385.2477587956637 12461.611028142914
386.3080075579037 12348.480295554484
387.3679842057336 12352.89236149115
388.4276888256918 12353.08743941036
389.48712150426945 12325.311545171264
390.54628232792857 12269.780075008359
391.6051713830857 12189.553169832197
392.66378875611736 12353.93719350644
393.7221345333637 12188.8219175515
394.7802088011249 12174.703311017807
395.838011645661 12125.024416937067
396.89554315319765 12131.320963971524
397.9528034099112 12017.518937475117
399.00979250194723 11931.561841809329
400.06651051541485 11989.09900185985
401.1229575363741 12013.107694617216
402.17913365085224 11905.24688629269
403.23503894483656 11976.858787094186
404.2906735042761 11891.619611112257
405.3460374150818 11772.22970728278
406.401130763119 11819.247913731611
407.455953634224 11860.801201405298
408.5105061141876 11768.950933724038
409.56478828876243 11663.807665079315
410.6188002436629 11605.29567351312
411.6725420645689 11620.805762840453
412.72601383711117 11648.40767231869
413.77921564689314 11737.695813647744
414.8321475794728 11589.983213165448
415.88480972036814 11442.30024159819
416.93720215506437 11576.202410562933
417.9893249690049 11506.886778239452
419.04117824759123 11403.207153270017
420.09276207619223 11431.915555416535
421.144076540133 11421.728563383345
422.1951217247042 11365.547039314759
423.24589771515275 11429.87990720076
424.2964045966928 11339.407561333044
425.34664245449494 11392.210967230263
426.3966113736933 11358.888312213036
427.4463114393875 11299.6344029734
428.49574273662984 11268.432690348101
429.5449053504417 11239.291868535089
430.5937993658026 11341.585266819837
431.6424248676558 11227.974702014839
432.6907819409007 11139.735724836035
433.73887067040596 11217.135732928697
434.7866911409965 11189.997409498252
435.8342434374608 11216.619480894467
436.88152764455117 11077.366652438788
437.9285438469724 11142.149970848643
438.9752921294057 11043.89204313598
440.02177257648145 11024.919289800315
441.06798527279716 11008.21874076941
442.1139303029122 11145.37985866427
443.1596077513459 11203.698598926225
444.2050177025794 11052.661511256521
445.25016024105753 11045.396964436182
446.2950354511886 11004.463353054602
447.33964341733736 11010.284839063494
448.383984223834 10988.12127553445
449.4280579549686 10900.197096825355
450.471864694995 10961.653265776502
451.5154045281306 10973.024737995172
452.5586775385509 10956.18531039175
453.60168381039693 10831.079270486556
454.64442342776783 11045.984519853893
455.6868964747264 10945.24736202184
456.7291030353008 10848.259195004144
457.77104319347563 10961.416960151337
458.8127170332027 10886.430899042269
459.854124638392 10875.099741131542
460.895266092919 10924.02037025786
461.93614148061897 10927.911618115937
462.97675088529104 10975.77402676749
464.01709439069236 10876.847845787663
465.0571720805492 10924.63905121089
466.0969840385442 10951.156233871423
467.1365303483253 11011.751744802645
468.17581109350067 10888.511271126961
469.2148263576437 10775.371145863426
470.2535762242878 10867.452590502697
471.29206077693016 10923.486519333304
472.33028009902773 10983.58281086467
473.3682342740012 10960.549942502903
474.40592338523857 10903.422433781398
475.4433475160804 10995.12948125868
476.4805067498364 10955.37771282943
477.51740116978 11019.704104216024
478.5540308591426 11082.59569095365
479.59039590112116 11224.232594838975
480.6264963788726 11213.755630994765
481.6623323755193 11322.50419855662
482.6979039741436 11285.90986642235
483.7332112577915 11509.987446652842
484.76825430947247 11704.640745449704
485.80303321215797 11640.509807249691
486.837548048783 11808.044467658812
487.8717989022425 12001.375899006414
488.90578585539697 12002.540124440895
489.9395089910686 12131.298889601267
490.97296839203955 12104.946814396471
492.00616414106116 11958.756452422025
493.0390963208429 12023.04826445581
494.0717650140559 12025.773445412628
495.10417030333883 11850.446342509402
496.1363122712901 11856.313501524952
497.16819100046814 11668.998852177714
498.1998065734024 11522.660327281113
499.2311590725767 11515.991577325036
500.26224858044407 11312.84346246603
501.2930751794156 11238.25197586217
502.3236389518679 11227.619132075806
503.35393998014115 11024.224203012445
504.38397834653733 10968.658608320553
505.4137541333221 10833.985573622964
506.4432674227228 10792.698993995413
507.4725182969323 10728.585441381674
508.5015068381035 10692.697903793156
509.53023312835467 10701.764048107174
510.55869724976765 10603.246417964112
511.58689928438434 10564.10468270993
512.6148393142121 10481.961948841277
513.6425174212218 10645.28966094249
514.6699336873462 10553.492721835293
515.6970881944835 10565.146511337056
516.7239810244901 10541.29536928255
517.7506122591931 10543.36808967253
518.7769819803761 10520.079912937927
519.8030902697901 10603.655160394545
520.8289372091476 10538.195020336867
521.8545228801249 10653.821139673648
522.8798473643619 10524.76208557548
523.9049107434621 10586.077373956081
524.9297130989908 10631.984355069855
525.9542545124805 10561.713925907285
526.9785350654201 10579.494539298901
528.0025548392696 10494.864939934823
529.0263139154504 10430.921238680286
530.0498123753423 10540.637424974146
531.073050300296 10531.29202167982
532.0960277716204 10410.12701593514
533.1187448705896 10427.596829696915
534.1412016784416 10394.230379509621
535.1633982763833 10422.897467976733
536.1853347455726 10323.849156362103
537.2070111671401 10345.822851895517
538.2284276221817 10289.244944972914
539.2495841917516 10212.251952191331
540.2704809568677 10111.124553014115
541.2911179985167 10208.778912221092
542.3114953976419 10104.02665822396
543.3316132351592 10058.76560940158
544.3514715919409 9983.963048859503
545.3710705488247 9960.451894562926
546.3904101866156 9990.107784034615
547.4094905860784 9914.119555234158
548.4283118279418 9898.620982119824
549.4468739929034 9962.507287153729
550.4651771616191 9925.744778650947
551.4832214147063 9799.239322468879
552.501006832761 9886.50568416999
553.5185334963226 9773.337929253954
554.5358014859103 9870.675293273125
555.5528108820035 9823.565974469242
556.5695617650363 9786.819862540633
557.5860542154242 9808.307871218765
558.6022883135283 9812.432634346766
559.6182641396881 9723.644420677254
560.6339817741991 9807.664421511095
561.6494412973225 9828.5296288751
562.6646427892883 9837.748676109059
563.6795863302796 9696.834348381979
564.694272000459 9769.804893537887
565.7086998799423 9905.392742491722
566.7228700488104 9810.166629294907
567.7367825871115 9787.085242049348
568.7504375748576 9782.346010949856
569.7638350920224 9735.118164377838
570.7769752185486 9764.780570077903
571.7898580343353 9849.640867248094
572.802483619258 9747.176656402824
573.8148520531431 9904.120254868103
574.8269634157932 9847.698577115329
575.8388177869692 9804.431911574784
576.8504152463938 9867.160179849032
577.8617558737587 9993.80128328197
578.8728397487175 9900.770960603237
579.883666950891 10026.189570534225
580.8942375598654 10083.939121328765
581.9045516551851 10086.484143505359
582.9146093163617 10382.886921169542
583.924410622878 10248.529939804717
584.9339556541727 10230.69047779953
585.9432444896538 10499.685669199522
586.9522772086875 10251.702448409467
587.9610538906127 10436.243953436675
588.9695746147318 10293.0632617249
589.9778394603054 10421.732722456096
590.985848506567 10280.140320044204
591.9936018327098 10282.919972782933
593.0010995178891 10111.845606257046
594.0083416412344 10206.977656268675
595.0153282818283 9991.062378439485
596.0220595187293 9968.487236259947
597.0285354309508 9955.084298685888
598.0347560974806 9878.639142810576
599.0407215972609 9856.217798875874
600.0464320092051 9838.940188059563
601.0518874121954 9874.077999954141
602.0570878850685 9755.084541385246
603.062033506636 9794.214817625567
604.0667243556636 9761.011778838594
605.0711605108936 9689.985897106799
606.0753420510264 9898.85104358399
607.0792690547278 9790.707280737584
608.082941600629 9719.918253635615
609.0863597673306 9731.819327567553
610.0895236333909 9776.58690271745
611.0924332773357 9826.153159087251
612.0950887776617 9755.511272037613
613.0974902128219 9897.177163062745
614.0996376612384 9960.271918396402
615.1015312013005 10051.161943587495
616.1031709113595 10100.398608338295
617.1045568697336 9953.399464897399
618.1056891547069 10104.116209408514
619.1065678445229 10136.532098820298
620.1071930173985 10427.758469846804
621.1075647515099 10386.94282241444
622.1076831250048 10465.83977742808
623.1075482159849 10650.133101910485
624.1071601025305 10652.601836529067
625.1065188626781 10804.963535105386
626.105624574433 11021.077428033039
627.1044773157682 11168.167028294454
628.1030771646128 11083.59482046788
629.1014241988742 11354.526243608036
630.0995184964158 11435.496020614783
631.0973601350688 11541.886265363246
632.0949491926294 11772.695460729386
633.0922857468631 11444.481789590067
634.089369875499 11588.231747805297
635.0862016562278 11660.569517915374
636.0827811667077 11471.028452868413
637.0791084845641 11557.244674709009
638.0751836873878 11381.742872317189
639.0710068527369 11425.131287386632
640.0665780581294 11147.220438609216
641.0618973810506 11112.332978482935
642.0569648989604 11083.093839214667
643.0517806892676 10784.443809840113
644.0463448293649 10807.814126424364
645.040657396592 10672.831144153492
646.0347184682723 10476.817432779359
647.0285281216875 10220.770340361789
648.0220864340772 10208.313849450262
649.0153934826558 10076.296163807581
650.0084493446047 9992.562967624257
651.0012540970674 9968.029455784
651.9938078171526 9848.274205397025
652.9861105819346 9699.859809092803
653.9781624684565 9820.948367346267
654.9699635537254 9612.78033782788
655.9615139147136 9591.840384826033
656.9528136283589 9500.577142815284
657.9438627715699 9639.350043010321
658.9346614212154 9543.342893842037
659.925209654135 9382.07862289235
660.9155075471263 9488.480627639066
661.9055551769616 9344.521092772102
662.895352620375 9552.46748827691
663.8848999540678 9327.912856855448
664.8741972547068 9220.357052976804
665.863244598926 9236.124581275131
666.8520420633213 9313.752343290818
667.8405897244611 9193.158950537556
668.8288876588758 9068.604362974733
669.8169359430613 9257.472257294383
670.8047346534822 9259.46586813931
671.7922838665672 9107.00876716724
672.7795836587156 9287.753258992252
673.766634106285 9349.78632324292
674.7534352856092 9054.833938864169
675.7399872729766 9164.880167553247
676.7262901446538 9114.169894834808
677.712343976862 9162.216207945276
678.6981488457986 9209.240755780476
679.6837048276229 9059.333994796854
680.6690119984596 9142.221591674159
681.6540704344043 9140.103924395491
682.6388802115107 9059.428652130566
683.6234414058108 9070.379390276406
684.6077540932874 9037.478620281032
685.591818349907 9090.149080791416
686.575634251587 9009.402684406883
687.5592018742263 8986.384378363386
688.5425212936734 8864.136709530048
689.5255925857564 9015.729872113312
690.5084158262707 8906.325010742104
691.4909910909646 8820.831729589903
692.4733184555644 8770.916604669597
693.4553979957618 8873.70637708872
694.4372297872123 8875.757016525338
695.4188139055404 8757.790317622981
696.4001504263324 8687.270036918491
697.3812394251509 8798.779706435802
698.3620809775111 8759.67195658501
699.3426751589104 8683.604135185531
700.3230220448004 8642.047669464442
701.3031217106054 8662.589935246973
702.2829742317172 8876.39198616088
703.2625796834873 8439.884872757717
704.2419381412474 8475.114872272505
705.22104968028 8552.796349816388
706.1999143758458 8502.484199440321
707.178532303169 8522.080157951148
708.1569035374378 8571.546593687739
709.1350281538107 8585.688686102683
710.1129062274158 8507.789606115368
711.0905378333373 8667.470147089674
712.0679230466376 8583.288244622932
713.0450619423427 8646.767153663432
714.0219545954424 8714.825568989596
714.9986010808989 8573.864249260654
715.9750014736292 8549.290054590008
716.9511558485392 8687.578635641386
717.9270642804786 8797.378321592298
718.9027268442787 8759.189660513508
719.8781436147328 8673.137469859204
720.8533146666014 8682.549657886071
721.828240074612 8667.033574082025
722.8029199134635 8707.449656392428
723.7773542578125 8647.114386393305
724.751543182294 8630.296761231339
725.7254867615029 8691.71451711723
726.6991850700015 8435.001473245324
727.6726381823228 8560.01270764789
728.6458461729599 8525.285909901017
729.6188091163858 8576.678617068446
730.5915270870246 8584.506964569502
731.5640001592856 8422.715292140554
732.536228407529 8505.24333660926
733.5082119060917 8436.936875155767
734.4799507292755 8397.841708349664
735.4514449513481 8430.564031009508
736.4226946465496 8484.789798967246
737.3936998890786 8600.084238570393
738.3644607531078 8446.966407513037
739.3349773127793 8460.983065812328
740.3052496421951 8429.657630507818
741.27527781543 8412.159294880797
742.2450619065221 8287.439827198654
743.2146019894826 8425.070896362804
744.183898138288 8457.533446753847
745.1529504268801 8401.10653289515
746.1217589291682 8212.397901272476
747.0903237190341 8287.052327349571
748.058644870318 8374.061179205819
749.0267224568397 8324.474586226865
749.994556552374 8152.574003860709
750.9621472306771 8233.962970965667
751.9294945654583 8276.82533315434
752.8965986304011 8296.306182750872
753.8634594991636 8171.220476602063
754.8300772453586 8333.940707659627
755.7964519425768 8351.037136450597
756.762583664371 8359.84931328455
757.7284724842611 8381.1084045225
758.6941184757416 8279.980322993553
759.6595217122667 8269.602588991871
760.6246822672638 8291.311778244844
761.5896002141235 8161.639135411106
762.5542756262093 8296.022259937876
763.5187085768503 8258.283536865061
764.4828991393406 8253.217204069295
765.4468473869474 8227.921655629836
766.4105533929032 8311.854103078866
767.3740172304078 8175.173932109936
768.3372389726283 8253.522533564104
769.3002186926988 8141.771946417434
770.2629564637282 8107.778084251871
771.2254523587872 8119.131006829337
772.1877064509154 8062.331774051199
773.1497188131179 7963.471908730319
774.1114895183728 7953.818390454071
775.0730186396268 7924.386622552743
776.0343062497905 7926.283453136348
776.9953524217381 7841.060118521035
777.9561572283274 7914.813947869587
778.9167207423689 7889.048910444972
779.8770430366476 7773.088436690043
780.8371241839159 7869.860962625283
781.7969642568951 7816.675634809713
782.7565633282757 8040.17229366471
783.7159214707099 7893.138840000921
784.6750387568281 7891.788394318333
785.6339152592227 7817.778130064627
786.5925510504512 7815.713528459566
787.5509462030477 7782.091691174127
788.5091007895098 7873.126621577135
789.4670148823006 7813.369105880085
790.4246885538596 7821.754138502585
791.3821218765861 7775.179967109584
792.3393149228505 7643.851088492998
793.2962677649975 7832.16147921698
794.2529804753303 7826.831829416333
795.20945312613 7898.53316000385
796.1656857896378 7830.2066663604055
797.1216785380675 7693.276174078919
798.0774314435985 7865.209757005783
799.0329445783846 8003.381431242249
799.9882180145414 7945.573821970244
800.9432518241574 7872.031815401717
801.89804607929 7991.647032321533
802.852600851962 7995.366262668669
803.8069162141637 7951.1401979082675
804.760992237856 8101.226333673178
805.714828994971 8158.165346217967
806.6684265574077 8134.106793714181
807.6217849970271 8084.8325923570055
808.574904385674 7979.752541015489
809.527784795142 8134.6474238233695
810.4804262972102 8297.846630862428
811.4328289636178 7993.501783256829
812.3849928660748 7847.609306746012
813.3369180762638 7849.032288665576
814.2886046658241 8001.625016749979
815.2400527063783 7796.583165057683
816.1912622695108 7749.455457882485
817.1422334267718 7880.368795925979
818.0929662496856 7706.684073848819
819.0434608097457 7543.4894801195815
819.9937171784059 7659.239033842055
820.9437354271013 7547.694345571914
821.8935156272255 7730.6251631999185
822.8430578501484 7512.079401185381
823.7923621672016 7434.215239459352
824.7414286496896 7473.122435866973
825.6902573688876 7511.737635234454
826.6388483960363 7469.38278866858
827.5872018023492 7362.340390920993
828.5353176590033 7488.30612802667
829.4831960371503 7299.308311391115
830.4308370079016 7382.0413871337605
831.3782406423525 7377.015472860332
832.3254070115545 7451.363042808785
833.2723361865319 7272.056360216957
834.2190282382799 7204.099473687995
835.1654832377644 7348.709864283536
836.1117012559116 7202.896520548177
837.0576823636256 7397.71106962321
838.003426631778 7166.732511239854
838.9489341312074 7177.937840573762
839.8942049327197 7351.502703494632
840.8392391070975 7316.9005070793955
841.7840367250865 7303.40073620357
842.7285978573982 7186.512592805974
843.672922574724 7345.153805983187
844.6170109477152 7184.4116844033615
845.560863046996 7199.901825082178
846.5044789431595 7207.438890547668
847.4478587067697 7197.096066982264
848.3910024083561 7282.616860154757
849.333910118421 7266.800736426849
850.2765819074339 7153.933812011314
851.2190178458332 7326.071470860564
852.161218004032 7332.485772419646
853.1031824524016 7270.255213479772
854.0449112612987 7181.04118503503
854.9864045010327 7306.3404270820265
855.9276622418947 7168.010996235555
856.8686845541379 7197.038225785681
857.8094715079915 7195.897561852389
858.7500231736467 7367.549332843509
859.690339621271 7250.097161810288
860.6304209209939 7291.045663247993
861.5702671429244 7186.975523998238
862.5098783571284 7222.003379488022
863.4492546336569 7276.287452810308
864.3883960425155 7173.50131048088
865.3273026536863 7193.094185489839
866.2659745371238 7130.278075979346
867.2044117627465 7325.713367893119
868.1426144004472 7204.4415673132335
869.0805825200823 7281.88565373946
870.0183161914847 7251.976946326943
870.9558154844526 7390.171725946973
871.8930804687552 7342.935493118972
872.8301112141307 7224.813937059448
873.7669077902865 7333.353920064676
874.7034702669062 7522.699436592271
875.6397987136315 7364.957913372162
876.5758932000863 7432.573514223141
877.5117537958522 7478.572271898569
878.4473805704911 7402.128554255914
879.3827735935283 7408.956038196277
880.3179329344603 7455.860046629501
881.2528586627541 7559.688776867275
882.1875508478479 7603.288043749863
883.1220095591489 7488.1844416407575
884.0562348660296 7374.947684620196
884.9902268378391 7476.008154700253
885.9239855438955 7463.231388524534
886.8575110534839 7303.081593190591
887.7908034358588 7390.17570441677
888.7238627602474 7346.616595806156
889.6566890958475 7367.761508725562
890.5892825118208 7187.473490037645
891.5216430773125 7249.496607096847
892.4537708614189 7308.490184567284
893.3856659332196 7169.306506053814
894.3173283617652 7111.145529530872
895.2487582160684 7273.428190445533
896.179955565116 7178.872930231514
897.110920477864 7031.873995381134
898.0416530232451 7129.766896118168
898.9721532701478 6971.149335732803
899.9024212874428 7057.304884717744
900.8324571439662 6933.091696331923
901.7622609085302 6886.683870208486
902.6918326499072 6857.814603365596
903.6211724368477 6955.379301871103
904.5502803380696 6976.838611604105
905.4791564222614 7082.70192373431
906.4078007580792 6895.341301090001
907.3362134141571 6896.227488151659
908.2643944590909 7027.780644346198
909.1923439614493 6900.138902592835
910.1200619897754 6914.359465237887
911.0475486125779 7091.378117570161
911.9748038983344 6865.543307901122
912.9018279155007 6874.075278967667
913.8286207324982 6781.213509525494
914.7551824177117 6942.338080499717
915.6815130395116 6825.6255080968085
916.6076126662283 6778.579202098124
917.533481366163 6831.230151357481
918.4591192075914 6853.378135389426
919.3845262587565 6881.074303375234
920.3097025878706 6767.791184923664
921.2346482631237 6733.551232826586
922.1593633526682 6804.2989755148665
923.0838479246304 6844.07096897592
924.0081020471061 6977.283382864826
924.9321257881656 6698.761087079127
925.8559192158464 6799.841401629354
926.7794823981512 6761.611758001188
927.7028154030686 6728.186683241513
928.6259182985414 6646.711381764847
929.5487911524906 6931.786663121416
930.4714340328119 6894.058385312295
931.3938470073608 6654.879608182071
932.3160301439748 6734.959248615045
933.2379835104548 6753.820092104759
934.1597071745709 6851.5300554014
935.0812012040769 6752.5093121010195
936.002465666681 6826.839393062833
936.9235006300696 6789.191650988886
937.8443061619055 6768.268143690575
938.7648823298077 6681.907421083711
939.6852292013809 6623.239050823798
940.6053468441951 6799.712916217711
941.5252353257874 6543.453093713511
942.4448947136698 6700.503497172795
943.364325075323 6648.1563966975245
944.2835264782043 6670.688744022457
945.2024989897309 6656.301161560905
946.1212426773054 6694.269142017658
947.0397576082851 6696.571374803582
947.9580438500125 6846.812615472902
948.8761014697939 6779.2334241030885
949.7939305349064 6838.546327402646
950.7115311125999 6611.201497028395
951.6289032700952 6602.814211041846
952.5460470745875 6796.9849072196475
953.4629625932339 6609.0041441633175
954.3796498931715 6780.589218122045
955.2961090415029 6749.912209175462
956.2123401053068 6661.918396514104
957.1283431516276 6655.6659494038
958.0441182474842 6660.632870085081
958.9596654598663 6825.737259169504
959.8749848557309 6719.490080577435
960.7900765020167 6642.28727043236
961.7049404656209 6587.040000115501
962.6195768134185 6706.955765766509
963.5339856122537 6685.3490218708785
964.4481669289453 6745.239165557703
965.3621208302793 6652.497547948129
966.2758473830145 6555.377622388478
967.1893466538822 6792.268923578209
968.1026187095813 6614.126648209562
969.0156636167867 6633.903747186756
969.9284814421426 6690.096049362837
970.8410722522622 6664.713943667235
971.753436113735 6673.03670600794
972.6655730931161 6538.03311175474
973.5774832569368 6718.742252131463
974.4891666716958 6563.750409410854
975.4006234038698 6497.395362484664
976.3118535198955 6520.204380416677
977.2228570861935 6669.11753948327
978.1336341691494 6666.256195106267
979.0441848351202 6520.409481231745
979.9545091504333 6672.888810214337
980.864607181391 6665.211668211789
981.7744789942699 6536.341974066305
982.6841246553086 6618.627935136598
983.5935442307236 6659.547509169827
984.5027377867027 6645.624711451269
985.4117053894024 6659.545563825441
986.3204471049557 6601.582140852674
987.2289629994648 6689.701516146636
988.1372531390007 6791.142801488098
989.0453175896091 6634.815242484494
989.9531564173067 6716.525116633957
990.860769688079 6556.345196414676
991.7681574678918 6645.6065606867105
992.6753198226706 6732.356732009364
993.582256818323 6658.876954403944
994.4889685207218 6691.260736875224
995.3954549957143 6845.432238899349
996.301716309119 6785.813885670706
997.2077525267232 6767.7452324516225
998.1135637142943 6633.602746277519
999.0191499375615 6773.82458493531
999.924511262232 6860.677050107639
1000.8296477539861 6792.431769303586
1001.7345594784656 6785.773882075938
1002.6392465012996 6605.366283452601
1003.5437088880753 6805.962118234505
1004.4479467043584 6767.192361621313
1005.3519600156869 6586.105123559833
1006.2557488875718 6774.3267683841605
1007.1593133854858 6714.450844172707
1008.0626535748888 6671.632154489435
1008.9657695212009 6487.994471212309
1009.8686612898182 6756.786723670683
1010.7713289461135 6778.255549882728
1011.6737725554212 6692.185528428279
1012.5759921830577 6653.220485787606
1013.4779878943027 6661.170463845259
1014.379759754418 6701.984679647653
1015.2813078286254 6625.858987104187
1016.18263218213 6505.713590790859
1017.0837328801026 6631.485039592757
1017.9846099876886 6721.028862681409
1018.8852635700023 6484.389725814505
1019.7856936921362 6395.151932599553
1020.6859004191447 6690.862248693878
1021.5858838160675 6468.651138768186
1022.4856439479063 6486.272572326596
1023.3851808796389 6340.511744225044
1024.2844946762143 6688.085438708682
1025.183585402554 6499.617072848944
1026.082453123554 6297.102203072123
1026.9810979040776 6489.848139498149
1027.8795198089647 6419.672805070075
1028.777718903024 6491.855966709461
1029.6756952510368 6372.537572985507
1030.5734489177648 6343.202735064339
1031.4709799679313 6378.777023703913
1032.3682884662358 6604.504864313601
1033.2653744773506 6324.1745681441225
1034.1622380659192 6309.557839185586
1035.058879296559 6478.313817586935
1035.9552982338591 6534.452022721604
1036.8514949423825 6447.435816404459
1037.7474694866614 6442.911026163658
1038.6432219312028 6403.283062575708
1039.5387523404825 6670.087863114941
1040.4340607789582 6540.078737591463
1041.3291473110476 6503.646085218437
1042.2240120011465 6775.888112433548
1043.1186549136273 6680.377395776357
1044.0130761128294 6648.860207782888
1044.9072756630649 6748.2558509226365
1045.8012536286205 6791.66215653457
1046.6950100737577 6880.097804367853
1047.588545062701 7054.608205592396
1048.481858659663 7023.2041593405975
1049.3749509288118 7115.290841675065
1050.2678219343034 6926.22933848926
1051.1604717402515 7124.387621002449
1052.0529004107575 6873.057700232484
1052.9451080098825 7149.9200676088685
1053.8370946016694 7016.945232202143
1054.7288602501267 7152.277669464286
1055.6204050192446 7033.360913584134
1056.511728972977 7104.9666242090825
1057.402832175254 6933.653122862337
1058.2937146899785 6866.617940508049
1059.1843765810263 6772.140804201878
1060.0748179122456 6877.964393857741
1060.9650387474576 6818.787227576891
1061.855039150456 6781.451623540303
1062.7448191850071 6772.975502138327
1063.6343789148505 6720.697006928404
1064.5237184037014 6848.140746093534
1065.412837715241 6663.401160290392
1066.3017369131267 6605.922925726189
1067.190416060992 6593.317843200168
1068.0788752224398 6489.632700074431
1068.9671144610438 6457.705106173091
1069.8551338403558 6615.230071642337
1070.7429334239023 6637.564693533772
1071.6305132751695 6401.44036155956
1072.517873457633 6563.1930426642775
1073.4050140347335 6433.554447309942
1074.2919350698776 6549.157001658941
1075.1786366264623 6442.956014127203
1076.0651187678395 6399.831293882249
1076.95138155735 6269.732307505834
1077.8374250582929 6321.321520066902
1078.7232493339507 6408.1570404913955
1079.608854447577 6305.618840624121
1080.4942404623907 6266.69849818766
1081.3794074415982 6318.858539665007
1082.2643554483657 6303.409798620547
1083.149084545841 6246.742834622813
1084.033594797138 6178.005231889872
1084.9178862653516 6199.188423929192
1085.8019590135427 6365.6087120675675
1086.6858131047484 6022.574802437541
1087.5694486019802 6181.91029587411
1088.4528655682225 6156.975168085536
1089.3360640664287 6326.598576210417
1090.2190441595321 6157.310639106983
1091.1018059104317 6169.70998187172
1091.98434938201 6223.379538222786
1092.866674637111 6262.173598705666
1093.748781738559 6148.640114860688
1094.6306707491512 5955.902633190274
1095.5123417316554 6159.99396057685
1096.3937947488157 6057.593116041488
1097.2750298633455 6033.291508819797
1098.156047137938 5978.5399467302905
1099.0368466352556 6080.107158870664
1099.9174284179317 6245.279496581048
1100.7977925485757 6003.158556064166
1101.6779390897755 6104.658618421684
1102.5578681040806 6137.218303174962
1103.4375796540226 6047.946317237555
1104.3170738021054 6015.384215392534
1105.1963506108077 5852.942134298684
1106.0754101425773 5898.2259531266
1106.9542524598382 6050.352158349066
1107.8328776249855 5919.259545009951
1108.7112857003904 5917.3439780613235
1109.5894767483987 5936.304481775179
1110.4674508313292 6147.786183106009
1111.3452080114657 6002.262305011512
1112.2227483510815 6165.812391822742
1113.1000719124077 6123.922997020706
1113.9771787576592 6098.263814687303
1114.854068949022 6115.965287333548
1115.7307425486542 6294.485518091223
1116.6071996186893 6200.049700586872
1117.483440221229 6509.883615093825
1118.3594644183577 6147.811195029177
1119.235272272128 6354.661323554815
1120.1108638445658 6309.545145442018
1120.9862391976712 6501.276210783206
1121.8613983934229 6390.930779975976
1122.7363414937627 6442.9937094411025
1123.6110685606182 6407.892515402576
1124.485579655884 6676.253906897468
1125.359874841426 6518.598548266856
1126.2339541790916 6575.543168391821
1127.1078177306936 6833.8409554257105
1127.9814655580267 6624.933709753192
1128.854897722851 6625.062468971458
1129.7281142869106 6553.518605648349
1130.6011153119125 6697.987957560987
1131.473900859548 6893.743845870027
1132.3464709914697 6582.837424616849
1133.2188257693178 6668.372852555847
1134.0909652546961 6616.027919375551
1134.96288950919 6496.903670879864
1135.8345985943506 6625.671581496468
1136.7060925717087 6413.867208894042
1137.57737150277 6472.923912750784
1138.4484354490069 6544.651809362343
1139.3192844718778 6362.239920870573
1140.1899186327992 6241.501911263079
1141.060337993178 6479.310158968052
1141.930542614382 6283.356033876253
1142.8005325577597 6229.332525511591
1143.670307884635 6008.44433253654
1144.5398686563003 6188.830530319956
1145.409214934025 6163.7227724340955
1146.2783467790541 5897.014385801251
1147.1472642526023 6049.264894928987
1148.0159674158622 6135.288648436158
1148.8844563300026 5974.911643224247
1149.7527310561618 5848.956940418757
1150.6207916554504 5865.840705902321
1151.4886381889592 5839.588496814578
1152.3562707177498 5929.864634214957
1153.2236893028585 5856.63789685402
1154.090894005296 5704.500434750198
1154.9578848860474 5826.224168965483
1155.8246620060709 5853.195209384649
1156.6912254262988 5594.092483387323
1157.5575752076438 5713.180629748863
1158.42371141098 5906.103149425729
1159.2896340971656 5849.502145066844
1160.1553433270346 5743.2543253339545
1161.0208391613887 5811.928811786114
1161.8861216610057 5690.3744013100095
1162.75119088664 5783.741105386462
1163.6160468990201 5737.466276811857
1164.4806897588442 5727.339685459643
1165.3451195267917 5749.957100257573
1166.2093362635114 5756.467502891256
1167.0733400296285 5773.3003898698025
1167.9371308857444 5649.227825128238
1168.8007088924278 5654.078999707908
1169.6640741102328 5731.357049762232
1170.5272265996773 5697.4001841276
1171.390166421259 5585.589029816676
1172.252893635452 5682.17551845377
1173.1154083026995 5861.389750906677
1173.977710483421 5715.0356340282315
1174.8398002380145 5611.133832557067
1175.7016776268483 5743.642502775699
1176.563342710264 5657.588337471561
1177.4247955485826 5702.479350367064
1178.2860362020947 5753.125370046701
1179.147064731069 5543.943139020583
1180.0078811957483 5671.996151357807
1180.8684856563486 5644.634542674129
1181.7288781730604 5683.219986313785
1182.589058806052 5671.592302285354
1183.4490276154593 5863.716121911513
1184.3087846614017 5618.544353488653
1185.1683300039676 5764.269088485674
1186.027663703222 5930.835257399758
1186.8867858192025 5763.892415705901
1187.7456964119228 5824.849207342618
1188.6043955413716 5861.487553342612
1189.4628832675116 5950.46669410578
1190.3211596502842 6029.519198616227
1191.179224749596 5967.230362098766
1192.0370786253388 5788.527042619183
1192.8947213373758 6104.588366912971
1193.7521529455407 6235.724611154857
1194.6093735096438 5882.191810789982
1195.466383089477 5981.649700322397
1196.3231817447977 5829.185682034389
1197.1797695353398 6167.185634689586
1198.0361465208189 5866.537608811388
1198.8923127609214 5923.5516778596
1199.7482683153048 5995.135775860251
1200.6040132436028 6245.480927732484
1201.459547605431 5940.2923806720855
1202.3148714603722 5983.293979979461
1203.1699848679855 5974.616648013773
1204.0248878878065 6026.510538454854
1204.8795805793507 5693.420729391264
1205.7340630020935 5874.048126663287
1206.5883352155033 6056.869151746599
1207.4423972790064 5916.519124716848
1208.2962492520237 5790.254909705607
1209.1498911939307 5847.342089891188
1210.0033231640937 5874.650654060508
1210.8565452218427 5858.599480760292
1211.7095574264913 5524.7134654377705
1212.5623598373222 5677.087421271784
1213.4149525135963 5545.533716527801
1214.2673355145507 5747.299009421515
1215.1195088993936 5614.853033819791
1215.9714727273113 5544.395400609383
1216.8232270574663 5775.921633257878
1217.6747719489904 5398.277948660661
1218.5261074609934 5524.162604447499
1219.3772336525653 5625.843516967506
1220.2281505827668 5650.552624707915
1221.0788583106296 5669.766654826265
1221.9293568951707 5433.943663382839
1222.7796463953746 5440.090055176316
1223.629726870202 5545.481776178192
1224.4795983785934 5623.254298174268
1225.3292609794553 5500.9920311603155
1226.1787147316809 5336.341843866858
1227.0279596941327 5406.977754103039
1227.8769959256424 5374.851645726921
1228.7258234850306 5581.87334530388
1229.5744424310833 5352.553184627076
1230.422852822563 5559.981676072757
1231.2710547182105 5693.660377302245
1232.119048176739 5501.052611541318
1232.9668332568417 5325.637823423858
1233.8144100171812 5529.506652346542
1234.6617785163999 5567.9028305589145
1235.508938813111 5234.238045566915
1236.3558909659114 5418.278807315759
1237.2026350333617 5583.197239091809
1238.049171074008 5546.031243547205
1238.8954991463652 5394.744806757097
1239.741619308932 5420.1296476431235
1240.587531620169 5491.541241827303
1241.4332361385277 5561.684896208957
1242.2787329224248 5410.5278443862535
1243.1240220302534 5426.114944917103
1243.9691035203869 5336.243082350697
1244.813977451171 5555.770798315251
1245.6586438809263 5447.779726532315
1246.5031028679496 5160.272062708537
1247.3473544705157 5548.496502918619
1248.1913987468706 5457.831459333449
1249.0352357552383 5159.5399817885545
1249.8788655538228 5353.339102219519
1250.7222882007918 5506.923542850067
1251.565503754302 5516.473140474463
1252.4085122724755 5132.67199499556
1253.2513138134182 5497.586662119155
1254.0939084352049 5392.0618238114685
1254.9362961958905 5367.0528231378585
1255.7784771535007 5369.650041389685
1256.6204513660432 5526.4032259965525
1257.4622188915 5652.128622061853
1258.3037797878242 5341.741129357853
1259.1451341129468 5287.132153493023
1259.9862819247755 5365.732744354367
1260.8272232811978 5278.925217697732
1261.6679582400666 5486.800283706555
1262.5084868592203 5202.052254510922
1263.34880919647 5251.567648684062
1264.1889253095997 5398.052201534961
1265.0288352563712 5427.668175300316
1265.8685390945266 5307.551632297653
1266.7080368817751 5456.354425474092
1267.5473286758115 5515.775623747262
1268.386414534294 5403.482296554599
1269.2252945148703 5052.571455217003
1270.0639686751547 5250.813952970707
1270.9024370727402 5231.379322818112
1271.7406997651997 5191.94971034602
1272.5787568100714 5013.846721017061
1273.4166082648808 5175.103157429163
1274.2542541871244 5200.02715713351
1275.091694634275 5514.858744349094
1275.9289296637817 5039.016535851908
1276.7659593330663 5298.188465963287
1277.6027836995308 5184.369325061183
1278.4394028205552 5393.296985520092
1279.2758167534867 5237.195622772675
1280.112025555658 5247.454960732797
1280.9480292843746 5289.6861985297755
1281.7838279969128 5130.363793269425
1282.6194217505326 5188.549977776823
1283.4548106024686 4990.8749622348605
1284.289994609926 5145.51019218076
1285.1249738300921 5302.443379097209
1285.959748320127 5103.026129449144
1286.7943181371702 5173.928856892277
1287.6286833383328 5157.520803645707
1288.4628439807038 5249.769700410365
1289.2968001213521 5008.551634960525
1290.1305518173194 5140.010744063946
1290.9640991256183 5192.125452328795
1291.7974421032523 5166.133935460346
1292.630580807183 4996.402715787829
1293.463515294361 5276.234617660606
1294.29624562171 5347.132869226092
1295.12877184613 5093.141818562367
1295.961094024493 5123.007758139706
1296.79321221365 5371.3072521572085
1297.6251264704333 5290.1985022163435
1298.4568368516466 5433.167554955529
1299.2883434140658 5272.20988120196
1300.1196462144526 5047.491278630889
1300.9507453095375 5245.81217904086
1301.7816407560313 5251.2679583592435
1302.6123326106172 5287.100022032294
1303.4428209299622 5052.707513210496
1304.2731057707024 5423.76991031538
1305.1031871894502 5171.064508598726
1305.933065242798 5302.227029902902
1306.7627399873181 5194.69952921239
1307.5922114795467 5598.023753320333
1308.4214797760123 5418.778452062007
1309.2505449332057 5323.745011155204
1310.0794070076026 5362.800219525008
1310.9080660556538 5516.6907168173275
1311.736522133786 5504.930008394595
1312.5647752983987 5221.598006902146
1313.3928256058734 5120.822499823118
1314.2206731125661 5370.669722196554
1315.048317874809 5309.552615286601
1315.8757599489109 5273.065947991601
1316.7029993911547 5426.711619673581
1317.5300362578055 5505.408796983534
1318.356870605101 5174.078676162169
1319.183502489257 5260.942266687058
1320.0099319664623 5364.739489477829
1320.836159092889 5417.713031987942
1321.66218392468 5495.2580091236805
1322.4880065179532 5245.93973390323
1323.3136269288134 5334.960041089258
1324.1390452133292 5468.477671157142
1324.9642614275563 5514.827102982389
1325.7892756275214 5282.763928145192
1326.6140878692295 5207.664519742675
1327.4386982086617 5736.71080653332
1328.2631067017755 5388.910113804742
1329.0873134045069 5394.340821661497
1329.911318372764 5434.767923823741
1330.735121662441 5252.905357862433
1331.558723329399 5240.030270419401
1332.3821234294774 5240.257029566999
1333.2053220185007 5311.109426240059
1334.0283191522612 5252.721669649509
1334.851114886529 5418.065994424831
1335.6737092770582 5203.115665478715
1336.4961023795695 5303.545589051083
1337.3182942497697 5179.5333539466865
1338.1402849433325 5156.359067619187
1338.962074515921 5118.369911092892
1339.7836630231632 5061.37324579191
1340.6050505206676 5634.638812717693
1341.426237064028 5400.01918232444
1342.2472227088037 5104.100842595397
1343.0680075105338 5073.442290771364
1343.888591524741 5192.7592182848275
1344.7089748069138 5341.759249407119
1345.5291574125276 5193.034941461248
1346.3491393970307 5018.139114409193
1347.168920815846 5357.247880629637
1347.9885017243778 5246.027801702622
1348.8078821780036 5154.849623929129
1349.6270622320844 5193.491532153838
1350.4460419419447 5045.2632167599595
1351.2648213629054 5238.990087908351
1352.0834005502438 4976.365271167639
1352.90177955923 4980.484579543968
1353.7199584451064 5245.172780052673
1354.5379372630887 5177.603869102064
1355.355716068374 5120.019545347848
1356.1732949161305 4953.155456015151
1356.9906738615155 5123.444122585777
1357.8078529596478 4982.84658544421
1358.6248322656375 5206.278974251043
1359.441611834567 5076.312148534239
1360.2581917214866 5240.0597562233725
1361.0745719814367 5138.963134255705
1361.890752669433 4998.679198963062
1362.7067338404577 4899.1635016587625
1363.5225155494845 5213.092256107578
1364.3380978514506 5273.894900241068
1365.1534808012839 4882.071216309277
1365.9686644538815 4683.625829635053
1366.783648864117 5129.786731476275
1367.5984340868417 5193.850014125964
1368.413020176893 5096.064561963306
1369.2274071890715 4814.796820918598
1370.0415951781652 5161.365597298662
1370.8555841989346 4981.387513545095
1371.6693743061223 4787.675880240888
1372.48296555444 4777.180531480874
1373.2963579985844 5083.9518990519855
1374.1095516932255 5015.384847367051
1374.9225466930166 4682.842152733115
1375.7353430525782 4996.463580258247
1376.5479408265164 4793.319590730061
1377.36034006941 5109.598214548602
1378.1725408358216 5021.78879149003
1378.9845431802805 4737.134927785639
1379.796347157304 5292.60786054106
1380.6079528213813 5009.913909438155
1381.4193602269788 4764.365783316431
1382.230569428546 4851.867884300653
1383.0415804805016 5004.895465216202
1383.852393437246 5060.961277542525
1384.6630083531563 4952.274248040583
1385.4734252825892 4903.049026175216
1386.2836442798798 4919.830660745685
1387.0936653993322 4944.073824957436
1387.9034886952395 4770.768767888827
1388.713114221864 4986.95442504169
1389.5225420334482 4964.113509932871
1390.331772184214 4834.453310917206
1391.1408047283585 4557.951084844379
1391.9496397200564 4771.961807074536
1392.758277213461 4969.904873271838
1393.5667172627054 4981.1440056348965
1394.3749599218918 4799.495462494575
1395.1830052451114 4686.230289895699
1395.9908532864265 4766.840683582791
1396.7985040998774 4951.264294320169
1397.6059577394808 4711.79547970911
1398.4132142592352 4713.490831340323
1399.2202737131156 4792.690115884909
1400.027136155073 4924.6883521429645
1400.8338016390353 4752.135419759134
1401.6402702189134 4750.570695648375
1402.446541948586 4788.561237348122
1403.2526168819204 4663.183666210808
1404.058495072757 4608.685108274472
1404.8641765749107 4676.228018746733
1405.6696614421799 4800.6930813391555
1406.4749497283356 5097.075324380027
1407.280041487129 4574.058657319761
1408.084936772295 4441.926303088885
1408.8896356375335 4882.191662798255
1409.6941381365323 4804.050517055723
1410.498444322955 4521.539917895048
1411.3025542504402 4663.8612620871845
1412.106467972606 4733.600555070544
1412.9101855430508 4788.768432670739
1413.7137070153458 4434.085000974267
1414.5170324430437 4711.442090244706
1415.320161879672 4778.895341693
1416.1230953787435 4923.520303934653
1416.925832993742 4494.916857819843
1417.7283747781275 4445.865728440742
1418.5307207853439 4686.794795363828
1419.3328710688093 4649.810431359418
1420.134825681922 4389.696947474986
1420.9365846780584 4462.924626803119
1421.7381481105713 4815.554988952418
1422.539516032788 4621.66488437294
1423.3406884980232 4310.862435394278
1424.1416655595604 4389.078840528369
1424.942447270665 4410.697199221597
1425.7430336845828 4644.276053663538
1426.5434248545298 4333.889211655128
1427.3436208337116 4608.511237774517
1428.143621675301 4570.852419446689
1428.9434274324558 4643.412301874925
1429.7430381583108 4238.394786329756
1430.5424539059713 4520.713373228785
1431.3416747285337 4834.593975908356
1432.1407006790632 4619.303164971288
1432.9395318106053 4474.500193305279
1433.7381681761835 4266.204542333159
1434.5366098288014 4504.852526209945
1435.3348568214424 4469.87676117601
1436.1329092070573 4311.987213528466
1436.9307670385879 4444.612281985754
1437.7284303689503 4455.0909425848895
1438.5258992510335 4639.727242803654
1439.3231737377118 4420.720677931809
1440.1202538818306 4393.491054920709
1440.9171397362225 4290.16508419526
1441.7138313536925 4431.056992221728
1442.5103287870243 4276.466038709303
1443.3066320889775 4212.852673540772
1444.1027413122956 4531.87301410195
1444.8986565096966 4334.337515381696
1445.694377733882 4297.672985889482
1446.4899050375207 4195.369828539702
1447.2852384732687 4318.700238794322
1448.0803780937622 4457.538592432904
1448.8753239516063 4246.951782581277
1449.6700760993954 4134.7810570110805
1450.464634589689 4221.488982212273
1451.2589994750397 4613.002039138765
1452.0531708079689 4155.762279947228
1452.8471486409799 4061.861624974014
1453.6409330265524 4546.315759992828
1454.4345240171442 4187.833067993586
1455.2279216651987 4214.486818110541
1456.0211260231263 4230.785422446624
1456.8141371433194 4335.169738832154
1457.6069550781594 4334.876996548862
1458.3995798799897 4052.238006375677
1459.1920116011424 4151.641619225504
1459.98425029393 4127.488640818331
1460.7762960106338 4096.8564745203275
1461.5681488035225 4270.841996151912
1462.3598087248392 4243.590626589866
1463.1512758268036 4484.140594552645
1463.942550161617 4132.801281457376
1464.7336317814625 4171.720447537288
1465.524520738496 4244.541823263358
1466.3152170848552 4140.5161081042515
1467.1057208726506 4150.288078628577
1467.8960321539817 4188.656992675538
1468.6861509809169 4043.78129876779
1469.4760774055085 4122.185917278059
1470.265811479785 4136.6035579172085
1471.055353255755 3964.483749322791
1471.844702785409 4018.9947101850767
1472.6338601207044 4075.310113627375
1473.4228253135934 4240.361502389128
1474.2115984159936 3969.5779383889035
1475.0001794798063 3870.3080926014277
1475.7885685569145 4108.614044308428
1476.576765699172 4105.073909616651
1477.3647709584238 4052.15594075062
1478.1525843864802 4329.614605376199
1478.9402060351367 4243.5388891753755
1479.7276359561693 4251.493606218053
1480.514874201328 4077.4239341667794
1481.3019208223468 3868.7101254997715
1482.0887758709323 3870.025347994249
1482.8754393987747 4195.824682800485
1483.6619114575406 3831.801093465207
1484.4481920988783 4166.324236346646
1485.2342813744108 4091.038844812123
1486.0201793357446 4316.727695519608
1486.8058860344572 4065.059718589668
1487.591401522117 4035.612335678892
1488.3767258502594 4113.637088489868
1489.1618590704056 4033.830511424168
1489.9468012340494 3792.2925046309997
1490.7315523926754 4132.619221634011
1491.5161125977356 4241.847956738549
1492.3004819006637 4182.014847862911
1493.084660352877 3944.454124980267
1493.8686480057622 4079.164843242083
1494.6524449106964 4304.658325297469
1495.4360511190262 4247.453736400856
1496.219466682087 4127.475591799073
1497.0026916511779 4179.451165731295
1497.7857260775945 4074.230178803544
1498.5685700125996 4191.432697255267
1499.3512235074395 3919.089812186635
1500.133686613337 3903.4134738187086
1500.9159593814966 3956.115968630316
1501.698041863101 4432.389653469899
1502.4799341093094 3808.291734572006
1503.2616361712662 3838.7058719995744
1504.043148100087 4138.677126189162
1504.8244699468742 4061.61841214858
1505.6056017626997 3874.4965494879457
1506.3865435986281 3797.528211639497
1507.1672955056893 4092.8120203762983
1507.9478575348967 3931.018767992592
1508.7282297372512 4212.638399859895
1509.5084121637192 4046.8657256517276
1510.2884048652577 4013.799536535891
1511.0682078927948 3962.0991002677183
1511.8478212972423 3955.3937216662575
1512.6272451294917 3954.290885301952
1513.4064794404076 4135.005399455579
1514.1855242808433 4062.730328705572
1514.9643797016215 4007.1975823769435
1515.743045753552 4054.356282886741
1516.5215224874191 4003.063850368521
1517.2998099539836 3743.7246633284494
1518.077908203999 3955.8125046955256
1518.8558172881785 3887.496718798683
1519.633537257234 4017.565059384137
1520.4110681618404 4116.310763503316
1521.1884100526604 3973.519455155677
1521.9655629803365 3886.203006342964
1522.7425269954856 4250.809542306657
1523.5193021487103 4297.595985547153
1524.2958884905856 3998.834159674387
1525.0722860716687 3948.4634413893277
1525.848494942502 3936.6075001995423
1526.624515153595 4008.1663620560307
1527.4003467554485 4041.0766823158897
1528.175989798534 4141.640181503773
1528.9514443333064 4013.4229950993495
1529.726710410203 4290.105288267021
1530.5017880796331 3832.1156530868625
1531.276677391992 3951.7234092035274
1532.0513783976457 4236.733213208709
1532.825891146953 4039.907949585749
1533.6002156902414 4041.020260725116
1534.3743520778207 4001.9259021013945
1535.1483003599806 4064.827813542848
1535.9220605869923 4067.895855581338
1536.6956328091019 4155.961547413555
1537.4690170765407 4005.2527554485046
1538.242213439511 4120.544526642212
1539.015221948208 3994.8265817434817
1539.78804265279 3965.2612975679267
1540.560675603405 3798.900783597368
1541.3331208501804 4256.671552191757
1542.1053784432224 4172.084062684944
1542.8774484326168 4102.100140530258
1543.649330868422 4002.5603389726284
1544.4210258006842 4126.145094166775
1545.1925332794308 4109.55609661863
1545.9638533546604 4020.0960010841613
1546.7349860763552 3997.0562193904166
1547.5059314944829 4450.422630450924
1548.27668965898 4145.207034892917
1549.0472606197673 4091.5317465548433
1549.817644426752 3940.517046646576
1550.5878411298072 4183.596085514901
1551.3578507787988 4100.130061612223
1552.1276734235635 3941.58383481887
1552.8973091139233 4018.9168024811406
1553.6667578996767 4204.83228428435
1554.436019830604 4032.6717721209657
1555.20509495646 4019.894056032309
1555.9739833269869 3911.4656179515355
1556.7426849919011 3881.0565424867937
1557.511200000903 4218.751937222945
1558.2795284036674 3986.5030143213894
1559.0476702498509 3985.1616064407704
1559.8156255890954 4185.501577034474
1560.5833944710157 4393.218712289075
1561.3509769452048 3888.8939828188704
1562.1183730612447 4060.4650800306617
1562.8855828686865 3986.4762382712374
1563.6526064170703 4397.922575327371
1564.4194437559127 4185.727393551638
1565.1860949347047 3920.8882216379825
1565.9525600029283 4254.732991299245
1566.7188390100328 4358.3138914338215
1567.4849320054564 3931.207885740178
1568.250839038612 3943.2324261296503
1569.0165601588997 3982.6032802983987
1569.7820954156887 4114.853122353692
1570.5474448583373 3978.5870865160164
1571.31260853618 3956.394824089918
1572.0775864985299 3733.4347597341125
1572.8423787946813 4074.1090622161
1573.6069854739108 3895.604545876059
1574.371406585471 3993.072106120385
1575.1356421785986 4178.234194281331
1575.899692302506 3913.267048408156
1576.6635570063845 4007.771255583398
1577.4272363394157 3896.907817528811
1578.190730350747 3814.525059353685
1578.9540390895163 4128.0987310572045
1579.7171626048384 3714.103388461374
1580.480100945806 3834.5520213975606
1581.2428541614918 3887.7135703546387
1582.0054223009538 4037.012696828252
1582.767805413223 3955.570029807122
1583.5300035473156 3989.21297003525
1584.292016752228 4102.989950965539
1585.0538450769309 4016.4881151191357
1585.8154885703807 3874.815388668942
1586.5769472815136 3820.095790100524
1587.3382212592405 3958.730076676231
1588.099310552463 4245.183487868506
1588.8602152100484 4114.697415313479
1589.6209352808564 4089.1396267993505
1590.3814708137234 3927.5613436177164
1591.14182185746 3973.545620643398
1591.9019884608679 3968.8990413231695
1592.6619706727215 3681.756313788249
1593.4217685417734 4039.855888899546
1594.1813821167616 4170.264377082045
1594.9408114464022 3833.770479520833
1595.7000565793933 3927.8563560098855
1596.459117564409 3989.7042881276634
1597.2179944501113 3844.822207243115
1597.9766872851324 3832.795261755006
1598.735196118092 4095.5409281182606
1599.4935209975883 4052.2709781729995
1600.2516619721973 4221.254479269236
1601.0096190904787 3912.4334199004625
1601.7673924009723 3813.6302263892444
1602.524981952196 3853.517698137279
1603.2823877926476 3872.7303153402704
1604.0396099708087 3740.6777413688624
1604.7966485351371 3623.5341451799277
1605.5535035340745 3854.649120754322
1606.3101750160404 4089.2508698155893
1607.0666630294363 3832.839353830352
1607.822967622642 3686.201341103265
1608.5790888440224 3825.2562160588495
1609.3350267419137 4046.5196981605723
1610.0907813646445 3857.1074920615874
1610.8463527605145 3781.709712066495
1611.601740977805 3901.519075744784
1612.356946064785 3858.5846433940146
1613.1119680696902 3620.0371280810054
1613.8668070407512 3747.8484401805654
1614.6214630261748 3733.0524545645203
1615.375936074137 3883.1903555141375
1616.1302262328118 3823.461113770557
1616.8843335503425 3929.2886064636527
1617.638258074854 3635.7602184773605
1618.391999854457 3842.723120202424
1619.1455589372363 3927.6377897845837
1619.8989353712623 3830.7930584608293
1620.65212920458 3611.9721465732705
1621.4051404852235 3682.479384510899
1622.1579692611976 3752.934425525205
1622.9106155804966 3556.058212597486
1623.663079491087 3738.606161525535
1624.4153610409248 3929.8244198351254
1625.1674602779385 3606.470295564941
1625.9193772500403 3701.3580734318916
1626.6711120051277 3998.371754192828
1627.4226645910676 3759.1413323184825
1628.174035055721 3676.963384362206
1628.9252234469168 3898.709569320666
1629.676229812474 3723.6978140661513
1630.4270542001905 4088.669866799555
1631.1776966578382 3815.9263979236653
1631.9281572331747 3700.044426032273
1632.678435973945 3880.0033927876925
1633.4285329278573 3844.038699298496
1634.1784481426203 3624.2851325515076
1634.9281816659113 3674.7091726797307
1635.677733545388 3952.931466545872
1636.4271038286934 3753.1994749337186
1637.176292563452 3857.828817429801
1637.9252997972635 3861.651235507846
1638.674125577716 3875.978292051322
1639.4227699523672 4219.273467931815
1640.171232968767 3566.1828783751625
1640.9195146744423 3997.960267493602
1641.6676151168977 4098.13896906402
1642.4155343436178 4117.168558010775
1643.1632724020765 3868.2148413308214
1643.9108293397167 3909.01154984759
1644.658205203974 3818.509506878015
1645.4054000422566 4393.4407099314985
1646.1524139019566 3802.2929134648084
1646.8992468304423 3785.171839278229
1647.6458988750728 3863.226901849227
1648.3923700831765 3957.99595600401
1649.1386605020743 3859.640089760909
1649.8847701790564 4049.031768782622
1650.6306991614038 3929.8608467159306
1651.3764474963682 4044.1390969754893
1652.1220152311944 3591.60179251148
1652.867402413096 4015.5538652136142
1653.6126090892776 3886.677662380555
1654.3576353069184 4174.417243731991
1655.1024811131829 4022.7158361071606
1655.8471465552066 3884.082407088515
1656.5916316801213 4065.830961028175
1657.3359365350298 4005.5123410348724
1658.0800611670165 3814.0681402258515
1658.824005623148 3876.222865112765
1659.5677699504722 3651.6952259858326
1660.3113541960192 3955.9716853075274
1661.054758406799 3776.710106155629
1661.7979826297997 3596.1763795673132
1662.5410269119966 3553.6937691159
1663.283891300338 3923.8902100603045
1664.0265758417645 3632.960102413005
1664.7690805831826 3824.999170124132
1665.5114055714948 3868.7338008332385
1666.2535508535748 4209.585239260474
1666.9955164762814 3457.544322888529
1667.7373024864555 3638.495747526687
1668.478908930916 3753.4458236629607
1669.220335856462 3619.7338613252846
1669.9615833098778 3559.566119028407
1670.7026513379296 3492.126031967774
1671.44353998736 3625.992766477615
1672.1842493048916 3599.264242868833
1672.9247793372379 3576.304918111812
1673.6651301310812 3676.297289291543
1674.4053017330934 3542.664715320897
1675.1452941899242 3671.968799572912
1675.885107548207 3100.692971026572
1676.6247418545518 3258.5622429074524
1677.3641971555535 3332.7874396210595
1678.1034734977893 3621.4439587893366
1678.8425709278108 3483.1235490854933
1679.5814894921605 3619.537993165367
1680.320229237359 3604.9108030210928
1681.0587902098978 3701.614831512385
1681.7971724562685 3444.054003194697
1682.5353760229264 3325.147229003805
1683.2734009563173 3562.2291716366963
1684.0112473028657 3276.5907648938255
1684.7489151089794 3439.6581701439377
1685.4864044210462 3605.9198563855034
1686.2237152854377 3137.1855007388667
1686.960847748498 3533.1247387165226
1687.6978018565642 3168.9524213405375
1688.434577655944 3209.3894081738276
1689.1711751929379 3135.417172638228
1689.9075945138156 3273.343169755477
1690.6438356648396 3221.131496842497
1691.3798986922448 2885.1018870509133
1692.1157836422499 3244.227893264679
1692.851490561059 3156.4401595432887
1693.587019494853 3298.630010905073
1694.3223704897991 2914.1054126498207
1695.0575435920364 2907.7221801465676
1695.792538847696 3481.715925865394
1696.527356302886 3131.994033903147
1697.2619960036936 2873.2652873326856
1697.9964579961907 2895.8718419949737
1698.730742326432 2701.2625801870427
1699.4648490404488 2894.4941143822502
1700.1987781842563 3028.666808495497
1700.9325298038548 3231.94730965181
1701.6661039452174 3334.332156544572
1702.3995006543082 3117.7613139005375
1703.1327199770658 3256.4167771064795
1703.865761959416 2928.833986819615
1704.598626647261 3230.374143431931
1705.3313140864866 2832.6751580124374
1706.0638243229587 2993.480949674571
1706.7961574025303 3100.0647164615907
1707.528313371029 3006.8375571066704
1708.260292274268 2785.5739008879127
1708.9920941580403 3030.8649151442396
1709.7237190681226 3082.5247446572225
1710.4551670502697 2936.449839016009
1711.18643815022 2764.137392523823
1711.9175324136959 3305.0471749940743
1712.6484498863938 2951.884213361176
1713.379190614005 2727.519273089504
1714.109754642188 2928.388861072234
1714.8401420165883 2867.5499548676416
1715.570352782839 3171.1347892568588
1716.3003869865497 3053.4213933451088
1717.0302446733076 2800.725951158968
1717.7599258886876 2968.7722982101627
1718.4894306782444 3290.030344112261
1719.2187590875183 2738.7060907098203
1719.9479111620203 3134.966655297941
1720.6768869472544 2821.168959513092
1721.4056864887025 3194.9768044388256
1722.1343098318284 3108.5608673424604
1722.8627570220742 2938.750320637665
1723.591028104871 2752.8494846421813
1724.3191231256242 2656.7085806385667
1725.0470421297232 2832.4558203457677
1725.7747851625427 3024.812281806661
1726.5023522694337 2916.76423129192
1727.2297434957363 3001.2326335124426
1727.9569588867635 2616.83945665849
1728.6839984878152 2954.462075401416
1729.4108623441734 2514.6903286531924
1730.1375505011038 2867.3626158789043
1730.8640630038426 2763.7987758463555
1731.5903998976264 2783.724577703778
1732.316561227657 2973.6254776414776
1733.0425470391274 2621.570264949427
1733.7683573772065 2881.190388654447
1734.4939922870508 2877.8308311993533
1735.2194518137949 2891.8724950123874
1735.9447360025606 2897.411752969129
1736.669844898439 2854.724369339933
1737.3947785465189 2733.13725075437
1738.1195369918605 2546.1667831304376
1738.8441202795093 2827.962739879299
1739.5685284544943 2885.861036023278
1740.292761561821 2924.525133437706
1741.0168196464838 2855.877723577236
1741.7407027534518 2861.420456162552
1742.464410927687 2825.579162653288
1743.187944214118 2793.609929897152
1743.9113026576688 2670.379054021045
1744.634486303241 2759.2162205652467
1745.3574951957125 2716.8860788039965
1746.0803293799509 2894.025319793708
1746.8029889008048 2821.2583692279995
1747.5254738031017 2895.7528725264774
1748.2477841316504 2627.6973268369175
1748.969919931249 2745.4766481735523
1749.6918812466665 2739.7202543990147
1750.4136681226646 2923.662960782339
1751.1352806039777 2656.924701419905
1751.856718735331 2404.454566091024
1752.5779825614281 2480.867347525992
1753.2990721269507 2881.7997486946906
1754.0199874765676 2775.3143184343135
1754.7407286549314 2412.906081815872
1755.4612957066693 2581.6715258175136
1756.1816886763954 2489.708049818143
1756.9019076087097 2727.9276539593984
1757.6219525481865 2798.0311416270793
1758.3418235393856 2694.918572314505
1759.061520626854 2656.442198504754
1759.7810438551096 2855.157726275321
1760.5003932686614 2559.3510149758968
1761.2195689119999 2966.745890600817
1761.938570829594 2699.0724454394917
1762.657399065898 2770.4232017084964
1763.376053665348 2426.4980433708765
1764.0945346723602 2461.2067586861726
1764.812842131334 2864.3260530862326
1765.5309760866512 2503.7698421188666
1766.2489365826787 2514.699312299207
1766.9667236637597 2584.143083168048
1767.684337374223 2350.6278700390912
1768.401777758383 2447.1277514632393
1769.1190448605284 2437.1031496614473
1769.836138724937 2470.7012789637783
1770.5530593958665 2628.939599208755
1771.2698069175603 2820.0906804187866
1771.9863813342326 2683.352386962379
1772.702782690094 2554.9370651936524
1773.4190110293293 2767.7815425531157
1774.1350663961111 2759.965501926569
1774.8509488345844 2479.8111307207914
1775.5666583888924 2584.6934632137186
1776.2821951031437 2826.2345035668773
1776.9975590214362 2574.6941916868795
1777.7127501878585 2755.723936688686
1778.4277686464684 2687.2790049961272
1779.1426144413108 2766.3418781099417
1779.8572876164162 2803.2005377324963
1780.571788215797 2566.543790133473
1781.2861162834415 2741.799276523784
1782.0002718633277 2556.303068866021
1782.7142549994132 2751.2769441733203
1783.4280657356376 2553.2274282325516
1784.141704115922 2441.774357240961
1784.855170184177 2565.69905584456
1785.5684639842839 2627.4385791485192
1786.2815855601148 2325.320208032206
1786.9945349555237 2667.6136892662153
1787.707312214343 2558.681991287215
1788.4199173803918 2905.185379278482
1789.132350497468 2387.8919868488897
1789.8446116093583 2489.324736881871
1790.556700759822 2496.863520485158
1791.2686179926077 2501.2655526492017
1791.9803633514493 2596.958041362993
1792.6919368800554 2365.8099829692205
1793.4033386221236 2679.4692173603717
1794.1145686213295 2786.150895635414
1794.8256269213307 2857.0111728468064
1795.536513565774 2697.0230306565886
1796.247228598284 2313.682138273512
1796.9577720624693 2531.938330644796
1797.6681440019165 2596.153600263653
1798.3783444602013 2555.9756502965038
1799.0883734808776 2746.9255748756486
1799.7982311074884 2685.1327945814523
1800.5079173835475 2693.985506001402
1801.2174323525633 2711.761394798864
1801.9267760580187 2551.025620299598
1802.635948543386 2616.3790635310443
1803.3449498521113 2435.3025400051692
1804.0537800276325 2637.0550347676995
1804.7624391133668 2629.573894759751
1805.47092715271 2390.9657590850647
1806.1792441890484 2437.2911497005116
1806.8873902657433 2774.096893946488
1807.5953654261448 2561.0377651504396
1808.3031697135812 2471.4959216625257
1809.0108031713662 2497.376860868065
1809.71826584279 2594.7853574882197
1810.425557771141 2534.0572412535066
1811.1326789996747 2516.847758797493
1811.839629571632 2499.4805429752987
1812.5464095302468 2474.8734534526884
1813.2530189187182 2582.7790336719054
1813.959457780249 2443.666034502496
1814.6657261580076 2670.1094536598416
1815.371824095153 2516.700280189445
1816.0777516348262 2665.721029249501
1816.78350882015 2193.769073175982
1817.4890956942272 2317.842230404704
1818.1945123001533 2456.3467078829663
1818.8997586809928 2456.042464480145
1819.6048348798067 2419.717355659368
1820.3097409396287 2375.761938450734
1821.0144769034796 2869.3080646642934
1821.7190428143622 2489.651951037946
1822.423438715261 2635.8671748439488
1823.1276646491478 2418.4311842798506
1823.8317206589727 2459.4551075717
1824.5356067876692 2482.7637336095067
1825.2393230781581 2508.5436834071875
1825.942869573335 2207.317033667119
1826.646246316086 2300.274564911295
1827.3494533492758 2448.7929122702726
1828.052490715756 2506.5793192932424
1828.7553584583547 2457.6020027618465
1829.458056619891 2603.080850147003
1830.1605852431585 2457.452833547939
1830.8629443709433 2288.2463495773463
1831.5651340460063 2438.347993950426
1832.2671543110919 2249.8484761078175
1832.9690052089318 2587.5878669054573
1833.6706867822395 2247.3855646359684
1834.3721990737104 2568.2210862325496
1835.0735421260233 2511.2177957626595
1835.774715981841 2545.9232218496404
1836.4757206838058 2679.5414612821573
1837.1765562745459 2338.27000361961
1837.8772227966747 2388.394018762516
1838.5777202927839 2366.1490351689044
1839.2780488054523 2450.238586507453
1839.9782083772352 2404.9998126874984
1840.6781990506806 2835.8147107169198
1841.378020868313 2410.038347020538
1842.0776738726418 2574.7594704566595
1842.777158106157 2280.665254319732
1843.4764736113375 2348.7043698082043
1844.1756204306403 2524.8647939712114
1844.8745986065078 2513.0577379492215
1845.5734081813607 2352.0937261439362
1846.2720491976124 2389.4615006265262
1846.970521697649 2266.9360140000344
1847.6688257238511 2541.01125373362
1848.3669613185684 2391.9769927209877
1849.0649285241452 2094.7149582934394
1849.7627273829057 2528.5188263604978
1850.460357937156 2497.4641082475837
1851.1578202291857 2106.8161249944087
1851.8551143012664 2347.2131738874127
1852.5522401956569 2457.9904866230445
1853.2491979545957 2611.4712456532484
1853.9459876203055 2261.66656992462
1854.6426092349902 2278.1886588064845
1855.3390628408451 2244.167249691187
1856.0353484800362 2589.0637285524763
1856.7314661947203 2524.5124887346924
1857.4274160270397 2176.5313879736773
1858.123198019115 2369.363731966939
1858.8188122130487 2276.044869962006
1859.5142586509319 2481.3692000668534
1860.209537374838 2381.0226488338126
1860.9046484268183 2281.3607899428634
1861.599591848917 2595.6035659999425
1862.294367683151 2157.9494784527483
1862.988975971528 2279.4937008992515
1863.6834167560355 2315.925431073515
1864.3776900786452 2554.374308998695
1865.0717959813119 2264.317740930287
1865.7657345059724 2181.3790664143485
1866.4595056945564 2448.2509739515745
1867.1531095889586 2361.096575927143
1867.846546231076 2179.5040840322063
1868.5398156627743 2471.7367946523254
1869.2329179259123 2191.9855276527696
1869.9258530623283 2575.8785609946726
1870.618621113843 2105.3985164131245
1871.3112221222636 2115.005129111155
1872.0036561293764 2309.8801940127382
1872.695923176956 2382.8266916881103
1873.3880233067594 2554.3763507181716
1874.0799565605212 2182.1821996099743
1874.7717229799673 2305.432853131636
1875.4633226068036 2529.42738477918
1876.1547554827175 2356.7650991028827
1876.8460216493859 2299.5184245894457
1877.5371211484617 2311.9983194440447
1878.2280540215852 2577.4517449780533
1878.9188203103804 2147.5095229018734
1879.6094200564548 2324.601801896945
1880.299853301396 2153.5059085578646
1880.9901200867826 2515.3670140533513
1881.6802204541673 2553.6510883181077
1882.3701544450942 2392.9095059728706
1883.059922101087 2195.440236867896
1883.7495234636517 2586.7256183112822
1884.4389585742792 2291.0862529856972
1885.1282274744517 2265.0013743738386
1885.8173302056166 2332.044419099894
1886.506266809225 2399.1806141605707
1887.195037326701 2044.569736597201
1887.8836417994517 2252.386316387605
1888.5720802688702 2603.607310045827
1889.260352776333 2478.491548057764
1889.9484593632042 2570.842051536945
1890.63640007082 2242.192712097977
1891.3241749405151 2116.652536317254
1892.0117840135954 2484.6389891262156
1892.6992273313572 2306.135434419267
1893.3865049350788 2156.091104234454
1894.0736168660223 2611.3621087329684
1894.7605631654333 2363.926536939583
1895.4473438745408 2047.5161453164899
1896.133959034556 2606.2179920771678
1896.820408686679 2416.54577992659
1897.506692872088 2650.027846585507
1898.192811631945 2366.968128591045
1898.8787650073991 2285.1893701835575
1899.5645530395832 2526.3012611493536
1900.2501757696118 2510.803368852198
1900.9356332385796 2162.1244292876263
1901.620925487574 2265.8895661272854
1902.3060525576602 2370.0117092355767
1902.9910144898859 2387.757858245005
1903.6758113252872 2192.021993626234
1904.3604431048789 2381.874502404635
1905.0449098696663 2510.2392473198943
1905.7292116606295 2125.34816016696
1906.4133485187394 2376.9995743555187
1907.0973204849488 1963.636301617352
1907.7811276001976 2054.5068059381574
1908.4647699053967 2219.7028735054364
1909.1482474414588 1714.8012431308493
1909.8315602492694 2028.510668602874
1910.5147083696957 2468.5463028259755
1911.1976918436012 2152.475425597536
1911.880510711815 2120.1253687313006
1912.5631650151681 2438.4966354098315
1913.2456547944657 2149.0409586821643
1913.927980090495 2134.882259278353
1914.6101409440362 2309.8920641486525
1915.2921373958416 2256.139953046872
1915.9739694866603 2289.2220412452725
1916.655637257214 2540.6660516562447
1917.3371407482136 2306.5665679743147
1918.0184800003572 2498.1905672211374
1918.6996550543154 2459.218857052205
1919.3806659507554 2288.3668599585108
1920.0615127303208 2313.9460475334563
1920.7421954336423 2441.599941986313
1921.4227141013343 2444.7867284634403
1922.103068773993 2432.130629037049
1922.783259492202 2451.119579992056
1923.4632862965227 2292.4405023764957
1924.1431492275078 2126.2315009494023
1924.8228483256917 2135.1279849603657
1925.5023836315922 2173.0538303966155
1926.1817551857057 1963.7810298090922
1926.8609630285227 2579.0896596497078
1927.5400072005123 2464.420855750115
1928.218887742125 2181.2427672528006
1928.8976046938005 2037.2350607856938
1929.5761580959588 2438.7849519915194
1930.2545479890086 2207.7493508392713
1930.9327744133352 1991.3368802260634
1931.6108374093164 2089.6623110902615
1932.2887370173066 2014.4240541337604
1932.9664732776473 1938.9614944763503
1933.6440462306673 2355.6305130543824
1934.3214559166754 2175.7770255732044
1934.9987023759659 2679.556615226661
1935.675785648813 2427.558845972564
1936.3527057754836 2532.011089797378
1937.029462796223 2077.660015252285
1937.70605675126 2177.7656740374596
1938.3824876808085 2056.5107717751657
1939.058755625072 2229.2886340441714
1939.7348606242267 2228.025679630557
1940.4108027184448 2324.1334483490855
1941.0865819478713 2381.2807528251983
1941.7621983526478 2217.552942038517
1942.4376519728921 1987.3414977691275
1943.1129428487038 2209.149468786316
1943.7880710201734 2404.523774890586
1944.4630365273733 2407.10691677215
1945.1378394103576 2026.7647388984587
1945.8124797091714 1980.664903286773
1946.4869574638324 1934.4042730985668
1947.161272714353 2043.323135488629
1947.8354255007234 2284.6881382323054
1948.5094158629272 2161.1090608161944
1949.1832438409183 2350.723201882972
1949.8569094746435 2463.210667059112
1950.530412804037 2501.270352829607
1951.2037538690092 2390.982739047862
1951.8769327094578 2134.841739407187
1952.5499493652678 2135.6926979782374
1953.222803876306 2438.8898329436533
1953.895496282421 2205.2461974275466
1954.5680266234522 2326.6126383259057
1955.2403949392155 2297.9656627966096
1955.9126012695142 2030.291909002691
1956.5846456541403 2192.5862027971298
1957.2565281328643 2147.1369278150505
1957.9282487454457 2367.4637844071012
1958.5998075316202 2296.8144695999226
1959.27120453112 2171.3570816838696
1959.9424397836501 2228.9056614831247
1960.613513328908 2362.0450677401814
1961.2844252065697 2542.463707612713
1961.9551754563017 2032.9870261300616
1962.6257641177453 2030.5459603696975
1963.29619123054 2106.646578560742
1963.966456834296 2129.621043656335
1964.6365609686181 1982.2652319906192
1965.306503673086 2345.785815698067
1965.976284987275 2007.0983088599285
1966.645904950734 2184.5792234322116
1967.315363603002 2039.63790957557
1967.9846609836077 2238.836489902712
1968.6537971320486 2032.390770515188
1969.3227720878222 2358.9170580428804
1969.9915858904042 2165.07707611153
1970.660238579252 2408.864961799726
1971.3287301938108 2221.0252074171976
1971.997060773514 2080.7005064815326
1972.665230357772 2134.424727712945
1973.3332389859843 2078.5460620491253
1974.0010866975335 1895.9082252603832
1974.6687735317864 2218.9460467598815
1975.3362995280932 2308.242530814524
1976.003664725793 2189.921297779931
1976.6708691642052 1853.4913887409825
1977.3379128826364 2230.8777986581163
1978.004795920373 2399.515395834081
1978.6715183166925 2111.9812282975126
1979.3380801108524 2318.0264500238213
1980.0044813420973 2052.6095468645776
1980.6707220496555 1922.2130241700677
1981.3368022727373 2141.355715737976
1982.0027220505417 1931.1892971798268
1982.66848142225 1720.8131191611417
1983.3340804270283 1881.6948563562987
1983.999519104027 2131.1810064226856
1984.6647974923835 2171.4720880243162
1985.329915631215 2200.771844367159
1985.99487355963 2143.592738896895
1986.6596713167146 2305.6034125692954
1987.3243089415428 2088.0645830286057
1987.9887864731754 2372.146986977871
1988.6531039506553 1888.828156547014
1989.3172614130071 1962.143139673091
1989.9812588992481 2035.6155874763583
1990.645096448372 1724.8266704293158
1991.3087740993633 2181.0322071261244
1991.9722918911848 2117.163657534291
1992.635649862792 2152.6166796566768
1993.2988480531185 2270.428318460882
1993.9618865010852 2484.0882878103093
1994.6247652455968 2021.6754897316478
1995.287484325545 1992.2976705754124
1995.9500437798033 2085.3197645566297
1996.6124436472292 2092.882263672506
1997.2746839666706 2292.67597492517
1997.936764776954 2125.572493386895
1998.598686116895 2032.8379287302996
1999.2604480252903 2515.3303609169166
1999.9220505409212 2382.638201522931
2000.5834937025593 1949.302851872662
2001.2447775489582 2122.136952051302
2001.9059021188514 2135.4682593451676
2002.5668674509616 1863.0409293847756
2003.2276735839987 2128.6262616105532
2003.8883205566508 2483.27287558019
2004.5488084075987 2024.12237382643
2005.2091371755014 2129.941545204968
2005.8693068990033 1807.6276295745338
2006.5293176167397 1910.5691718240257
2007.1891693673224 2013.8585823047138
2007.848862189354 1843.6219631694125
2008.5083961214223 1991.013360458885
2009.1677712020955 2072.3279322021817
2009.8269874699254 1979.0703331086738
2010.4860449634598 1941.4694362098926
2011.1449437212177 1903.8844245000134
2011.8036837817108 2294.337323420613
2012.4622651834325 2167.8610855437205
2013.1206879648653 2357.702408312694
2013.7789521644736 2435.8314649998324
2014.4370578207036 2209.2662399299525
2015.0950049719922 1981.9816318511143
2015.7527936567585 2221.20088307909
2016.4104239134067 2066.0124513983687
2017.067895780323 2571.408663152262
2017.725209295886 2496.6306064490627
2018.3823644984514 2421.58353377866
2019.0393614263648 2084.9920634009927
2019.6962001179545 1894.235537102914
2020.3528806115355 1977.204416629874
2021.0094029454067 2060.408880376528
2021.6657671578487 1814.4140195861023
2022.321973287133 2053.3287266276884
2022.9780213715148 2004.918006785004
2023.6339114492293 2216.056676142335
2024.2896435585026 2087.4155953401428
2024.9452177375442 2055.3167751002575
2025.600634024544 2378.9111409812513
2026.2558924576842 2252.320739872444
2026.9109930751292 2334.0760095842625
2027.565935915025 1965.3842078751386
2028.2207210155066 2515.7584318794193
2028.8753484146964 2537.408329967105
2029.529818150695 2407.6629683382444
2030.1841302615903 2277.341281963684
2030.8382847854573 2006.600985762751
2031.4922817603601 2175.6900808434043
2032.1461212243357 2110.5848458831238
2032.7998032154192 1921.1401250714775
2033.4533277716218 1894.5964474211294
2034.1066949309443 1838.1230838598494
2034.7599047313688 1857.2615827187237
2035.4129572108704 2154.7449572673677
2036.0658524074006 2077.0742352243706
2036.7185903589016 2280.361199935258
2037.3711711032956 2179.626622589249
2038.023594678496 2153.9630293475916
2038.675861122394 1870.9685640544908
2039.3279704728757 1907.3100496826592
2039.9799227678031 1943.9099115110853
2040.6317180450278 1986.2720561200508
2041.2833563423865 2019.9186625032403
2041.9348376977014 2450.5790669328785
2042.5861621487784 2304.4341831278093
2043.2373297334088 2006.1934081735776
2043.8883404893695 2098.7437271875547
2044.5391944544208 2142.1397264539546
2045.1898916663158 2388.852384678914
2045.8404321627804 2403.049523766974
2046.4908159815368 1902.0630974024436
2047.1410431602853 1912.206744027814
2047.7911137367173 2041.044212640269
2048.441027748504 2213.6469815701257
2049.090785233302 1856.7779802856962
2049.7403862287592 1976.5868987569793
2050.389830772503 1889.8978783224134
2051.0391189021466 1803.18061488791
2051.688250655294 2078.424157267329
2052.337226069527 1823.2227241282417
2052.986045182417 2282.557809839567
2053.634708031521 1690.6877043917243
2054.283214654375 2140.771356942282
2054.931565088511 1617.9704760446016
2055.579759371436 1796.682892497071
2056.2277975406523 2142.8854441243757
2056.8756796336384 2273.4024571006835
2057.5234056878617 1724.7524847623845
2058.1709757407752 1973.5262800735495
2058.8183898298194 2273.1913303198044
2059.465647992416 2170.587172384431
2060.1127502659747 2228.6735906282984
2060.759696687888 1803.966918181944
2061.4064872955405 2186.091799240657
2062.053122126292 2418.7868592419463
2062.699601217497 2216.9341102583976
2063.345924606485 2015.1253793092612
2063.992092330587 2121.3026042152214
2064.638104427102 1813.4328348971346
2065.283960933324 2281.909929916137
2065.92966188653 2072.7490437628394
2066.5752073239855 2270.209154359389
2067.2205972829397 1865.3759084267488
2067.86583180062 1984.4748816377025
2068.5109109142522 2019.509043462221
2069.15583466104 2044.3515894491643
2069.8006030781708 1900.6724298243887
2070.445216202821 1967.6321499744486
2071.089674072153 2190.798734348467
2071.7339767233116 2133.633421680617
2072.3781241934303 1978.313936327065
2073.0221165196253 2043.192303948975
2073.6659537390024 2001.9952169159096
2074.3096358886505 2222.5078867617003
2074.953163005637 2010.0228425615405
2075.596535127028 1772.1607080627878
2076.2397522898664 1861.447161042249
2076.882814531182 2049.373149168724
2077.5257218879924 2245.5604131829996
2078.1684743973 1754.912966084154
2078.8110720960885 1956.855513163881
2079.453515021336 1994.7761257301408
2080.095803209997 2032.6854180546688
2080.7379366990135 2017.6829422951282
2081.37991552532 2190.1087760207142
2082.0217397258275 2069.211796531702
2082.6634093374414 1742.1092975532756
2083.3049243970418 1938.9295188149367
2083.9462849415067 2177.6133114083027
2084.587491007689 2062.6263069595957
2085.2285426324324 2033.0620731703123
2085.869439852564 1875.308122399975
2086.510182704902 1970.6127626237862
2087.1507712262483 2027.8935203983117
2087.791205453381 1741.1646511685717
2088.4314854230743 2083.4927904006886
2089.0716111720867 2048.0669651315206
2089.7115827371617 1614.2549835951356
2090.351400155023 1735.3714570909622
2090.991063462385 1856.7914695214859
2091.6305726959527 1624.5215489417071
2092.2699278924047 1763.741780231839
2092.9091290884153 1903.3207815873288
2093.548176320641 1721.9732494899563
2094.187069625721 2167.1160978444054
2094.8258090402887 1731.6073080620076
2095.464394600951 2146.0937502041315
2096.102826344313 1985.3582144765824
2096.741104306955 1848.9483018658532
2097.379228525453 1712.2386194691414
2098.017199036358 1618.7804637438094
2098.6550158762147 1856.2899206687919
2099.2926790815527 2094.3017820779482
2099.9301886888825 2017.420606812861
2100.5675447347076 1982.9144659439348
2101.2047472555114 2241.8779125126393
2101.841796287761 1876.9263346844884
2102.47869186792 1946.5464438757085
2103.1154340324265 1828.7128122814097
2103.752022817709 1940.0742658108836
2104.388458260184 1981.477192855208
2105.024740396251 1928.8710591634783
2105.660869262292 1999.027059472785
2106.296844894685 2253.271355412187
2106.93266732978 2130.3746818936347
2107.5683366039284 1815.7292951232866
2108.2038527534532 2063.6179738610526
2108.8392158146726 2250.9635961096747
2109.4744258238843 1887.3751902709864
2110.1094828173755 2017.2987280776365
2110.744386831422 2001.243657726255
2111.3791379022787 1985.179201671403
2112.01373606619 2289.7318006705814
2112.648181359389 2200.8550948818456
2113.28247381809 2131.0744106073134
2113.916613478492 2090.1316627250953
2114.550600376786 2086.610835203872
2115.1844345491445 1897.0244812058831
2115.818116031729 1815.1748536995506
2116.451644860679 1974.1856680609624
2117.085021072133 1799.3775173787412
2117.718244702204 1829.1435874613387
2118.3513157869984 1790.475894871702
2118.984234362604 1679.5356375362276
2119.617000465092 1762.8635793239405
2120.249614130529 1780.7807617962346
2120.8820753949585 1798.729309846964
2121.5143842944162 1816.1534939154021
2122.14654086492 1914.7387911186677
2122.7785451424734 1767.3549180794575
2123.4103971630702 2048.5189418561185
2124.042096962681 1890.303311682288
2124.6736445772767 2155.430509697896
2125.305040042802 1850.9033662936768
2125.936283395191 2010.453024544176
2126.567374670365 1933.8506668865775
2127.198313904233 1894.0657006844037
2127.8291011326855 1963.790211364473
2128.4597363916037 2033.4272328111208
2129.0902197168507 1924.55441658072
2129.720551144279 1763.063304693716
2130.3507307097225 2344.5417149415675
2130.980758449008 2243.8804695216413
2131.6106343979427 2188.478056101531
2132.2403585923203 2132.8999710512057
2132.8699310679276 2126.480956356073
2133.499351860526 2068.82721422465
2134.1286210058715 1974.895539458536
2134.7577385397053 2115.888795781155
2135.3867044977487 2257.1315052148793
2136.0155189157176 2262.2887138892283
2136.644181829308 2109.830193808209
2137.2726932742025 2036.225398096308
2137.901053286074 2257.327236271487
2138.5292619005777 1823.699966848478
2139.1573191533535 1893.1385731509151
2139.7852250800315 2073.39384645046
2140.4129797162295 1946.9326354915843
2141.0405830975433 1597.2958355624382
2141.6680352595613 1660.6008965676042
2142.2953362378576 1724.046145254076
2142.9224860679915 1689.0875170019553
2143.549484785508 1920.8985789842532
2144.1763324259373 1911.3749325997603
2144.803029024799 1853.6308728747656
2145.429574617594 1842.6104026604983
2146.0559692398165 2144.942504126312
2146.682212926942 1906.4832347505514
2147.308305714432 1957.3271705272746
2147.9342476377333 2149.28912240113
2148.5600387322847 2245.984938434306
2149.185679033506 1974.856417041706
2149.8111685768017 1879.3373612546955
2150.4365073975678 1820.82977493611
2151.061695531187 1851.7598239463136
2151.686733013021 1882.923942251199
2152.311619878423 1914.2741418220553
2152.9363561627342 1885.5499699282568
2153.560941901278 1717.0229617916398
2154.1853771293663 2008.4625717993124
2154.809661882293 1988.2480182510321
2155.433796195348 2457.1136272722297
2156.0577801037944 1616.6730071575644
2156.681613642895 2167.6694604432014
2157.3052968478896 1538.2549222416596
2157.928829754006 1999.4481558634682
2158.552212396462 2040.1507456784962
2159.1754448104566 1820.8997694367329
2159.7985270311783 1672.4679527451412
2160.4214590938027 1426.0296101087445
2161.0442410334927 1633.5928578391963
2161.6668728853874 1877.7881484075956
2162.289354684628 1733.4078158795844
2162.911686466332 1892.8397324063167
2163.533868265602 2065.4766236123214
2164.1559001175337 2319.9955541782856
2164.7777820572046 1972.9558271650972
2165.399514119681 1809.634971031091
2166.021096340013 1705.8020699188062
2166.6425287532384 2271.4583846921914
2167.263811394385 1544.6483342932104
2167.8849442984574 2287.2509629988494
2168.505927500455 1645.498467248739
2169.126761035366 2133.007884153563
2169.7474449381552 1712.1932176238206
2170.367979243778 1632.0097842589773
2170.9883639871823 2151.9231814683003
2171.608599203293 1776.9283979048419
2172.2286849270276 2252.458361296704
2172.8486211932886 2415.999967684643
2173.4684080369625 2018.5675348882778
2174.0880454929265 1651.7111180703857
2174.7075335960417 1497.8971613820727
2175.3268723811543 1481.910673326523
2175.9460618831 1465.9056603114582
2176.565102136701 1874.8621052056508
2177.1839931767627 1844.7942459530605
2177.802735038078 1814.6734187787486
2178.421327755432 1779.8092592579735
2179.0397713635866 1703.4966138838408
2179.658065897298 1863.1609856178707
2180.276211391305 2154.091800135764
2180.8942078803357 1868.983457493324
2181.5120553991 1924.683483382791
2182.129753982299 1580.8754920726199
2182.7473036646206 1992.076837119706
2183.3647044807367 2041.3977390602038
2183.9819564653044 2113.112718159839
2184.599059652968 2185.0738254311414
2185.216014078367 1992.1915405664713
2185.832819776113 1509.7894592905025
2186.4494767808137 1642.6860253720765
2187.065985127063 1775.7373263359113
2187.682344849436 1712.4420862181566
2188.298555982501 1791.937972888639
2188.9146185608097 1871.456704873297
2189.530532618901 2042.7409481991363
2190.1462981912937 2011.7679368389388
2190.761915312507 1986.2499614921076
2191.377384017036 1805.5412024759364
2191.9927043393654 1898.5400114240742
2192.6078763139667 1439.2629432417398
2193.2228999753006 1622.3326084481396
2193.837775357808 1805.8006294218187
2194.452502495922 1547.6442220545846
2195.0670814240602 1951.9456744164022
2195.6815121766285 1532.9587066899282
2196.2957947880186 1559.8945110793088
2196.9099292926057 1586.890120273885
2197.523915724758 1936.4939225295311
2198.137754118825 1737.5310831409138
2198.7514445091456 2126.7654045458694
2199.3649869300443 1886.3323750986751
2199.9783814158327 2308.5747664622127
2200.5916280008096 2611.5661165623187
2201.2047267192593 2225.638785384218
2201.8176776054515 1970.5122142825335
2202.430480693649 1770.301801850359
2203.0431360180955 2128.502123901414
2203.6556436130195 2263.5555943889117
2204.268003512645 2086.089890526638
2204.8802157511727 1908.2305055299457
2205.492280362796 2129.0703623294376
2206.1041973816937 1962.798133095005
2206.715966842032 1903.9892160176903
2207.3275887779655 2020.4233443988323
2207.93906322363 1823.4536042749019
2208.550390213153 2091.6439002924308
2209.1615697806465 2230.4356670716106
2209.7726019602105 1781.0789114951506
2210.3834867859277 1423.8666442781473
2210.9942242918787 1752.2430482210832
2211.6048145121167 1996.02485634118
2212.2152574806914 2502.7916299216686
2212.825553231638 1861.9803828192714
2213.435701798975 2493.7812428959824
2214.045703216707 1868.2670592388963
2214.655557518832 1559.4493757644514
2215.2652647393297 1548.0827910401017
2215.874824912169 1393.582158780308
2216.4842380713 2011.829405161598
2217.09350425067 1547.712832927216
2217.7026234842033 2212.0145089076073
2218.311595805819 2126.374439784326
2218.9204212494133 1897.6233341567627
2219.52909984888 2179.9720875423313
2220.137631638092 1605.585239560312
2220.7460166509154 2244.6494110856647
2221.354254921198 1693.3319238591662
2221.9623464827764 1946.0689498597724
2222.5702913694713 1827.205241504261
2223.178089615096 2181.179510909267
2223.7857412534486 1839.2442603120621
2224.39324631831 1486.5776820320712
2225.000604843457 1598.9390132450994
2225.607816862641 2147.2344452419793
2226.214882409611 1984.3149868423206
2226.8218015180973 1969.8749959080862
2227.4285742218217 1989.9712302755906
2228.0352005544864 1805.928943235343
2228.6416805497847 1821.4002387300382
2229.248014241399 1836.8437402759216
2229.8542016629945 1575.4689840423407
2230.460242848223 1925.8293258563547
2231.0661378307304 1819.5638751596666
2231.671886644139 1713.224026566469
2232.277489322065 1464.409663674754
2232.8829458981127 1459.531716563366
2233.48825640587 1936.161181919353
2234.0934208789095 2545.8874675599263
2234.6984393507955 2132.4551553847677
2235.3033118550793 2082.9226958312643
2235.9080384252975 1677.4663264483243
2236.5126190949723 1686.0548413147892
2237.1170538976166 1656.7210952565015
2237.721342866729 1465.065531003309
2238.32548603579 1719.4307957654685
2238.9294834382763 1777.9380457558768
2239.533335107646 1818.9252762459898
2240.1370410773434 1889.295566126674
2240.740601380803 1785.0743404050343
2241.3440160514474 1943.6917193868533
2241.9472851226783 2077.6019107603406
2242.550408627896 1980.7266523729145
2243.1533866004793 1871.9393459590574
2243.756219073799 1762.9975970677078
2244.3589060812064 1698.1506786373807
2244.961447656049 1612.542984517178
2245.5638438316564 1900.7725548394428
2246.166094641343 1943.9962394754984
2246.7682001184166 1695.6104078134733
2247.3701602961664 1766.9588836869848
2247.971975207871 2025.4152770190885
2248.5736448867974 1941.97781243502
2249.175169366197 1858.3009327173258
2249.7765486793123 1920.9322392786103
2250.3777828593684 1842.0661199821232
2250.9788719395783 1940.297938366742
2251.579815953146 1920.747330876236
2252.1806149332606 1587.7107533437843
2252.781268913097 1706.6442624646922
2253.381777925817 1641.9349171636034
2253.9821420045737 1877.6420034742998
2254.5823611825035 2052.340638305508
2255.1824354927303 1906.9723558296319
2255.782364968365 1655.118483026002
2256.38214964251 2025.0306308125387
2256.9817895482483 1735.5222781087705
2257.5812847186553 1717.354695429116
2258.180635186791 1657.1484505996948
2258.779840985704 1762.3064843550874
2259.37890214843 1887.256502499506
2259.97781870799 1975.5506817926744
2260.5765906973957 2064.018952591113
2261.175218149645 1973.8124207689896
2261.773701097718 1729.3526824444743
2262.3720395745895 1484.4238500096578
2262.970233613216 1547.6688168620162
2263.568283246548 1548.876814240315
2264.1661885075137 1550.023351184685
2264.763949429038 1640.584302088404
2265.3615660440246 1643.9976234843375
2265.959038385374 1647.4231354835513
2266.5563664859637 2130.299542555598
2267.153550378669 1709.1964379101369
2267.7505900963424 1820.2112628884217
2268.3474856718312 1629.9277150343132
2268.9442371379664 1770.2817316935038
2269.5408445275643 1743.1046973344469
2270.1373078734377 1969.5758036609
2270.7336272083758 1707.0452443355316
2271.32980256516 1647.6012799381547
2271.925833976562 1900.6932962633753
2272.5217214753357 2129.708269884516
2273.117465094223 1667.9717099426186
2273.7130648659586 1651.1598682377003
2274.308520823257 1623.533226913623
2274.903832998827 1903.9358038560317
2275.4990014253563 1794.7589453531352
2276.094026135528 1970.8670865403612
2276.6889071620117 1618.9114959809197
2277.2836445374614 1991.3998041641612
2277.878238294519 1838.2856878015598
2278.472688465812 1639.1591836583993
2279.066995083962 1439.6766561427141
2279.6611581815705 1760.212101609882
2280.255177791232 1646.6801442039505
2280.8490539455233 1856.125775032025
2281.442786677013 2066.029177511019
2282.0363760182554 1962.1253789926523
2282.6298220017943 1668.131510921543
2283.223124660155 2164.171893950589
2283.816284025859 1659.262349049597
2284.4093001314086 2194.0824169040206
2285.002173009292 1586.466087503095
2285.5949026919952 1926.6865711553041
2286.1874892119777 1921.0715034721538
2286.7799326016993 2078.641848153934
2287.3722328936 1606.1865508804285
2287.964390120109 1609.3381735970886
2288.556404313642 2034.3815635556562
2289.1482755066027 2423.796713697327
2289.7400037313873 1831.12912352983
2290.3315890203703 1793.1054258478748
2290.9230314059205 1764.5150249475766
2291.5143309203904 1735.9331423613196
2292.1054875961236 1639.3413024596362
2292.6965014654506 2209.4947528765515
2293.287372560684 1705.9283027609363
2293.878100914131 1777.5549253057484
2294.468686558086 1849.3917477183768
2295.059129524827 1771.900599733731
2295.649429846617 1750.7520914725458
2296.239587555716 1729.5079056715235
2296.8296026843636 1956.2567361596405
2297.419475264791 1820.7768945906137
2298.0092053292137 1684.9317309674784
2298.598792909839 1934.3410069347296
2299.1882380388597 1774.1103064407143
2299.777540748455 1848.268661667862
2300.3667010707904 1922.4085823050286
2300.9557190380256 2120.8662912382783
2301.544594682302 2409.3534070391474
2302.1333280357503 2227.5407779780553
2302.721919130485 2045.5719259202456
2303.3103679986198 2341.06414208102
2303.898674672242 2234.906584451016
2304.486839183437 2091.008959791059
2305.0748615642697 1947.1058473587473
2305.6627418468015 1908.7951869743235
2306.2504800630704 1673.4591781700005
2306.8380762451143 1811.2164222466847
2307.425530424949 1896.6814206448591
2308.012842634582 1982.3278081578596
2308.6000129060103 2143.6107608647158
2309.187041271214 1898.3029738795335
2309.773927762164 1652.464024626329
2310.3606724108213 2115.268313609735
2310.9472752491274 1571.650978864681
2311.5337363090184 1826.6161991073282
2312.120055622414 1887.7294161916004
2312.706233221221 1989.9115153520675
2313.2922691373424 2168.515864785169
2313.8781634026564 1580.5909511780217
2314.463916049037 1796.8577827756442
2315.049527108342 2099.9543030160157
2315.6349966124235 2408.669972086827
2316.2203245931123 2106.5274508209786
2316.8055110822315 1947.2042753412836
2317.3905561115935 1787.4833955730242
2317.9754597129977 1713.3945879943665
2318.560221918229 1690.4821505198063
2319.1448427590603 1667.5545472251627
2319.729322267256 1579.9123550151808
2320.313660474563 1751.360690692914
2320.8978574127195 2014.8533442869198
2321.481913113452 2279.1437783836823
2322.0658276084705 1796.8091222045957
2322.6496009294806 1682.4005562812806
2323.233233108165 1806.9342054761776
2323.8167241762058 1956.9192942702084
2324.4000741652617 1852.2166978937955
2324.983283106987 1948.7000520818667
2325.5663510330232 1898.908277994111
2326.1492779749933 1848.7797417010302
2326.7320639645204 2012.364672208258
2327.3147090332004 1764.3919306346465
2327.897213212629 1800.2795597623299
2328.4795765343843 1836.0794543454965
2329.0617990300307 1627.6235427841318
2329.643880731124 2296.7005541348985
2330.22582166921 1842.9982471841454
2330.807621875816 1719.8961312974138
2331.3892813824623 1596.7438100950874
2331.9708002206517 1562.5725528506096
2332.5521784218818 1647.3255537217774
2333.133416017634 1732.3241029595588
2333.7145130393765 1708.6258860799458
2334.295469518571 2064.839600192029
2334.876285486658 2261.528264593266
2335.456960975076 2305.866097148798
2336.037496015242 2350.342976223218
2336.6178906385667 1950.873769169621
2337.198144876451 2066.232929211566
2337.778258760278 1862.819054664075
2338.3582323214214 1867.5808132453542
2338.938065591243 1872.3067486426123
2339.517758601087 2246.195854571369
2340.0973113822965 2071.141440208042
2340.676723966193 2021.5605766150068
2341.255996384094 1781.893203761841
2341.835128667295 1966.9219441385217
2342.4141208470883 1929.125986290377
2342.992972954751 1887.7961437468784
2343.5716850215467 1962.5228156526186
2344.1502570787306 1770.951470511036
2344.7286891575386 1578.9245758037925
2345.3069812892045 2023.629650736763
2345.885133504944 2108.7574246633876
2346.4631458359618 1723.7362547772154
2347.04101831345 1416.4813793694334
2347.6187509685915 1494.9477679994493
2348.196343832553 1573.4820017788402
2348.7737969364935 1890.3836820561453
2349.351110311558 1533.5074882446656
2349.9282839888765 1595.690387866165
2350.5053179995757 1483.1277026901557
2351.0822123747585 1456.2427395449515
2351.658967145526 2074.0488032195017
2352.2355823429643 1321.9338468310175
2352.812057998144 1988.2730074741744
2353.3883941421263 1580.9218004289066
2353.9645908059647 1798.829212320949
2354.540648020693 1659.9199963486858
2355.116565817336 1901.3938469707125
2355.6923442269126 1636.2194362094544
2356.2679832804224 1797.8499901804075
2356.8434830088518 1716.6822368060105
2357.41884344318 1644.1224774248778
2357.994064614377 1895.5423903836931
