#exp_cfg={"servo_angle": 0.0, "laser_lim": 100.0, "servo_angle_to": 18.0, "laser_wup": 0.0, "bt_dev": "EnSpectr-25AE3", "laser_wdn_max": 0.0, "frames": 10.0, "servo_used": 0, "servo_calib_use": 0, "laser_wdn_min": 0.0, "servo_pix_from": 90.0, "cooler_tout": 300.0, "servo_angle_from": 0.0, "servo_calib": "[-1.9174921013161362e-09, 3.9322238269163779e-05, -0.27385609119055809, 653.59552119713567]", "laser_autoctl": 0, "servo_pix_to": 3682.0, "laser_pw": 100.0, "cooler_on": 0, "laser_volt": 4.0, "cooler_autoctl": 0, "cooler_curr": 70.0, "cooler_startup": 10.0, "laser_fixed_pw": 0, "gain": 1.3, "offset": 2.53059635486, "servo_calib_degree": 3.0, "laser_curr": 55.0, "shutter": 8200.0, "servo_calib_step": 1.0, "laser_fixed_curr": 0, "exp": 2000.0, "ccd_volt": 4.7, "bt_addr": "00:06:66:62:5A:E3", "servo_delay": 500.0, "laser_autooff": 1}
#proc_cfg={"flat_auto_wnd": 200.0, "flat_auto_fr": 200.0, "flat_auto_shift": 5.0, "yconv": 1, "flatten": 1, "flatten_strength": 100.0, "xfrom": 300.0, "auto_max_frame": 2000.0, "auto_signal": 48000.0, "flat_auto_tol": 0.1, "autoclip": 1, "xrel_range": 0.0, "flat_auto_to": 4000.0, "intensity_adj": 1.0, "xrel": 7852.0, "rmhot": 1, "flat_auto_slit": 4.999999999999997, "auto_ini_exp": 300.0, "auto_off": 0, "xto": 2860.0, "flat_auto_ref": "", "flat_auto_rank": 1, "autobackg": 0, "xrel_adj": 0.0, "auto_black_lvl": 1, "base_wnd": 100.0, "sub_baseline": 0, "xconv": 2, "auto_max_exp": 1000.0, "auto_total_exp": 10000.0, "auto_exp": 0, "rmripple": 0, "black_lvl": 8274.4875, "shutter_clip_adj": 0.0, "auto_bckg": 0, "flat_auto_thr": 0.9, "subbackg": 1}
316.8218498245369 28727.857836647658
317.89969571804795 28508.14541639539
318.977263876126 28500.6650125277
320.05455438786703 28324.977369798842
321.1315673423287 28134.336262273242
322.2083028285215 28274.31161744463
323.2847609354267 28008.18625734708
324.3609417519747 27927.067562055832
325.43684536705587 27765.067554068508
326.5124718695279 27784.94661487112
327.58782134820103 27707.99200904552
328.66289389184385 27719.09613152538
329.7376895891921 27533.87184132695
330.8122085289342 27376.547996439353
331.88645079971866 27340.072740659012
332.9604164901575 27308.632464048267
334.03410568881554 27274.89665888045
335.1075184842266 27411.356211045582
336.18065496487543 27131.340321495205
337.2535152192122 27066.30979827814
338.32609933564163 27024.341989580436
339.39840740253203 26995.271831702157
340.4704395082099 26789.817366470455
341.5421957409617 26760.65742477833
342.6136761890357 26983.939916059997
343.6848809406365 26785.951676918437
344.75581008392874 26685.180059109203
345.82646370703696 26557.817582769138
346.8968418980512 26415.730418139497
347.96694474501055 26607.1090811813
349.0367723359268 26520.02071448888
350.106324758759 26460.274318334814
351.1756021014353 26288.508616109146
352.2446044518383 26373.758033279853
353.31333189781435 26416.309972054958
354.38178452716966 26297.42842953428
355.449962427665 26161.284093754402
356.51786568702846 26198.762923103786
357.58549439294256 26375.651917531977
358.6528486330535 26252.99658076298
359.71992849496564 26123.648942028558
360.7867340662433 26147.661235004576
361.8532654344144 26164.445007660266
362.9195226869597 26328.084640780762
363.9855059113288 26124.682287974923
365.05121519492604 25982.153737377907
366.11665062511565 26085.575238287223
367.1818122892273 26046.257204550908
368.2467002745434 26106.093277175314
369.31131466831175 26085.590255828098
370.375655557742 26081.719863708342
371.4397230299983 25979.281479383637
372.5035171722102 25881.79184398357
373.5670380714637 25996.174233763937
374.6302858148101 26024.163365653476
375.6932604892554 25962.307575627958
376.7559621817709 25922.321871233486
377.81839097928605 25827.085983058154
378.8805469686886 25847.43538580616
379.94243023683157 25977.87001423716
381.0040408705263 25817.481718136532
382.0653789565458 25811.594197358998
383.1264445816196 25815.678799632027
384.1872378324406 25819.599694883575
385.2477587956637 25795.665578081775
386.3080075579037 25596.698537436627
387.3679842057336 25580.929800915095
388.4276888256918 25611.85887087229
389.48712150426945 25683.821658861798
390.54628232792857 25627.61699989415
391.6051713830857 25650.50779695912
392.66378875611736 25668.68601762973
393.7221345333637 25603.306284140242
394.7802088011249 25628.543371133663
395.838011645661 25711.15772224584
396.89554315319765 25645.950163106005
397.9528034099112 25603.350632659065
399.00979250194723 25555.19993856925
400.06651051541485 25468.201272043363
401.1229575363741 25604.067303262662
402.17913365085224 25448.41456721187
403.23503894483656 25350.699461265092
404.2906735042761 25230.971821853
405.3460374150818 25120.121353545226
406.401130763119 25036.127690823956
407.455953634224 25065.45030108585
408.5105061141876 24941.678069618945
409.56478828876243 24739.250420986144
410.6188002436629 24693.211117002396
411.6725420645689 24724.031018477635
412.72601383711117 24728.5108229306
413.77921564689314 24898.119667338127
414.8321475794728 24542.226691409385
415.88480972036814 24463.350057815842
416.93720215506437 24474.811799841722
417.9893249690049 24407.872635080905
419.04117824759123 24280.095145846855
420.09276207619223 24310.421749252637
421.144076540133 24315.901097198628
422.1951217247042 24215.796034701885
423.24589771515275 24359.512696284077
424.2964045966928 24198.515075082294
425.34664245449494 24295.800776325697
426.3966113736933 24170.619628353088
427.4463114393875 24122.2698880034
428.49574273662984 24163.52150785219
429.5449053504417 23995.114554750602
430.5937993658026 24146.520980778605
431.6424248676558 24086.532599798207
432.6907819409007 24142.42313447754
433.73887067040596 24200.67138111757
434.7866911409965 24180.512321542203
435.8342434374608 24193.63707897072
436.88152764455117 24155.26189000321
437.9285438469724 24149.33042377441
438.9752921294057 24085.205446004376
440.02177257648145 24174.3424291023
441.06798527279716 23991.009722696705
442.1139303029122 24243.91500055721
443.1596077513459 24101.09599246372
444.2050177025794 24052.01350088204
445.25016024105753 23926.451991492875
446.2950354511886 23883.8935973025
447.33964341733736 23775.143723230605
448.383984223834 23700.64582158117
449.4280579549686 23711.704844285516
450.471864694995 23738.74132038051
451.5154045281306 23753.414941595052
452.5586775385509 23697.343132743295
453.60168381039693 23547.98366755838
454.64442342776783 23810.554510314385
455.6868964747264 23650.8421617802
456.7291030353008 23556.261528630574
457.77104319347563 23650.347932018776
458.8127170332027 23508.708812620032
459.854124638392 23535.449017937724
460.895266092919 23696.42106302716
461.93614148061897 23678.73873558769
462.97675088529104 23771.59606432524
464.01709439069236 23743.800390044682
465.0571720805492 23685.327555400036
466.0969840385442 23668.8892226102
467.1365303483253 23779.513182905288
468.17581109350067 23757.564035833384
469.2148263576437 23671.211587503738
470.2535762242878 23657.60268357947
471.29206077693016 23801.878028608677
472.33028009902773 23879.34204758749
473.3682342740012 23988.296573983298
474.40592338523857 24102.34057771234
475.4433475160804 24183.7016660835
476.4805067498364 24116.2375480027
477.51740116978 24000.57788828431
478.5540308591426 24073.80310728119
479.59039590112116 23917.54201060211
480.6264963788726 23781.95220183233
481.6623323755193 23865.914797643432
482.6979039741436 23830.29916968466
483.7332112577915 23982.750477489204
484.76825430947247 23969.192937434433
485.80303321215797 24010.185212126366
486.837548048783 24046.76263404422
487.8717989022425 24163.995333458537
488.90578585539697 23936.023841341867
489.9395089910686 24299.205288486603
490.97296839203955 24006.40042250477
492.00616414106116 23897.341244734038
493.0390963208429 23876.71414914519
494.0717650140559 23996.547204001883
495.10417030333883 23870.77265659612
496.1363122712901 23792.05488122851
497.16819100046814 23650.07135927429
498.1998065734024 23493.55071954788
499.2311590725767 23614.61518483339
500.26224858044407 23531.981546618204
501.2930751794156 23367.70737911831
502.3236389518679 23380.61210387606
503.35393998014115 23211.787713019854
504.38397834653733 23181.913506472945
505.4137541333221 23211.780608110515
506.4432674227228 22975.456740697773
507.4725182969323 23009.38011176347
508.5015068381035 22931.67766445953
509.53023312835467 22942.413952214043
510.55869724976765 22844.075279994966
511.58689928438434 22838.62165548885
512.6148393142121 22671.612082545507
513.6425174212218 22781.22521885274
514.6699336873462 22807.562314603125
515.6970881944835 22922.982441557346
516.7239810244901 22797.765046190692
517.7506122591931 22733.998515061045
518.7769819803761 22780.489923471425
519.8030902697901 22821.772407040804
520.8289372091476 22803.317892528034
521.8545228801249 22939.042644815454
522.8798473643619 22734.634425313165
523.9049107434621 22868.29845490086
524.9297130989908 22714.808308822023
525.9542545124805 22640.609148562326
526.9785350654201 22588.46238264511
528.0025548392696 22546.963654436502
529.0263139154504 22444.89062220791
530.0498123753423 22560.18934989674
531.073050300296 22459.287864393747
532.0960277716204 22365.287770031813
533.1187448705896 22446.747207122186
534.1412016784416 22479.82883727035
535.1633982763833 22347.502204391312
536.1853347455726 22289.012296988516
537.2070111671401 22205.352621576192
538.2284276221817 22210.15842819005
539.2495841917516 21984.587053803185
540.2704809568677 21928.401225484376
541.2911179985167 21966.634183492206
542.3114953976419 21769.56224916302
543.3316132351592 21782.787237109347
544.3514715919409 21640.993782859012
545.3710705488247 21714.81750106187
546.3904101866156 21585.373654959323
547.4094905860784 21620.944735023957
548.4283118279418 21614.16740676187
549.4468739929034 21519.299310576702
550.4651771616191 21527.49544048463
551.4832214147063 21445.4255704677
552.501006832761 21535.422976591304
553.5185334963226 21469.77995037915
554.5358014859103 21567.215864548813
555.5528108820035 21400.770198236052
556.5695617650363 21331.85428430954
557.5860542154242 21519.067620109814
558.6022883135283 21440.388423065837
559.6182641396881 21293.079440241894
560.6339817741991 21321.99643845027
561.6494412973225 21445.462821498728
562.6646427892883 21431.244753107057
563.6795863302796 21403.633338863176
564.694272000459 21413.855643389754
565.7086998799423 21517.727683017598
566.7228700488104 21326.432418357654
567.7367825871115 21362.996333248644
568.7504375748576 21371.661578368123
569.7638350920224 21362.315596842272
570.7769752185486 21411.014057544584
571.7898580343353 21338.98928195394
572.802483619258 21370.678635485114
573.8148520531431 21589.73646585327
574.8269634157932 21362.64924336597
575.8388177869692 21400.593343239885
576.8504152463938 21376.814213634698
577.8617558737587 21552.785531223773
578.8728397487175 21462.777907141055
579.883666950891 21309.501025357178
580.8942375598654 21439.43229115591
581.9045516551851 21534.266860407984
582.9146093163617 21804.691205518615
583.924410622878 21570.017241984046
584.9339556541727 21461.915863744944
585.9432444896538 21593.07316607597
586.9522772086875 21526.92307746753
587.9610538906127 21644.236025143528
588.9695746147318 21585.631100216553
589.9778394603054 21629.68936903303
590.985848506567 21537.29191868311
591.9936018327098 21674.069678911663
593.0010995178891 21427.954955237023
594.0083416412344 21628.362587798973
595.0153282818283 21517.974923867514
596.0220595187293 21509.23418874615
597.0285354309508 21440.02192335761
598.0347560974806 21424.889207056323
599.0407215972609 21433.510235761794
600.0464320092051 21411.53753394553
601.0518874121954 21309.499132461067
602.0570878850685 21339.23265470159
603.062033506636 21347.929316043454
604.0667243556636 21394.202593184087
605.0711605108936 21230.32816466501
606.0753420510264 21613.08337469033
607.0792690547278 21455.60566095977
608.082941600629 21361.536005419704
609.0863597673306 21344.055275616087
610.0895236333909 21481.481784359297
611.0924332773357 21642.631644697634
612.0950887776617 21656.90286610066
613.0974902128219 21747.70308005677
614.0996376612384 21857.41420394792
615.1015312013005 21968.74787659529
616.1031709113595 21949.047930799243
617.1045568697336 21774.24336138627
618.1056891547069 21948.839872128832
619.1065678445229 21970.52776659091
620.1071930173985 22239.851425250734
621.1075647515099 22044.039110531387
622.1076831250048 22127.550179568803
623.1075482159849 22164.552779312366
624.1071601025305 22208.154044729166
625.1065188626781 22297.204337442447
626.105624574433 22550.4052885633
627.1044773157682 22549.836309244765
628.1030771646128 22492.72974316018
629.1014241988742 22695.485197009002
630.0995184964158 22827.021022150682
631.0973601350688 22813.879308795444
632.0949491926294 23044.1621896705
633.0922857468631 22685.90826879037
634.089369875499 22817.040835203265
635.0862016562278 22792.352334616655
636.0827811667077 22704.227990506413
637.0791084845641 22620.48769314196
638.0751836873878 22492.309570397527
639.0710068527369 22668.870480744186
640.0665780581294 22340.162817246317
641.0618973810506 22264.2890971019
642.0569648989604 22392.5946300571
643.0517806892676 22030.410002354438
644.0463448293649 22141.077163299833
645.040657396592 22031.38092953208
646.0347184682723 21949.951405757536
647.0285281216875 21701.767354340074
648.0220864340772 21841.212221397764
649.0153934826558 21757.106465897356
650.0084493446047 21770.457746826614
651.0012540970674 21610.36937552881
651.9938078171526 21575.076124835447
652.9861105819346 21574.130737563035
653.9781624684565 21638.20107421432
654.9699635537254 21467.230392906942
655.9615139147136 21554.28607355619
656.9528136283589 21443.5899685829
657.9438627715699 21539.95647376435
658.9346614212154 21488.046823453333
659.925209654135 21290.314654573183
660.9155075471263 21497.67564745952
661.9055551769616 21563.262585630157
662.895352620375 21709.289212364507
663.8848999540678 21565.35321557749
664.8741972547068 21393.411847644016
665.863244598926 21423.130044115715
666.8520420633213 21549.452197139828
667.8405897244611 21389.406106401984
668.8288876588758 21075.736188998162
669.8169359430613 21210.313700476996
670.8047346534822 21141.3003545897
671.7922838665672 20950.00976780529
672.7795836587156 20937.264747749214
673.766634106285 21015.85328239398
674.7534352856092 20734.98235750391
675.7399872729766 20724.796033952953
676.7262901446538 20760.166359873627
677.712343976862 20534.937317840446
678.6981488457986 20666.82375941245
679.6837048276229 20453.195627828445
680.6690119984596 20445.201134450133
681.6540704344043 20394.196825903746
682.6388802115107 20292.92039476538
683.6234414058108 20256.58503802942
684.6077540932874 20198.21692605053
685.591818349907 20328.06760948716
686.575634251587 20229.912985049203
687.5592018742263 20066.379148130945
688.5425212936734 19932.084908806595
689.5255925857564 20100.822416540304
690.5084158262707 19942.675755325276
691.4909910909646 19859.462725219975
692.4733184555644 19832.053751611908
693.4553979957618 19793.857170032592
694.4372297872123 19883.362945922352
695.4188139055404 19751.728404715373
696.4001504263324 19557.115436124514
697.3812394251509 19691.06064928179
698.3620809775111 19613.952304328872
699.3426751589104 19521.934998060053
700.3230220448004 19502.03598373109
701.3031217106054 19586.15056174239
702.2829742317172 19585.300541134475
703.2625796834873 19330.85306770669
704.2419381412474 19353.21192516334
705.22104968028 19491.878125916286
706.1999143758458 19463.593872914676
707.178532303169 19383.469253485564
708.1569035374378 19482.432634409368
709.1350281538107 19534.99403179465
710.1129062274158 19414.64533004826
711.0905378333373 19568.59828542696
712.0679230466376 19475.823969825244
713.0450619423427 19537.948653774863
714.0219545954424 19567.79586231944
714.9986010808989 19359.6134890522
715.9750014736292 19406.721472756748
716.9511558485392 19490.4516423815
717.9270642804786 19393.69675991488
718.9027268442787 19404.098513611065
719.8781436147328 19213.420332224494
720.8533146666014 19191.482137857416
721.828240074612 19217.16055571925
722.8029199134635 19228.78909910202
723.7773542578125 19155.320522833517
724.751543182294 19149.229797490923
725.7254867615029 19125.162958354886
726.6991850700015 18987.81639926658
727.6726381823228 19077.874905238557
728.6458461729599 19093.10211887637
729.6188091163858 18995.77638805966
730.5915270870246 19077.457967280792
731.5640001592856 18841.19308728913
732.536228407529 19109.222504560243
733.5082119060917 18985.837766100976
734.4799507292755 18918.2914721277
735.4514449513481 18894.754805762717
736.4226946465496 19041.27656317869
737.3936998890786 19034.153885500386
738.3644607531078 18919.09947476138
739.3349773127793 18948.311568441914
740.3052496421951 19007.244086462655
741.27527781543 18832.369620347257
742.2450619065221 18836.954569409103
743.2146019894826 18811.828867241104
744.183898138288 18948.033945752526
745.1529504268801 18833.505709613386
746.1217589291682 18754.723021203048
747.0903237190341 18646.12015765481
748.058644870318 18631.079209016876
749.0267224568397 18614.567560664113
749.994556552374 18497.343810983253
750.9621472306771 18493.265983811187
751.9294945654583 18587.461486255273
752.8965986304011 18470.931935589884
753.8634594991636 18530.711713145665
754.8300772453586 18565.432999188
755.7964519425768 18501.54265550321
756.762583664371 18440.83111252912
757.7284724842611 18527.02442443427
758.6941184757416 18414.89752981189
759.6595217122667 18427.597021968504
760.6246822672638 18300.55758630874
761.5896002141235 18242.11434602398
762.5542756262093 18308.515839997355
763.5187085768503 18237.731293731176
764.4828991393406 18199.384421334857
765.4468473869474 18148.110949993505
766.4105533929032 18023.254352251213
767.3740172304078 18075.6502357953
768.3372389726283 18101.79069051917
769.3002186926988 17929.979547212926
770.2629564637282 17873.9374390246
771.2254523587872 17939.46403643609
772.1877064509154 17793.30794979668
773.1497188131179 17733.85357880689
774.1114895183728 17664.245657477717
775.0730186396268 17766.223737834993
776.0343062497905 17570.351855240147
776.9953524217381 17595.30162502811
777.9561572283274 17620.43132965625
778.9167207423689 17670.341273360686
779.8770430366476 17460.794931466247
780.8371241839159 17513.968503583168
781.7969642568951 17493.376111132828
782.7565633282757 17774.871561920674
783.7159214707099 17438.392730438758
784.6750387568281 17540.27872891601
785.6339152592227 17360.304689912486
786.5925510504512 17327.06088183501
787.5509462030477 17258.98174657992
788.5091007895098 17350.581015770465
789.4670148823006 17279.86705540819
790.4246885538596 17330.130616659015
791.3821218765861 17306.720702703376
792.3393149228505 17152.80084145179
793.2962677649975 17343.57296426872
794.2529804753303 17473.89294971724
795.20945312613 17377.0201159677
796.1656857896378 17151.77144807214
797.1216785380675 17036.661122852216
798.0774314435985 17371.42856168277
799.0329445783846 17383.007501446853
799.9882180145414 17407.607640739305
800.9432518241574 17249.761801091947
801.89804607929 17350.80526611443
802.852600851962 17418.483513710707
803.8069162141637 17389.0974550623
804.760992237856 17273.456759653185
805.714828994971 17392.762768457185
806.6684265574077 17447.514954638486
807.6217849970271 17179.70773324709
808.574904385674 17290.10343533558
809.527784795142 17341.286711110086
810.4804262972102 17460.829654092788
811.4328289636178 17189.946715160033
812.3849928660748 17140.078486932012
813.3369180762638 17014.302964432816
814.2886046658241 16935.34586823062
815.2400527063783 16983.052343200412
816.1912622695108 16877.331601001213
817.1422334267718 16776.717308734373
818.0929662496856 16810.189360415003
819.0434608097457 16670.80401694915
819.9937171784059 16641.11415069042
820.9437354271013 16576.37976976153
821.8935156272255 16686.3671957902
822.8430578501484 16505.80976511434
823.7923621672016 16332.982745143436
824.7414286496896 16506.17892641721
825.6902573688876 16555.49827845126
826.6388483960363 16469.013650081826
827.5872018023492 16269.323959262649
828.5353176590033 16392.886262643795
829.4831960371503 16298.847874700645
830.4308370079016 16247.989160611085
831.3782406423525 16226.031374566464
832.3254070115545 16276.532884096081
833.2723361865319 16103.693155718112
834.2190282382799 16041.813972513735
835.1654832377644 16102.913139750806
836.1117012559116 16061.367540807234
837.0576823636256 16130.40703259774
838.003426631778 15968.746938750151
838.9489341312074 15861.818996567794
839.8942049327197 16130.055093097904
840.8392391070975 16067.294402803764
841.7840367250865 16013.48541622296
842.7285978573982 15980.907819887929
843.672922574724 16025.255431966852
844.6170109477152 15894.173217139527
845.560863046996 15830.270884396843
846.5044789431595 15894.196771774785
847.4478587067697 15799.787289576994
848.3910024083561 16074.680587739893
849.333910118421 15872.336798467924
850.2765819074339 15766.141011745125
851.2190178458332 15955.443296054082
852.161218004032 15866.22406092608
853.1031824524016 15837.797648206271
854.0449112612987 15825.829751713714
854.9864045010327 15853.618378882118
855.9276622418947 15673.98528823954
856.8686845541379 15715.322643106032
857.8094715079915 15793.49399276332
858.7500231736467 15809.81550424775
859.690339621271 15673.867442331466
860.6304209209939 15690.148376251444
861.5702671429244 15492.774232088701
862.5098783571284 15647.399741044113
863.4492546336569 15608.703418129273
864.3883960425155 15619.583442288122
865.3273026536863 15514.995352537098
866.2659745371238 15536.350292533247
867.2044117627465 15690.817833938374
868.1426144004472 15572.626028344705
869.0805825200823 15492.998839353322
870.0183161914847 15668.747210583737
870.9558154844526 15654.978892103038
871.8930804687552 15690.961560942897
872.8301112141307 15529.560264385485
873.7669077902865 15671.705638310497
874.7034702669062 15815.304915759607
875.6397987136315 15632.484639955368
876.5758932000863 15743.219113554358
877.5117537958522 15786.908535257884
878.4473805704911 15680.963449025303
879.3827735935283 15688.602960466273
880.3179329344603 15812.710088905817
881.2528586627541 15987.939894846888
882.1875508478479 15940.533518334687
883.1220095591489 15616.113095054994
884.0562348660296 15539.14198120962
884.9902268378391 15738.266878601338
885.9239855438955 15633.773205223795
886.8575110534839 15566.362653673612
887.7908034358588 15618.539168278901
888.7238627602474 15605.332284483331
889.6566890958475 15535.085042423645
890.5892825118208 15357.881520697638
891.5216430773125 15370.549380293867
892.4537708614189 15455.82082722307
893.3856659332196 15306.853433451548
894.3173283617652 15260.341675148564
895.2487582160684 15209.490630629516
896.179955565116 15208.024149762592
897.110920477864 15092.452607672694
898.0416530232451 15103.180198312508
898.9721532701478 15055.689039911082
899.9024212874428 15213.044347430503
900.8324571439662 14947.069049927391
901.7622609085302 15054.66523748966
902.6918326499072 14835.384684479857
903.6211724368477 15089.604313073494
904.5502803380696 15022.245890405897
905.4791564222614 15132.352782270342
906.4078007580792 14874.15731238384
907.3362134141571 14949.715460214516
908.2643944590909 15041.978874503708
909.1923439614493 14806.133668001776
910.1200619897754 14827.494869459126
911.0475486125779 14972.348754744653
911.9748038983344 14906.080670594722
912.9018279155007 14841.088191175648
913.8286207324982 14689.719773129817
914.7551824177117 14891.836886512203
915.6815130395116 14780.577956685669
916.6076126662283 14715.88638042153
917.533481366163 14786.898133851111
918.4591192075914 14825.546665494627
919.3845262587565 14949.782294773293
920.3097025878706 14776.040942196345
921.2346482631237 14791.84100616261
922.1593633526682 14769.009027968805
923.0838479246304 14788.744871569364
924.0081020471061 14912.194786154538
924.9321257881656 14573.64962007592
925.8559192158464 14692.030631710251
926.7794823981512 14593.727952056473
927.7028154030686 14647.876837438662
928.6259182985414 14603.886464473195
929.5487911524906 14788.265134271434
930.4714340328119 14753.81463907663
931.3938470073608 14399.987084072292
932.3160301439748 14594.125329178883
933.2379835104548 14562.926206483051
934.1597071745709 14694.974947966708
935.0812012040769 14658.69420569636
936.002465666681 14584.898900751568
936.9235006300696 14653.225498248958
937.8443061619055 14552.812656629641
938.7648823298077 14414.012182474087
939.6852292013809 14425.0998350173
940.6053468441951 14615.695273955596
941.5252353257874 14366.059516553516
942.4448947136698 14446.439166689026
943.364325075323 14427.370410842192
944.2835264782043 14446.98288241238
945.2024989897309 14468.115288086075
946.1212426773054 14475.045092507393
947.0397576082851 14517.397941222673
947.9580438500125 14695.479835840513
948.8761014697939 14553.328854558533
949.7939305349064 14630.418804923867
950.7115311125999 14380.767909819373
951.6289032700952 14503.38872221431
952.5460470745875 14514.967865531164
953.4629625932339 14553.758859266414
954.3796498931715 14557.44853741094
955.2961090415029 14534.307399465479
956.2123401053068 14511.923303718297
957.1283431516276 14541.194573793375
958.0441182474842 14483.514417831984
958.9596654598663 14700.689849537055
959.8749848557309 14407.417945314033
960.7900765020167 14385.788998231186
961.7049404656209 14432.4658830309
962.6195768134185 14518.739621058889
963.5339856122537 14549.073715837305
964.4481669289453 14547.977973163923
965.3621208302793 14435.420094613892
966.2758473830145 14489.20815138397
967.1893466538822 14530.260385804952
968.1026187095813 14506.652168143348
969.0156636167867 14306.585557886856
969.9284814421426 14511.151594008266
970.8410722522622 14347.833580572962
971.753436113735 14361.330686494894
972.6655730931161 14321.875092710194
973.5774832569368 14411.187126908737
974.4891666716958 14297.82344483886
975.4006234038698 14372.155921749873
976.3118535198955 14239.66702061699
977.2228570861935 14428.09836333652
978.1336341691494 14395.49494101276
979.0441848351202 14288.965406938903
979.9545091504333 14428.913576723318
980.864607181391 14465.619299527718
981.7744789942699 14352.41964687079
982.6841246553086 14437.444517868198
983.5935442307236 14377.342741037824
984.5027377867027 14436.928779882113
985.4117053894024 14358.875979092254
986.3204471049557 14354.140534841103
987.2289629994648 14363.280310710132
988.1372531390007 14516.086917335657
989.0453175896091 14382.726175884807
989.9531564173067 14441.300214477416
990.860769688079 14334.304872338613
991.7681574678918 14407.603512909112
992.6753198226706 14431.010117738662
993.582256818323 14380.855276444028
994.4889685207218 14386.932067007147
995.3954549957143 14705.859168742838
996.301716309119 14652.425243536054
997.2077525267232 14470.094305052635
998.1135637142943 14327.236653616603
999.0191499375615 14504.388731006062
999.924511262232 14433.387356127725
1000.8296477539861 14536.265395409911
1001.7345594784656 14296.056766429121
1002.6392465012996 14287.351369488495
1003.5437088880753 14435.885977660684
1004.4479467043584 14333.709895079912
1005.3519600156869 14054.061013443197
1006.2557488875718 14317.34752462975
1007.1593133854858 14208.22670767218
1008.0626535748888 14109.088336559322
1008.9657695212009 13927.080640949556
1009.8686612898182 14310.994669672236
1010.7713289461135 14264.022371097952
1011.6737725554212 14228.514864640423
1012.5759921830577 14168.067737284951
1013.4779878943027 14177.134994507938
1014.379759754418 14160.116045183091
1015.2813078286254 14065.815755557933
1016.18263218213 13961.815009099315
1017.0837328801026 14152.861082248908
1017.9846099876886 14131.718079343938
1018.8852635700023 14036.16889561482
1019.7856936921362 13876.109521346641
1020.6859004191447 14137.974969857027
1021.5858838160675 13931.152720983568
1022.4856439479063 13924.2646501206
1023.3851808796389 13832.834111959679
1024.2844946762143 14108.918533153983
1025.183585402554 13932.641203899519
1026.082453123554 13805.9332792968
1026.9810979040776 13910.712400264732
1027.8795198089647 13861.922645951365
1028.777718903024 14006.840172680571
1029.6756952510368 13895.513783921566
1030.5734489177648 13862.179167006918
1031.4709799679313 13969.181900029096
1032.3682884662358 14038.92479178275
1033.2653744773506 13880.596860953747
1034.1622380659192 13863.030922924692
1035.058879296559 14111.962207794839
1035.9552982338591 14093.710547924706
1036.8514949423825 14064.905037603672
1037.7474694866614 14043.475818153107
1038.6432219312028 14036.403948700166
1039.5387523404825 14358.000265692073
1040.4340607789582 14246.198488384845
1041.3291473110476 14216.06614296347
1042.2240120011465 14386.571731569862
1043.1186549136273 14469.198304872309
1044.0130761128294 14386.328712941307
1044.9072756630649 14509.23717260121
1045.8012536286205 14724.207071699226
1046.6950100737577 14619.923335758063
1047.588545062701 14969.718624787256
1048.481858659663 14788.12449787675
1049.3749509288118 15074.685091517385
1050.2678219343034 14874.527036285577
1051.1604717402515 14924.336789904724
1052.0529004107575 14814.868726183271
1052.9451080098825 15019.946465395342
1053.8370946016694 14930.884648577587
1054.7288602501267 15041.241560429078
1055.6204050192446 14884.393744920657
1056.511728972977 14966.251989697286
1057.402832175254 14801.384359568498
1058.2937146899785 14687.218265530992
1059.1843765810263 14531.260396751793
1060.0748179122456 14660.49655260311
1060.9650387474576 14460.767695725363
1061.855039150456 14471.152241745614
1062.7448191850071 14271.814635009587
1063.6343789148505 14273.60198485309
1064.5237184037014 14390.741925500435
1065.412837715241 14177.198564399372
1066.3017369131267 13988.596067865223
1067.190416060992 14083.731853326453
1068.0788752224398 13860.707349481145
1068.9671144610438 13958.282512391577
1069.8551338403558 14003.721245374396
1070.7429334239023 14085.390307933258
1071.6305132751695 13816.185466554007
1072.517873457633 13950.278416821331
1073.4050140347335 13786.765056558826
1074.2919350698776 13808.295886712027
1075.1786366264623 13918.226083650745
1076.0651187678395 13985.205603863526
1076.95138155735 13725.223960329933
1077.8374250582929 13773.793746838468
1078.7232493339507 13795.902176964973
1079.608854447577 13740.964114449995
1080.4942404623907 13754.63587977696
1081.3794074415982 13814.535093050901
1082.2643554483657 13856.27436705103
1083.149084545841 13707.541241831806
1084.033594797138 13539.720091562267
1084.9178862653516 13619.76487995176
1085.8019590135427 13819.277879071184
1086.6858131047484 13567.29834845968
1087.5694486019802 13615.425669497205
1088.4528655682225 13680.23543500905
1089.3360640664287 13773.505863043587
1090.2190441595321 13752.348125442057
1091.1018059104317 13643.66520627377
1091.98434938201 13782.949233206533
1092.866674637111 13772.070417435727
1093.748781738559 13677.418121433715
1094.6306707491512 13469.127822908262
1095.5123417316554 13612.198654339736
1096.3937947488157 13465.69113046253
1097.2750298633455 13560.139874639517
1098.156047137938 13423.189813803561
1099.0368466352556 13621.891920488852
1099.9174284179317 13683.104137388862
1100.7977925485757 13417.278556698056
1101.6779390897755 13372.416777037133
1102.5578681040806 13593.613072910666
1103.4375796540226 13641.182334740657
1104.3170738021054 13476.961243952854
1105.1963506108077 13396.765537589037
1106.0754101425773 13389.729446983427
1106.9542524598382 13534.545941263303
1107.8328776249855 13430.509752875969
1108.7112857003904 13357.472208928764
1109.5894767483987 13456.064943397814
1110.4674508313292 13555.756604699951
1111.3452080114657 13414.544368524896
1112.2227483510815 13476.290942287242
1113.1000719124077 13483.770290313687
1113.9771787576592 13682.59904560971
1114.854068949022 13478.576869660683
1115.7307425486542 13597.23390903547
1116.6071996186893 13649.52217613348
1117.483440221229 13936.907595886758
1118.3594644183577 13509.679491421412
1119.235272272128 13510.063232863095
1120.1108638445658 13866.431478624256
1120.9862391976712 14007.648349947374
1121.8613983934229 13949.563427076873
1122.7363414937627 13746.918725745087
1123.6110685606182 13846.496927293596
1124.485579655884 13923.773989460682
1125.359874841426 13985.510790759741
1126.2339541790916 13881.914825583943
1127.1078177306936 14093.280899503423
1127.9814655580267 13878.52288134969
1128.854897722851 14010.914179727339
1129.7281142869106 13975.020130220908
1130.6011153119125 14093.787587918176
1131.473900859548 14111.414066023144
1132.3464709914697 14081.930582027597
1133.2188257693178 13925.00176364771
1134.0909652546961 13806.30738166926
1134.96288950919 13807.477397980056
1135.8345985943506 13996.416109009142
1136.7060925717087 13675.33778655482
1137.57737150277 13830.104671585586
1138.4484354490069 13909.156675588445
1139.3192844718778 13802.975322330018
1140.1899186327992 13551.556944183694
1141.060337993178 13781.07553716487
1141.930542614382 13616.643250116607
1142.8005325577597 13705.634211064327
1143.670307884635 13529.335307260724
1144.5398686563003 13616.364504296394
1145.409214934025 13565.502667713048
1146.2783467790541 13273.496347801905
1147.1472642526023 13465.371145422843
1148.0159674158622 13653.18275588901
1148.8844563300026 13352.796546015801
1149.7527310561618 13440.397552840997
1150.6207916554504 13222.210423970897
1151.4886381889592 13274.639609185193
1152.3562707177498 13395.32947729604
1153.2236893028585 13408.072578655814
1154.090894005296 13180.788283678503
1154.9578848860474 13365.388891534745
1155.8246620060709 13239.7301150129
1156.6912254262988 13180.516682152598
1157.5575752076438 13179.92056527193
1158.42371141098 13304.212320142658
1159.2896340971656 13331.089345704275
1160.1553433270346 13321.96233153273
1161.0208391613887 13273.83917843824
1161.8861216610057 13243.967913506805
1162.75119088664 13219.152473452588
1163.6160468990201 13062.2257145244
1164.4806897588442 13068.237380369288
1165.3451195267917 13177.952175184479
1166.2093362635114 13281.329107728045
1167.0733400296285 13266.55198890871
1167.9371308857444 12971.98486662065
1168.8007088924278 13184.385368312525
1169.6640741102328 13168.973291817534
1170.5272265996773 13075.793546809384
1171.390166421259 12844.887646826826
1172.252893635452 13203.20406730237
1173.1154083026995 13187.213320334853
1173.977710483421 13307.717340362951
1174.8398002380145 12967.997572561202
1175.7016776268483 13183.610534562153
1176.563342710264 13030.961488210456
1177.4247955485826 13014.570021232135
1178.2860362020947 13136.201887034787
1179.147064731069 13074.007359399113
1180.0078811957483 13121.143020188782
1180.8684856563486 13058.064066711408
1181.7288781730604 13126.793806913232
1182.589058806052 13241.114469646674
1183.4490276154593 13348.129879282595
1184.3087846614017 13171.948770430556
1185.1683300039676 13052.837937684952
1186.027663703222 13359.752459109388
1186.8867858192025 13194.47164536847
1187.7456964119228 13268.696025276417
1188.6043955413716 13227.446837329906
1189.4628832675116 13384.108739270421
1190.3211596502842 13440.403687747817
1191.179224749596 13412.920611394491
1192.0370786253388 13099.008876147895
1192.8947213373758 13576.639730794626
1193.7521529455407 13597.970163282353
1194.6093735096438 13166.925318183788
1195.466383089477 13281.66570132823
1196.3231817447977 13315.5619535934
1197.1797695353398 13465.668294442052
1198.0361465208189 13229.699680049473
1198.8923127609214 13305.50171579745
1199.7482683153048 13464.779702525371
1200.6040132436028 13527.72682613751
1201.459547605431 13369.482554441736
1202.3148714603722 13401.848167694901
1203.1699848679855 13413.672008292448
1204.0248878878065 13444.546893722983
1204.8795805793507 13176.44606398775
1205.7340630020935 13342.71773397355
1206.5883352155033 13484.782029355294
1207.4423972790064 13401.955772248239
1208.2962492520237 13236.42211154669
1209.1498911939307 13322.939878315974
1210.0033231640937 13434.678739981106
1210.8565452218427 13305.951849921945
1211.7095574264913 13106.405324960557
1212.5623598373222 13110.47080715832
1213.4149525135963 13166.732421384466
1214.2673355145507 13219.251006963323
1215.1195088993936 13138.368606068427
1215.9714727273113 13015.2790188038
1216.8232270574663 13371.754732945163
1217.6747719489904 13012.603975093149
1218.5261074609934 13020.145005026403
1219.3772336525653 13106.69618902346
1220.2281505827668 13206.684757838719
1221.0788583106296 13136.560735557021
1221.9293568951707 12973.077826780102
1222.7796463953746 12840.579533351209
1223.629726870202 13158.437654914116
1224.4795983785934 13114.58260270111
1225.3292609794553 13045.407204825167
1226.1787147316809 12828.69509335832
1227.0279596941327 13022.42203471421
1227.8769959256424 12841.64738459502
1228.7258234850306 13150.888216021296
1229.5744424310833 12773.530554970768
1230.422852822563 13147.390569363128
1231.2710547182105 13163.496709006551
1232.119048176739 13053.056341419277
1232.9668332568417 12822.300527726908
1233.8144100171812 12988.466801244995
1234.6617785163999 13118.326806288042
1235.508938813111 12802.126115418061
1236.3558909659114 12965.295842681215
1237.2026350333617 13097.1189654374
1238.049171074008 12983.320800074736
1238.8954991463652 12904.14696719022
1239.741619308932 12826.237590012164
1240.587531620169 11844.447330968227
1241.4332361385277 12860.965946329206
1242.2787329224248 12844.147727516274
1243.1240220302534 12739.122276695165
1243.9691035203869 12832.845421394506
1244.813977451171 13104.678421764906
1245.6586438809263 12925.511918513688
1246.5031028679496 12548.812677113465
1247.3473544705157 12928.935410108967
1248.1913987468706 12870.342833332987
1249.0352357552383 12574.550035639542
1249.8788655538228 12732.134460860572
1250.7222882007918 12971.974461342015
1251.565503754302 12972.38388349902
1252.4085122724755 12819.373783155905
1253.2513138134182 13043.224852524394
1254.0939084352049 12949.00890247745
1254.9362961958905 12888.995397995826
1255.7784771535007 12905.452994452073
1256.6204513660432 12816.111411975387
1257.4622188915 13166.83666679871
1258.3037797878242 13018.4431973598
1259.1451341129468 12907.663321234691
1259.9862819247755 13019.448960254173
1260.8272232811978 12990.949629626817
1261.6679582400666 13121.855175518795
1262.5084868592203 12798.041462678415
1263.34880919647 12928.44061292111
1264.1889253095997 13019.636246811115
1265.0288352563712 13109.690521640892
1265.8685390945266 12983.033221433561
1266.7080368817751 12985.141659806046
1267.5473286758115 13200.80883114707
1268.386414534294 13090.403703660788
1269.2252945148703 12860.268735987765
1270.0639686751547 12902.360337006165
1270.9024370727402 12927.22794199269
1271.7406997651997 12823.190467008604
1272.5787568100714 12756.674635203268
1273.4166082648808 12857.805309495205
1274.2542541871244 12945.99853404921
1275.091694634275 13123.993946482191
1275.9289296637817 12757.038617160819
1276.7659593330663 12865.957635030183
1277.6027836995308 12982.987705206007
1278.4394028205552 13128.111673955427
1279.2758167534867 12975.108522592305
1280.112025555658 12861.253247341547
1280.9480292843746 12998.379521951216
1281.7838279969128 12755.788454769743
1282.6194217505326 12876.880352632372
1283.4548106024686 12715.461838297912
1284.289994609926 12896.721954791192
1285.1249738300921 13041.90424556443
1285.959748320127 12946.978890654482
1286.7943181371702 12985.936638701496
1287.6286833383328 13009.998453783188
1288.4628439807038 12934.343771838863
1289.2968001213521 12861.95018754003
1290.1305518173194 12800.564040118581
1290.9640991256183 13031.926085017458
1291.7974421032523 12918.597769993055
1292.630580807183 12791.57909691744
1293.463515294361 12918.179154422744
1294.29624562171 13221.313128948463
1295.12877184613 12903.567108336621
1295.961094024493 12896.197665415559
1296.79321221365 13101.24575155988
1297.6251264704333 13095.004290663355
1298.4568368516466 13292.667629904696
1299.2883434140658 13164.244087429828
1300.1196462144526 12968.175861098349
1300.9507453095375 13238.449041798256
1301.7816407560313 13110.35290812962
1302.6123326106172 13114.375345589453
1303.4428209299622 12989.511843588447
1304.2731057707024 13292.416388255375
1305.1031871894502 12897.058045929387
1305.933065242798 13100.878789556395
1306.7627399873181 12985.569881029853
1307.5922114795467 13394.964678141036
1308.4214797760123 13464.921168150546
1309.2505449332057 13038.635632809652
1310.0794070076026 13138.303478156327
1310.9080660556538 13277.915133169197
1311.736522133786 13050.73539154678
1312.5647752983987 12941.983700605726
1313.3928256058734 12867.514366266096
1314.2206731125661 13146.63389300445
1315.048317874809 13045.269701045125
1315.8757599489109 13093.011202497817
1316.7029993911547 12945.636491179543
1317.5300362578055 13263.581699185932
1318.356870605101 12821.348741332082
1319.183502489257 12951.462815583352
1320.0099319664623 12897.858629663713
1320.836159092889 13256.731582470771
1321.66218392468 12994.228280751264
1322.4880065179532 12896.550536942595
1323.3136269288134 12820.880521995183
1324.1390452133292 13140.220592295675
1324.9642614275563 13136.314566924539
1325.7892756275214 12937.394686050775
1326.6140878692295 12764.429144309415
1327.4386982086617 13379.861846420103
1328.2631067017755 12962.604494405614
1329.0873134045069 13164.295981347803
1329.911318372764 12908.474615083189
1330.735121662441 12894.659335232938
1331.558723329399 12748.64369601767
1332.3821234294774 12875.538634941355
1333.2053220185007 12798.767788284626
1334.0283191522612 12794.090393944569
1334.851114886529 12958.825766073394
1335.6737092770582 12764.42199929837
1336.4961023795695 12672.820731632979
1337.3182942497697 12626.212367230652
1338.1402849433325 12874.75987444296
1338.962074515921 12574.555806127284
1339.7836630231632 12409.738439283208
1340.6050505206676 12918.993701037813
1341.426237064028 12743.176190811679
1342.2472227088037 12587.794125863275
1343.0680075105338 12369.10745821197
1343.888591524741 12606.882411485705
1344.7089748069138 12652.900157067892
1345.5291574125276 12523.306815079626
1346.3491393970307 12258.654160557331
1347.168920815846 12525.485079176391
1347.9885017243778 12458.153557803973
1348.8078821780036 12358.353025772172
1349.6270622320844 12257.179001605993
1350.4460419419447 12298.84469050452
1351.2648213629054 12473.274345476348
1352.0834005502438 12225.188640128277
1352.90177955923 12184.993883242814
1353.7199584451064 12406.982443411825
1354.5379372630887 12240.394871110631
1355.355716068374 12264.225645182287
1356.1732949161305 12092.814984039973
1356.9906738615155 12209.035352692768
1357.8078529596478 12113.065461912982
1358.6248322656375 12354.162987728656
1359.441611834567 12165.417980916882
1360.2581917214866 12361.36626546399
1361.0745719814367 12082.633706196148
1361.890752669433 12202.591718779655
1362.7067338404577 12066.873522194328
1363.5225155494845 12352.271980875817
1364.3380978514506 12355.216395045278
1365.1534808012839 12046.904407020658
1365.9686644538815 11786.926291974576
1366.783648864117 12337.035222010687
1367.5984340868417 12162.076760858452
1368.413020176893 12190.154170141637
1369.2274071890715 11854.719580058638
1370.0415951781652 12324.71904826551
1370.8555841989346 12242.507634807758
1371.6693743061223 11950.115857604153
1372.48296555444 11744.774618587817
1373.2963579985844 12028.329019808556
1374.1095516932255 12086.175856772443
1374.9225466930166 11805.006465520528
1375.7353430525782 12006.894892095886
1376.5479408265164 11837.668563880907
1377.36034006941 11910.274427877768
1378.1725408358216 12014.053798089673
1378.9845431802805 11757.633084247964
1379.796347157304 12324.257242533535
1380.6079528213813 11927.458342327043
1381.4193602269788 11806.54294615862
1382.230569428546 11681.161465847063
1383.0415804805016 11958.357755409315
1383.852393437246 11928.90688402318
1384.6630083531563 11868.834679372656
1385.4734252825892 11746.816594657947
1386.2836442798798 11885.230477214784
1387.0936653993322 11732.09769250527
1387.9034886952395 11768.527439391277
1388.713114221864 11778.879646217762
1389.5225420334482 11889.761433771962
1390.331772184214 11724.068391052104
1391.1408047283585 11470.704002489882
1391.9496397200564 11522.20192813902
1392.758277213461 11828.285572493027
1393.5667172627054 11755.994487377955
1394.3749599218918 11562.986262127512
1395.1830052451114 11303.160378511391
1395.9908532864265 11598.576516223056
1396.7985040998774 11721.61621396959
1397.6059577394808 11362.305428688125
1398.4132142592352 11299.846243265654
1399.2202737131156 11386.975312157583
1400.027136155073 11438.399597345078
1400.8338016390353 11354.113317319507
1401.6402702189134 11396.5114836047
1402.446541948586 11363.685777308829
1403.2526168819204 11228.358753813904
1404.058495072757 11304.720506430045
1404.8641765749107 11310.749211099146
1405.6696614421799 11345.508965643014
1406.4749497283356 11743.837299780904
1407.280041487129 11237.74984239289
1408.084936772295 10941.629965676337
1408.8896356375335 11297.212687870451
1409.6941381365323 11205.787206858971
1410.498444322955 11080.258101573465
1411.3025542504402 11217.182421862399
1412.106467972606 11286.056270603429
1412.9101855430508 11134.606025449631
1413.7137070153458 10909.94845767195
1414.5170324430437 11013.338693372412
1415.320161879672 11141.00855790171
1416.1230953787435 11362.871073148486
1416.925832993742 10855.802477099154
1417.7283747781275 10763.765757606681
1418.5307207853439 11147.726775166462
1419.3328710688093 11011.081098155675
1420.134825681922 10899.294213114876
1420.9365846780584 10816.004645714322
1421.7381481105713 11150.295181931728
1422.539516032788 11024.493229768936
1423.3406884980232 10716.64291228134
1424.1416655595604 10839.21594513974
1424.942447270665 10858.014152551033
1425.7430336845828 11038.528249951132
1426.5434248545298 10733.461163229764
1427.3436208337116 10969.115779566582
1428.143621675301 10932.018172210035
1428.9434274324558 11175.35343593743
1429.7430381583108 10753.625527198983
1430.5424539059713 10891.269534914765
1431.3416747285337 11347.94275055691
1432.1407006790632 10979.922060115594
1432.9395318106053 10845.92619740902
1433.7381681761835 10610.06434934175
1434.5366098288014 10999.243178536057
1435.3348568214424 10912.667079353287
1436.1329092070573 10824.999605275929
1436.9307670385879 10916.34767769423
1437.7284303689503 11181.71227758925
1438.5258992510335 11166.441937904103
1439.3231737377118 10911.391950126479
1440.1202538818306 10801.691716835527
1440.9171397362225 10929.42144324098
1441.7138313536925 10840.82150741075
1442.5103287870243 10706.06843776413
1443.3066320889775 10641.229462250396
1444.1027413122956 10924.629789036993
1444.8986565096966 10787.872779588859
1445.694377733882 10744.26299274238
1446.4899050375207 10604.295359736918
1447.2852384732687 10810.02784391384
1448.0803780937622 10883.491540809697
1448.8753239516063 10596.193822346799
1449.6700760993954 10345.949698889392
1450.464634589689 10659.729673905258
1451.2589994750397 10866.011344405975
1452.0531708079689 10572.541750222601
1452.8471486409799 10412.929964081173
1453.6409330265524 10873.64941533454
1454.4345240171442 10463.597084962128
1455.2279216651987 10499.293510084866
1456.0211260231263 10334.896227109733
1456.8141371433194 10693.827628134593
1457.6069550781594 10628.670550055404
1458.3995798799897 10319.430050017576
1459.1920116011424 10276.757931275004
1459.98425029393 10338.549329848618
1460.7762960106338 10354.394403485834
1461.5681488035225 10453.261795982042
1462.3598087248392 10397.780126698364
1463.1512758268036 10588.976392202076
1463.942550161617 10353.6497272717
1464.7336317814625 10239.254962454068
1465.524520738496 10503.469679839645
1466.3152170848552 10305.528678658622
1467.1057208726506 10339.862663042502
1467.8960321539817 10369.39075207902
1468.6861509809169 10144.643036291798
1469.4760774055085 10207.190311901915
1470.265811479785 10271.59320516387
1471.055353255755 10077.72468652774
1471.844702785409 10136.685193337209
1472.6338601207044 10188.651040729914
1473.4228253135934 10399.412727488316
1474.2115984159936 10012.684272640117
1475.0001794798063 9982.811797306347
1475.7885685569145 10286.902433597057
1476.576765699172 10177.171209964592
1477.3647709584238 10197.586962378433
1478.1525843864802 10365.174727487987
1478.9402060351367 10248.422306801584
1479.7276359561693 10179.302309371884
1480.514874201328 10068.214856363635
1481.3019208223468 9950.009965146874
1482.0887758709323 9867.466955588483
1482.8754393987747 10374.669983512196
1483.6619114575406 9963.418423438136
1484.4481920988783 9971.50758041076
1485.2342813744108 10097.133604081228
1486.0201793357446 10258.159119310927
1486.8058860344572 9942.526095062216
1487.591401522117 10014.676905672331
1488.3767258502594 10066.949526895345
1489.1618590704056 10102.77410787377
1489.9468012340494 9871.278459708821
1490.7315523926754 10180.57541764642
1491.5161125977356 10293.16918641452
1492.3004819006637 10015.658991727427
1493.084660352877 9919.909520436451
1493.8686480057622 10144.636269785413
1494.6524449106964 10333.70784499458
1495.4360511190262 10316.393269566102
1496.219466682087 10116.310145218511
1497.0026916511779 10157.392025123869
1497.7857260775945 10078.33231084444
1498.5685700125996 10287.51989654486
1499.3512235074395 9957.637941059646
1500.133686613337 9859.243447981084
1500.9159593814966 9961.094379346698
1501.698041863101 10468.161514077185
1502.4799341093094 10023.407492342652
1503.2616361712662 9843.375488049129
1504.043148100087 10079.619285532734
1504.8244699468742 10127.963380649582
1505.6056017626997 9951.852271892672
1506.3865435986281 9786.812418363636
1507.1672955056893 10211.300818806147
1507.9478575348967 9919.430546285435
1508.7282297372512 10256.90306988289
1509.5084121637192 9919.958497058647
1510.2884048652577 10019.136944617556
1511.0682078927948 9841.672353259455
1511.8478212972423 9882.502114118399
1512.6272451294917 9840.277011418444
1513.4064794404076 10149.89177886868
1514.1855242808433 9966.080576805069
1514.9643797016215 9925.6660230628
1515.743045753552 10054.17103575935
1516.5215224874191 10055.205361897431
1517.2998099539836 9633.02535767072
1518.077908203999 9846.373794399204
1518.8558172881785 9837.665179305459
1519.633537257234 10176.637226199502
1520.4110681618404 9985.72337896239
1521.1884100526604 9882.276162041568
1521.9655629803365 9887.044445883523
1522.7425269954856 10189.119762126893
1523.5193021487103 10374.00364109005
1524.2958884905856 9703.705838202117
1525.0722860716687 9902.82042169301
1525.848494942502 9860.318735175495
1526.624515153595 9921.34140833318
1527.4003467554485 9925.208289165486
1528.175989798534 10047.681987621345
1528.9514443333064 10018.262122847416
1529.726710410203 10145.062435735
1530.5017880796331 9741.485623382152
1531.276677391992 9777.981540765799
1532.0513783976457 10117.845191457583
1532.825891146953 9874.558975968353
1533.6002156902414 10008.760380973417
1534.3743520778207 9895.830728594787
1535.1483003599806 9954.091218954742
1535.9220605869923 9823.357820595522
1536.6956328091019 10107.683869591101
1537.4690170765407 9800.719654385775
1538.242213439511 9945.254710028137
1539.015221948208 9998.633156084356
1539.78804265279 9861.69503234624
1540.560675603405 9670.441340672533
1541.3331208501804 10166.519839100243
1542.1053784432224 10060.834338318371
1542.8774484326168 9961.92894287439
1543.649330868422 9886.180470191135
1544.4210258006842 9977.996930508132
1545.1925332794308 9856.716277246782
1545.9638533546604 9857.629637668728
1546.7349860763552 9691.103644682913
1547.5059314944829 10171.986776403355
1548.27668965898 9808.863995535557
1549.0472606197673 9897.305652216475
1549.817644426752 9682.276614926692
1550.5878411298072 10148.808883474774
1551.3578507787988 9874.157871553925
1552.1276734235635 9709.006630712745
1552.8973091139233 9886.77427533991
1553.6667578996767 10034.631824491516
1554.436019830604 9807.285172561025
1555.20509495646 9802.881881247884
1555.9739833269869 9624.202486918219
1556.7426849919011 9690.710684079337
1557.511200000903 9910.4180032736
1558.2795284036674 9773.767097269625
1559.0476702498509 9672.677728210965
1559.8156255890954 9916.471569894018
1560.5833944710157 10127.907927570812
1561.3509769452048 9646.108420843322
1562.1183730612447 9732.681433664964
1562.8855828686865 9855.897509853326
1563.6526064170703 10030.418164410998
1564.4194437559127 9985.973260115154
1565.1860949347047 9756.043069685944
1565.9525600029283 10112.744418895863
1566.7188390100328 10024.84740664278
1567.4849320054564 9677.031772109938
1568.250839038612 9759.814128178732
1569.0165601588997 9712.574526431252
1569.7820954156887 9796.211057532199
1570.5474448583373 9744.54449058758
1571.31260853618 9581.249348365705
1572.0775864985299 9475.515192588835
1572.8423787946813 9682.614737375636
1573.6069854739108 9644.4009784773
1574.371406585471 9792.562279393058
1575.1356421785986 9829.651561978726
1575.899692302506 9602.356968765398
1576.6635570063845 9794.743836203996
1577.4272363394157 9727.464601193513
1578.190730350747 9591.851588498645
1578.9540390895163 9715.76384906455
1579.7171626048384 9326.639625585749
1580.480100945806 9439.013091832425
1581.2428541614918 9531.017639979958
1582.0054223009538 9592.561129386402
1582.767805413223 9541.972274735363
1583.5300035473156 9626.802660841622
1584.292016752228 9778.936771364326
1585.0538450769309 9496.967103069062
1585.8154885703807 9343.442607420298
1586.5769472815136 9364.6314924371
1587.3382212592405 9597.0616683011
1588.099310552463 9753.254496061712
1588.8602152100484 9340.188199827558
1589.6209352808564 9562.319105401872
1590.3814708137234 9512.779745329242
1591.14182185746 9780.747696380442
1591.9019884608679 9385.759571639763
1592.6619706727215 9038.895588179314
1593.4217685417734 9638.888664189271
1594.1813821167616 9631.711873834469
1594.9408114464022 9177.195146995338
1595.7000565793933 9230.98118402966
1596.459117564409 9420.903919510438
1597.2179944501113 9180.941856298718
1597.9766872851324 9204.817261256398
1598.735196118092 9432.27392935885
1599.4935209975883 9323.491026677446
1600.2516619721973 9361.542670600053
1601.0096190904787 9253.479770978822
1601.7673924009723 9227.098323460355
1602.524981952196 9061.737905641436
1603.2823877926476 9153.847123227393
1604.0396099708087 8958.74836533798
1604.7966485351371 8900.06545565279
1605.5535035340745 9040.152536843734
1606.3101750160404 9262.098715129407
1607.0666630294363 9034.259409052884
1607.822967622642 8800.563365746082
1608.5790888440224 9033.375158863726
1609.3350267419137 9198.517784239599
1610.0907813646445 8880.399394407326
1610.8463527605145 8846.49465107962
1611.601740977805 9031.681889443045
1612.356946064785 8913.400619554468
1613.1119680696902 8467.494958982808
1613.8668070407512 8834.066126759888
1614.6214630261748 8816.328068150722
1615.375936074137 8835.4873806148
1616.1302262328118 8816.316882528161
1616.8843335503425 8679.47552676654
1617.638258074854 8559.696233353436
1618.391999854457 8704.109036651065
1619.1455589372363 8707.023632251581
1619.8989353712623 8683.511506604142
1620.65212920458 8236.206043241527
1621.4051404852235 8364.31932853549
1622.1579692611976 8550.981847400606
1622.9106155804966 8215.985498034555
1623.663079491087 8281.559640175183
1624.4153610409248 8363.948657941544
1625.1674602779385 8270.798592412782
1625.9193772500403 8031.075284050993
1626.6711120051277 8458.57141884726
1627.4226645910676 8285.163323235272
1628.174035055721 8211.432495716745
1628.9252234469168 8250.016968566544
1629.676229812474 8027.7430011770675
1630.4270542001905 8345.38324017601
1631.1776966578382 8187.694453774745
1631.9281572331747 8077.885033050794
1632.678435973945 8271.694807959744
1633.4285329278573 8061.3424244261405
1634.1784481426203 7778.036970350977
1634.9281816659113 7884.05312970043
1635.677733545388 8084.945945468103
1636.4271038286934 7854.851380963165
1637.176292563452 8011.108586352399
1637.9252997972635 7857.00861283218
1638.674125577716 8062.956645835041
1639.4227699523672 8181.517106229245
1640.171232968767 7542.671166631431
1640.9195146744423 7846.776674700253
1641.6676151168977 7957.012538364102
1642.4155343436178 7895.1621892349385
1643.1632724020765 7674.246854575792
1643.9108293397167 7717.233119900251
1644.658205203974 7654.675068946481
1645.4054000422566 8129.637252953982
1646.1524139019566 7572.601003169836
1646.8992468304423 7439.679989109938
1647.6458988750728 7436.98626254718
1648.3923700831765 7540.784693267745
1649.1386605020743 7416.438012318191
1649.8847701790564 7611.199084398562
1650.6306991614038 7580.040908511888
1651.3764474963682 7620.133540307778
1652.1220152311944 7171.16800985293
1652.867402413096 7490.76947433756
1653.6126090892776 7410.863881850266
1654.3576353069184 7640.100187460669
1655.1024811131829 7418.052168547419
1655.8471465552066 7229.237533140173
1656.5916316801213 7505.080993127504
1657.3359365350298 7431.8682466134605
1658.0800611670165 7318.529517931753
1658.824005623148 7268.352127383261
1659.5677699504722 7224.716811332973
1660.3113541960192 7362.0616632844785
1661.054758406799 7052.634669276502
1661.7979826297997 7090.16406981169
1662.5410269119966 6940.312220436679
1663.283891300338 7106.144799444359
1664.0265758417645 6947.443351334393
1664.7690805831826 7123.483989370196
1665.5114055714948 7170.7843155221835
1666.2535508535748 7287.046589011317
1666.9955164762814 6754.697947354269
1667.7373024864555 7059.024345985078
1668.478908930916 7055.272589067446
1669.220335856462 6770.4866741258575
1669.9615833098778 6841.716727385936
1670.7026513379296 6671.818213629366
1671.44353998736 7003.390754427965
1672.1842493048916 6830.144539218856
1672.9247793372379 6746.897285662334
1673.6651301310812 6855.970515667012
1674.4053017330934 6727.438093598011
1675.1452941899242 6820.630632239825
1675.885107548207 6356.332298897962
1676.6247418545518 6312.075667953296
1677.3641971555535 6458.170181019073
1678.1034734977893 6669.411355435291
1678.8425709278108 6653.636361360304
1679.5814894921605 6705.609401358146
1680.320229237359 6689.630381603497
1681.0587902098978 6681.198102944096
1681.7971724562685 6526.364762749147
1682.5353760229264 6279.680332848295
1683.2734009563173 6473.88419245415
1684.0112473028657 6239.822017241301
1684.7489151089794 6471.192627420895
1685.4864044210462 6500.7821047622465
1686.2237152854377 6101.336626693499
1686.960847748498 6553.078634247975
1687.6978018565642 6220.3443393269745
1688.434577655944 6113.43539709927
1689.1711751929379 6037.018148703383
1689.9075945138156 6329.351253423798
1690.6438356648396 6255.2463992188505
1691.3798986922448 5727.021451442075
1692.1157836422499 6085.654081797786
1692.851490561059 6041.616095357769
1693.587019494853 6160.325211423616
1694.3223704897991 5706.120159773844
1695.0575435920364 5741.455241775989
1695.792538847696 6269.43909579162
1696.527356302886 5939.3344652308815
1697.2619960036936 5805.461853066197
1697.9964579961907 5754.905124584524
1698.730742326432 5409.567379334984
1699.4648490404488 5621.806813035799
1700.1987781842563 5710.609073916381
1700.9325298038548 5928.622455235124
1701.6661039452174 6080.275671951584
1702.3995006543082 5965.9542619018885
1703.1327199770658 6055.114701418618
1703.865761959416 5653.856710168062
1704.598626647261 5883.95731407253
1705.3313140864866 5620.916917425575
1706.0638243229587 5609.551319705903
1706.7961574025303 5885.052142943851
1707.528313371029 5799.413236586708
1708.260292274268 5547.97757239883
1708.9920941580403 5634.275586630429
1709.7237190681226 5739.516626344407
1710.4551670502697 5643.210213168013
1711.18643815022 5324.368889916259
1711.9175324136959 5964.509132178572
1712.6484498863938 5541.729811351435
1713.379190614005 5357.586577216223
1714.109754642188 5524.6868870213275
1714.8401420165883 5415.376644663213
1715.570352782839 5991.044309612226
1716.3003869865497 5636.230537055946
1717.0302446733076 5344.188932943116
1717.7599258886876 5475.767154745546
1718.4894306782444 5745.514585783549
1719.2187590875183 5337.469605212316
1719.9479111620203 5685.112659049843
1720.6768869472544 5326.347170157119
1721.4056864887025 5735.996893920046
1722.1343098318284 5707.2367216606235
1722.8627570220742 5464.680935216941
1723.591028104871 5282.455011861637
1724.3191231256242 5237.250245955205
1725.0470421297232 5371.3812149699315
1725.7747851625427 5514.352781470683
1726.5023522694337 5496.6936861096565
1727.2297434957363 5371.647774671945
1727.9569588867635 5130.892423403497
1728.6839984878152 5516.519744186007
1729.4108623441734 4955.15774085052
1730.1375505011038 5341.101354822576
1730.8640630038426 5244.736423721763
1731.5903998976264 5181.479176350938
1732.316561227657 5269.4171736258995
1733.0425470391274 5184.497618120463
1733.7683573772065 5348.542973610241
1734.4939922870508 5186.3395213092335
1735.2194518137949 5370.440378571207
1735.9447360025606 5165.554569797884
1736.669844898439 5279.997800917867
1737.3947785465189 5101.261676556087
1738.1195369918605 5002.693755998726
1738.8441202795093 5193.989150995132
1739.5685284544943 5259.731817425952
1740.292761561821 5361.976227918296
1741.0168196464838 5281.819326860309
1741.7407027534518 5275.0217978587625
1742.464410927687 5219.937549934426
1743.187944214118 5120.431332400001
1743.9113026576688 5132.396800659739
1744.634486303241 5057.886739583719
1745.3574951957125 5152.026349037846
1746.0803293799509 5262.83070854564
1746.8029889008048 5132.208994208484
1747.5254738031017 5300.746738269199
1748.2477841316504 5013.484486373527
1748.969919931249 5097.3452276965145
1749.6918812466665 4988.750116234748
1750.4136681226646 5299.618505584763
1751.1352806039777 5096.538418554844
1751.856718735331 4828.015389284509
1752.5779825614281 4867.458483268143
1753.2990721269507 5135.77632103303
1754.0199874765676 5161.088643821964
1754.7407286549314 4837.989824510385
1755.4612957066693 4872.0342848320415
1756.1816886763954 4857.291911219975
1756.9019076087097 5135.08644401605
1757.6219525481865 5038.035192394554
1758.3418235393856 5009.919057357044
1759.061520626854 5026.7386097646595
1759.7810438551096 5229.717925375327
1760.5003932686614 4830.723292291052
1761.2195689119999 5189.740558303335
1761.938570829594 5093.417628168367
1762.657399065898 4912.510584328927
1763.376053665348 4784.359825355317
1764.0945346723602 4735.030567254489
1764.812842131334 5174.52494876618
1765.5309760866512 4675.767236089356
1766.2489365826787 4721.756707378509
1766.9667236637597 4900.581061136251
1767.684337374223 4519.350607362142
1768.401777758383 4650.508527005783
1769.1190448605284 4734.645120976024
1769.836138724937 4714.549666643137
1770.5530593958665 4904.674066695651
1771.2698069175603 5097.61480004472
1771.9863813342326 4919.707064417534
1772.702782690094 4726.84865567423
1773.4190110293293 4989.668024977319
1774.1350663961111 5000.639046403372
1774.8509488345844 4771.021473218044
1775.5666583888924 4731.513907761494
1776.2821951031437 5062.4663667171
1776.9975590214362 4758.083042271685
1777.7127501878585 5103.066524334212
1778.4277686464684 5033.139876776555
1779.1426144413108 4893.682648501885
1779.8572876164162 4998.935269865115
1780.571788215797 4604.540572158367
1781.2861162834415 4763.287053566804
1782.0002718633277 4806.639069987933
1782.7142549994132 4737.330376771149
1783.4280657356376 4897.411328432254
1784.141704115922 4686.417968235941
1784.855170184177 4683.829389031344
1785.5684639842839 4819.895350723062
1786.2815855601148 4361.690367721394
1786.9945349555237 4707.053824262601
1787.707312214343 4626.3715344792445
1788.4199173803918 5044.2581870218855
1789.132350497468 4489.156837844953
1789.8446116093583 4664.943456632051
1790.556700759822 4516.314889448602
1791.2686179926077 4527.029505833745
1791.9803633514493 4638.045124619802
1792.6919368800554 4444.249654641989
1793.4033386221236 4766.726828945162
1794.1145686213295 4880.559320972904
1794.8256269213307 4852.186413113315
1795.536513565774 4677.092237970332
1796.247228598284 4368.793906354934
1796.9577720624693 4420.9342685120755
1797.6681440019165 4685.90846624789
1798.3783444602013 4601.7584635341755
1799.0883734808776 4671.1857452906315
1799.7982311074884 4695.165319005304
1800.5079173835475 4688.3898012385625
1801.2174323525633 4632.619246543533
1801.9267760580187 4669.821865010885
1802.635948543386 4615.948525406045
1803.3449498521113 4447.730359728454
1804.0537800276325 4613.495241296916
1804.7624391133668 4582.394291164315
1805.47092715271 4161.089741655962
1806.1792441890484 4427.429956754621
1806.8873902657433 4566.48697263822
1807.5953654261448 4515.742659758268
1808.3031697135812 4303.823053827984
1809.0108031713662 4503.940072547874
1809.71826584279 4368.136966289496
1810.425557771141 4478.403172798938
1811.1326789996747 5123.3458706031315
1811.839629571632 4453.574415846261
1812.5464095302468 4427.437209606028
1813.2530189187182 4543.736893527636
1813.959457780249 4405.458184022142
1814.6657261580076 4652.750847662386
1815.371824095153 4488.478763467259
1816.0777516348262 4644.218294495339
1816.78350882015 4105.475777635589
1817.4890956942272 4222.152820419625
1818.1945123001533 4451.234272100785
1818.8997586809928 4449.53091902847
1819.6048348798067 4322.997930243961
1820.3097409396287 4453.607254187498
1821.0144769034796 4871.043010051444
1821.7190428143622 4593.831737932587
1822.423438715261 4734.167393936923
1823.1276646491478 4387.285408641707
1823.8317206589727 4502.801752949829
1824.5356067876692 4487.9789865150115
1825.2393230781581 4404.966886356511
1825.942869573335 4202.494590666156
1826.646246316086 4231.14317920349
1827.3494533492758 4372.523502151696
1828.052490715756 4521.615802873195
1828.7553584583547 4480.743953811004
1829.458056619891 4563.695835101876
1830.1605852431585 4371.570414722586
1830.8629443709433 4228.345951144972
1831.5651340460063 4316.076321059334
1832.2671543110919 4207.714790224474
1832.9690052089318 4565.909819562007
1833.6706867822395 4120.58927876375
1834.3721990737104 4451.203172938407
1835.0735421260233 4423.680082544158
1835.774715981841 4352.027654585974
1836.4757206838058 4723.395034718569
1837.1765562745459 4229.943189639141
1837.8772227966747 4164.489647635092
1838.5777202927839 4357.206420598226
1839.2780488054523 4276.0650618353375
1839.9782083772352 4335.5204087792135
1840.6781990506806 4569.5767865709395
1841.378020868313 4409.475378123855
1842.0776738726418 4424.255829454429
1842.777158106157 4202.624511072072
1843.4764736113375 4181.678001350599
1844.1756204306403 4427.054212636109
1844.8745986065078 4285.374638286627
1845.5734081813607 4042.2204683447503
1846.2720491976124 4150.924718295332
1846.970521697649 4076.693935170805
1847.6688257238511 4319.127425641956
1848.3669613185684 4199.666626311736
1849.0649285241452 4057.9151652041255
1849.7627273829057 4410.7794702271
1850.460357937156 4233.637275513416
1851.1578202291857 4075.4944933040774
1851.8551143012664 4212.772855179479
1852.5522401956569 4220.009061250939
1853.2491979545957 4509.688359321784
1853.9459876203055 3988.1618569134052
1854.6426092349902 4043.369524787539
1855.3390628408451 4084.521800680513
1856.0353484800362 4422.041368201102
1856.7314661947203 4382.167531237629
1857.4274160270397 4039.086235704473
1858.123198019115 4207.452118977048
1858.8188122130487 4016.931576366839
1859.5142586509319 4219.293890622953
1860.209537374838 4198.312053437857
1860.9046484268183 4118.262977574587
1861.599591848917 4400.038930003394
1862.294367683151 4068.847989402383
1862.988975971528 4001.387212088287
1863.6834167560355 4308.752851712111
1864.3776900786452 4457.197754172785
1865.0717959813119 4117.956140244399
1865.7657345059724 4058.150286975901
1866.4595056945564 4285.413967724704
1867.1531095889586 4181.356948878614
1867.846546231076 3948.8166893449547
1868.5398156627743 4441.970490718095
1869.2329179259123 4090.382268969229
1869.9258530623283 4557.393110870261
1870.618621113843 4085.0721510297944
1871.3112221222636 4013.7898658687727
1872.0036561293764 4012.5313404804983
1872.695923176956 4291.565606883307
1873.3880233067594 4340.518385792112
1874.0799565605212 3947.662696650938
1874.7717229799673 4185.033871098062
1875.4633226068036 4297.659873889412
1876.1547554827175 4296.723781549365
1876.8460216493859 4067.97329759538
1877.5371211484617 4177.345221248244
1878.2280540215852 4266.517814453467
1878.9188203103804 4041.514939610696
1879.6094200564548 4205.916073550176
1880.299853301396 3994.5987222465274
1880.9901200867826 4296.6335963991605
1881.6802204541673 4207.4988767483555
1882.3701544450942 4285.217067371573
1883.059922101087 3856.129731165061
1883.7495234636517 4351.798864952529
1884.4389585742792 4079.627807739516
1885.1282274744517 4029.7939454179295
1885.8173302056166 4769.85908271742
1886.506266809225 4004.8335018575826
1887.195037326701 3885.2377327905706
1887.8836417994517 4030.0099928692352
1888.5720802688702 4395.031525660137
1889.260352776333 4162.089677550493
1889.9484593632042 4232.454858387989
1890.63640007082 4025.209628790356
1891.3241749405151 3835.6426805839096
1892.0117840135954 4244.546023151501
1892.6992273313572 4016.3023383264735
1893.3865049350788 3801.137900085299
1894.0736168660223 4467.405239610735
1894.7605631654333 4170.07233884491
1895.4473438745408 3743.2232636699437
1896.133959034556 4451.867518122279
1896.820408686679 4057.6086384694217
1897.506692872088 4346.238666520641
1898.192811631945 4035.2431996984465
1898.8787650073991 3903.8192697094573
1899.5645530395832 4227.339399271949
1900.2501757696118 4174.065284863957
1900.9356332385796 3890.0293497150064
1901.620925487574 4499.709980199057
1902.3060525576602 4216.132958212052
1902.9910144898859 4176.639127416709
1903.6758113252872 3859.1020117208695
1904.3604431048789 4078.0531197326554
1905.0449098696663 4178.217614460538
1905.7292116606295 3984.9102147611957
1906.4133485187394 4142.733996148516
1907.0973204849488 3584.1111970365864
1907.7811276001976 3865.2377239349894
1908.4647699053967 3907.7191310730004
1909.1482474414588 3545.720313049683
1909.8315602492694 3848.315846110646
1910.5147083696957 4234.853295938132
1911.1976918436012 3974.5124990922873
1911.880510711815 3908.6315782372244
1912.5631650151681 4264.253902658382
1913.2456547944657 3790.880258836659
1913.927980090495 3954.9458276948326
1914.6101409440362 3907.9122797244186
1915.2921373958416 4088.036128546075
1915.9739694866603 3957.9572685406138
1916.655637257214 4159.786804619524
1917.3371407482136 4122.217973593813
1918.0184800003572 4260.5549844966035
1918.6996550543154 4174.661244657771
1919.3806659507554 4151.54383478634
1920.0615127303208 3937.8996340361905
1920.7421954336423 4179.803635515171
1921.4227141013343 4245.265538846007
1922.103068773993 4019.722629639974
1922.783259492202 4167.9410706970075
1923.4632862965227 3822.236965264167
1924.1431492275078 3979.2296663172156
1924.8228483256917 3826.2858835389356
1925.5023836315922 3993.2148406314495
1926.1817551857057 3424.1256882589237
1926.8609630285227 4380.637105012881
1927.5400072005123 3952.434259316275
1928.218887742125 3896.1228412564474
1928.8976046938005 3880.2275051060096
1929.5761580959588 4038.963791765268
1930.2545479890086 4061.263803245912
1930.9327744133352 3717.3070571659946
1931.6108374093164 3960.6879216237953
1932.2887370173066 4440.14610017699
1932.9664732776473 3440.9191276328347
1933.6440462306673 3940.478682604554
1934.3214559166754 3779.3651294434626
1934.9987023759659 4216.717267111816
1935.675785648813 3988.1049050618954
1936.3527057754836 3507.7486967029713
1937.029462796223 4284.997669613782
1937.70605675126 3767.9684292162246
1938.3824876808085 3680.8103555184316
1939.058755625072 3863.0369049308365
1939.7348606242267 3825.507846916047
1940.4108027184448 3967.363415404611
1941.0865819478713 3962.380937416144
1941.7621983526478 3811.9488429735516
1942.4376519728921 3733.9237219339107
1943.1129428487038 3889.6156434298377
1943.7880710201734 3945.7359535617697
1944.4630365273733 3980.7246485254277
1945.1378394103576 3628.955887594734
1945.8124797091714 4322.0579845751845
1946.4869574638324 3609.173137790337
1947.161272714353 3830.6241379404537
1947.8354255007234 4015.699030618085
1948.5094158629272 3728.4122470024545
1949.1832438409183 3937.814308708602
1949.8569094746435 3964.5809434334537
1950.530412804037 4081.512579468055
1951.2037538690092 3935.7748044910877
1951.8769327094578 3793.6089470768047
1952.5499493652678 3790.046081982621
1953.222803876306 4059.5793062564435
1953.895496282421 4035.4445247846693
1954.5680266234522 3845.498362303707
1955.2403949392155 3871.472943953755
1955.9126012695142 3666.245867110123
1956.5846456541403 3797.376463211918
1957.2565281328643 3676.804546561001
1957.9282487454457 4099.451251266249
1958.5998075316202 4026.140036763806
1959.27120453112 3790.4487684741275
1959.9424397836501 3847.326637389155
1960.613513328908 4019.0203412742785
1961.2844252065697 4141.914098839504
1961.9551754563017 3772.08961245499
1962.6257641177453 3752.256634143396
1963.29619123054 3616.2128377498966
1963.966456834296 3641.1266418552937
1964.6365609686181 3624.592292399003
1965.306503673086 3908.2786544581077
1965.976284987275 3715.2703580752836
1966.645904950734 3782.217022193632
1967.315363603002 3566.029873246306
1967.9846609836077 3781.6654701977554
1968.6537971320486 3633.0523497767053
1969.3227720878222 3882.1059697878895
1969.9915858904042 3676.8930821401655
1970.660238579252 3926.127223645227
1971.3287301938108 3915.8222263921975
1971.997060773514 3612.168024694023
1972.665230357772 3591.6273477673776
1973.3332389859843 3573.4516647916485
1974.0010866975335 3576.3800768392953
1974.6687735317864 3793.7489470789833
1975.3362995280932 3899.30694979544
1976.003664725793 3783.294210218815
1976.6708691642052 3359.5716130290302
1977.3379128826364 3645.4389675353077
1978.004795920373 3977.2358950179237
1978.6715183166925 4183.73957968115
1979.3380801108524 3400.644326400599
1980.0044813420973 3667.985676017269
1980.6707220496555 3190.3290591156438
1981.3368022727373 3686.064502415548
1982.0027220505417 3641.0929081066106
1982.66848142225 3318.190670916477
1983.3340804270283 3399.487509214817
1983.999519104027 3765.7724975683295
1984.6647974923835 3732.4596986032934
1985.329915631215 3822.5898027890607
1985.99487355963 3605.111819702328
1986.6596713167146 3936.5494830420903
1987.3243089415428 3623.760773760747
1987.9887864731754 4010.990391129566
1988.6531039506553 3476.594075164194
1989.3172614130071 4178.394466891783
1989.9812588992481 3560.4242284592
1990.645096448372 3389.5867950308907
1991.3087740993633 3698.454980389625
1991.9722918911848 3586.3226412140843
1992.635649862792 3779.371387351217
1993.2988480531185 3842.8881767623593
1993.9618865010852 4170.925485257368
1994.6247652455968 3633.947623129296
1995.287484325545 3544.1896826682737
1995.9500437798033 3637.95710449906
1996.6124436472292 3521.7747459222433
1997.2746839666706 3872.5221754660824
1997.936764776954 3677.656490145383
1998.598686116895 3605.2318387616265
1999.2604480252903 3887.4890272733746
1999.9220505409212 3758.4184758354013
2000.5834937025593 3413.970800453022
2001.2447775489582 3559.4832764700877
2001.9059021188514 3721.4803906960137
2002.5668674509616 3494.744261740986
2003.2276735839987 3556.2552509736865
2003.8883205566508 3912.948044154775
2004.5488084075987 3563.258736919008
2005.2091371755014 3636.0127138141515
2005.8693068990033 3305.4852523278946
2006.5293176167397 3804.18110782028
2007.1891693673224 3391.9629828084317
2007.848862189354 3277.0386069216393
2008.5083961214223 3504.90795596096
2009.1677712020955 3486.060136770121
2009.8269874699254 3367.4549801704134
2010.4860449634598 3363.4242065919125
2011.1449437212177 3359.5811403182342
2011.8036837817108 3907.811206738444
2012.4622651834325 3699.930526799173
2013.1206879648653 3763.111493229479
2013.7789521644736 4093.262551820325
2014.4370578207036 3108.9628141746034
2015.0950049719922 3670.7946673764113
2015.7527936567585 3708.9779847886216
2016.4104239134067 3609.836137940413
2017.067895780323 4098.400515607156
2017.725209295886 3311.8265273885786
2018.3823644984514 3856.302582338535
2019.0393614263648 3674.6180270774544
2019.6962001179545 3448.7843308745687
2020.3528806115355 3765.4982289742065
2021.0094029454067 3470.930612485545
2021.6657671578487 3210.8590289031745
2022.321973287133 3610.027220379069
2022.9780213715148 3456.7874994035155
2023.6339114492293 3519.9605445645443
2024.2896435585026 3495.443301861578
2024.9452177375442 3497.9292906032265
2025.600634024544 3861.6758141734645
2026.2558924576842 3570.2544903582466
2026.9109930751292 3806.7865419656373
2027.565935915025 3363.706298612564
2028.2207210155066 3944.695654575905
2028.8753484146964 3935.0604151561843
2029.529818150695 3100.8899520984514
2030.1841302615903 3635.9066663502817
2030.8382847854573 3501.575556156907
2031.4922817603601 3562.2835848459654
2032.1461212243357 3590.968628204629
2032.7998032154192 3299.0714803191304
2033.4533277716218 3358.4827321832504
2034.1066949309443 3347.3170719248474
2034.7599047313688 3320.43883456583
2035.4129572108704 3615.7621150295513
2036.0658524074006 3521.5719689255857
2036.7185903589016 3472.4644743769213
2037.3711711032956 3624.196736502482
2038.023594678496 3547.9270580309494
2038.675861122394 3382.3519931032524
2039.3279704728757 3920.4146640875065
2039.9799227678031 3280.4063874696053
2040.6317180450278 3400.967996842851
2041.2833563423865 3365.362792314313
2041.9348376977014 3978.9812592447097
2042.5861621487784 3501.86047502648
2043.2373297334088 3571.713210898934
2043.8883404893695 3697.200451373215
2044.5391944544208 3674.0444879006436
2045.1898916663158 3724.252412596976
2045.8404321627804 3842.4319627428968
2046.4908159815368 3420.8237632721343
2047.1410431602853 3368.0576102176005
2047.7911137367173 3300.4312948163233
2048.441027748504 3714.7720699161982
2049.090785233302 3272.2122566525804
2049.7403862287592 3466.7350987870186
2050.389830772503 3790.6041968365134
2051.0391189021466 3212.715304930646
2051.688250655294 3567.3988349439105
2052.337226069527 3251.2281532342563
2052.986045182417 3604.608821449704
2053.634708031521 3209.740563649805
2054.283214654375 3604.7197785812727
2054.931565088511 3114.787977266503
2055.579759371436 3159.2906425354595
2056.2277975406523 3503.226181551653
2056.8756796336384 3669.806488144025
2057.5234056878617 3122.0046515043928
2058.1709757407752 3338.5943277464758
2058.8183898298194 3651.16513535352
2059.465647992416 3676.8743382019907
2060.1127502659747 3586.7400248393847
2060.759696687888 3105.5157880517463
2061.4064872955405 3618.117037828244
2062.053122126292 3824.961087499829
2062.699601217497 2957.3529032314736
2063.345924606485 3258.6891146967937
2063.992092330587 3380.0317201407865
2064.638104427102 3368.8322815726688
2065.283960933324 3692.6219208248162
2065.92966188653 3490.867299958053
2066.5752073239855 3775.2901808054894
2067.2205972829397 3182.410659334591
2067.86583180062 3438.562343487066
2068.5109109142522 3473.1189349016117
2069.15583466104 3545.3071203570566
2069.8006030781708 3204.170643301609
2070.445216202821 3376.55261767687
2071.089674072153 3657.351173934515
2071.7339767233116 3738.838783421026
2072.3781241934303 3481.578673965756
2073.0221165196253 3486.6857826043843
2073.6659537390024 3312.6159558552617
2074.3096358886505 3500.7204192033378
2074.953163005637 3342.7371258199696
2075.596535127028 3106.849742958826
2076.2397522898664 3275.983866092113
2076.882814531182 3401.8155164970603
2077.5257218879924 3518.6309305807163
2078.1684743973 3172.1703399276016
2078.8110720960885 3186.7631801281327
2079.453515021336 3881.1697622152788
2080.095803209997 3575.4321387055197
2080.7379366990135 3420.9963567630753
2081.37991552532 3561.9327821145394
2082.0217397258275 3432.514335353762
2082.6634093374414 3154.471830616657
2083.3049243970418 3398.1580459171228
2083.9462849415067 3525.927262573431
2084.587491007689 3503.0219041730998
2085.2285426324324 3502.2886495525345
2085.869439852564 3542.196518555748
2086.510182704902 3198.3290528853568
2087.1507712262483 3253.2095577757764
2087.791205453381 3207.3342573163204
2088.4314854230743 3499.8678781274734
2089.0716111720867 3456.31924634901
2089.7115827371617 2986.5114458518337
2090.351400155023 3143.6830586163146
2090.991063462385 3301.293865706369
2091.6305726959527 3009.872067626354
2092.2699278924047 3506.0629229179517
2092.9091290884153 3248.383730894401
2093.548176320641 3081.34895591094
2094.187069625721 3015.1402958085464
2094.8258090402887 2948.7852470249422
2095.464394600951 3385.708209560661
2096.102826344313 3423.471429731686
2096.741104306955 3484.834560250272
2097.379228525453 3071.232242901765
2098.017199036358 3020.4922501065766
2098.6550158762147 3637.8847886755007
2099.2926790815527 3435.379091818561
2099.9301886888825 3382.3862388562748
2100.5675447347076 3436.8349603534166
2101.2047472555114 3632.236536064581
2101.841796287761 3205.960664555283
2102.47869186792 3426.46443589357
2103.1154340324265 3147.542833906626
2103.752022817709 3359.011067270905
2104.388458260184 3344.846858443508
2105.024740396251 3411.7044151444047
2105.660869262292 3191.3016497537037
2106.296844894685 3610.5032330548456
2106.93266732978 3383.986776152809
2107.5683366039284 3239.6084760032927
2108.2038527534532 3341.830504319496
2108.8392158146726 3479.1675672341335
2109.4744258238843 3239.673075301534
2110.1094828173755 3307.5684529124146
2110.744386831422 3762.3395821537806
2111.3791379022787 3336.7111830792905
2112.01373606619 3616.4862872057347
2112.648181359389 3450.761210426705
2113.28247381809 3234.886119476895
2113.916613478492 3332.344341061197
2114.550600376786 3405.5983340835382
2115.1844345491445 3399.8403556788267
2115.818116031729 3161.490685221549
2116.451644860679 3319.475730117812
2117.085021072133 2976.5485683724896
2117.718244702204 3136.775141605579
2118.3513157869984 3154.2390676810805
2118.984234362604 2985.781711308632
2119.617000465092 3231.655317825523
2120.249614130529 3580.6920132664936
2120.8820753949585 3298.0214040898145
2121.5143842944162 3217.3482397116263
2122.14654086492 3052.059648817332
2122.7785451424734 3557.5931871870343
2123.4103971630702 2976.050803868127
2124.042096962681 3333.11284482182
2124.6736445772767 3603.828946598134
2125.305040042802 3096.2992873879375
2125.936283395191 3204.37564769942
2126.567374670365 3381.9075844298213
2127.198313904233 3084.8149710257044
2127.8291011326855 3062.161627792048
2128.4597363916037 3039.0969982013753
2129.0902197168507 3135.00143078426
2129.720551144279 3042.891032766267
2130.3507307097225 3697.4926728742416
2130.980758449008 3616.3888492323413
2131.6106343979427 3179.6920691214013
2132.2403585923203 3518.179893403383
2132.8699310679276 3704.640489447224
2133.499351860526 3390.5465036247215
2134.1286210058715 3162.34681369287
2134.7577385397053 2912.7596605771478
2135.3867044977487 3604.6732856183603
2136.0155189157176 3638.1966384527104
2136.644181829308 3477.9192360032876
2137.2726932742025 3117.129447475188
2137.901053286074 3494.607018495607
2138.5292619005777 3102.192286870548
2139.1573191533535 3158.934293328112
2139.7852250800315 3257.3427157702777
2140.4129797162295 3434.023718467814
2141.0405830975433 2760.7728144915295
2141.6680352595613 2862.3821353122444
2142.2953362378576 2964.218709259107
2142.9224860679915 3040.381218809354
2143.549484785508 3197.6379455619945
2144.1763324259373 3195.6856579193327
2144.803029024799 3069.4686003844404
2145.429574617594 2914.966459991188
2146.0559692398165 3307.0326024712676
2146.682212926942 2939.8843926846066
2147.308305714432 3230.3703155296016
2147.9342476377333 3529.938816794385
2148.5600387322847 3706.33843077877
2149.185679033506 3163.606098876063
2149.8111685768017 3211.584840443256
2150.4365073975678 2897.7871297276242
2151.061695531187 3072.5868569807217
2151.686733013021 3635.068762768666
2152.311619878423 3370.2701829319362
2152.9363561627342 3151.0506233425012
2153.560941901278 3019.676334539228
2154.1853771293663 3199.447890811437
2154.809661882293 3187.8875663744534
2155.433796195348 3577.91708744249
2156.0577801037944 2900.0113736640847
2156.681613642895 3323.0018052569076
2157.3052968478896 2708.174339599136
2157.928829754006 3342.2110646466344
2158.552212396462 3201.9574450896043
2159.1754448104566 3236.9494564252695
2159.7985270311783 2879.2944126397992
2160.4214590938027 2735.5302260541566
2161.0442410334927 2793.1288512031247
2161.6668728853874 3229.454984402153
2162.289354684628 2993.2197418155124
2162.911686466332 3083.9358699040777
2163.533868265602 3362.53556409702
2164.1559001175337 3583.1758008333986
2164.7777820572046 3340.9437521993177
2165.399514119681 3061.8600175667625
2166.021096340013 2895.3366372531177
2166.6425287532384 3420.3320735312823
2167.263811394385 2991.208266345544
2167.8849442984574 3412.1318222551927
2168.505927500455 2984.0882240173873
2169.126761035366 3259.051004361087
2169.7474449381552 2931.1388554860705
2170.367979243778 2647.0926310505356
2170.9883639871823 3326.976528241553
2171.608599203293 3205.582602927464
2172.2286849270276 3688.3199706101886
2172.8486211932886 3911.673825570605
2173.4684080369625 3397.5905508388178
2174.0880454929265 2949.3575110331044
2174.7075335960417 2717.902965241504
2175.3268723811543 3267.5190074424277
2175.9460618831 2793.5925106565023
2176.565102136701 3074.3147398419355
2177.1839931767627 3711.661463564512
2177.802735038078 3148.9126835073257
2178.421327755432 2997.341400311736
2179.0397713635866 2977.2763658328317
2179.658065897298 2969.0622086408125
2180.276211391305 3334.8479726894875
2180.8942078803357 3289.9426944533852
2181.5120553991 3244.792923445637
2182.129753982299 2911.8413323117757
2182.7473036646206 3174.1842179438518
2183.3647044807367 3192.6054545205125
2183.9819564653044 2847.8982071627875
2184.599059652968 3229.9334149226065
2185.216014078367 3173.2256428268433
2185.832819776113 2715.2154921546426
2186.4494767808137 2841.396003144941
2187.065985127063 2967.6126596570093
2187.682344849436 3100.575660545912
2188.298555982501 3323.01161013979
2188.9146185608097 3177.8333196491067
2189.530532618901 3443.886281193124
2190.1462981912937 3268.5972184380794
2190.761915312507 3275.4269041134216
2191.377384017036 2918.839839801899
2191.9927043393654 3087.8374368642185
2192.6078763139667 3356.1911614051432
2193.2228999753006 2817.391928042333
2193.837775357808 3061.5435619726068
2194.452502495922 2520.0374127732493
2195.0670814240602 3085.5972302744162
2195.6815121766285 2713.004823350556
2196.2957947880186 2657.401065235172
2196.9099292926057 2601.6943085006574
2197.523915724758 3085.7539601394997
2198.137754118825 2992.6512878385242
2198.7514445091456 3311.5944877426946
2199.3649869300443 2786.8714096684494
2199.9783814158327 3632.947435034492
2200.5916280008096 3680.270065908842
2201.2047267192593 3356.614556943151
2201.8176776054515 3158.3838314824748
2202.430480693649 2768.073559333361
2203.0431360180955 3379.2051232431295
2203.6556436130195 3287.5957845893804
2204.268003512645 2597.8216328370027
2204.8802157511727 3085.851667699456
2205.492280362796 3557.231626614071
2206.1041973816937 3054.2526730571362
2206.715966842032 3076.9657504098104
2207.3275887779655 3133.2862297982633
2207.93906322363 3026.3627007605187
2208.550390213153 2997.56398875582
2209.1615697806465 3266.9024554873367
2209.7726019602105 2895.9994949892944
2210.3834867859277 2758.2978639396974
2210.9942242918787 3029.525904781122
2211.6048145121167 3070.4746844621136
2212.2152574806914 3813.697806819286
2212.825553231638 3063.1682590432592
2213.435701798975 3815.796941403297
2214.045703216707 3107.5713688299056
2214.655557518832 2743.012625702451
2215.2652647393297 2586.6800743401363
2215.874824912169 2514.15118165852
2216.4842380713 3062.6551766510715
2217.09350425067 2797.574854979454
2217.7026234842033 3238.412387183098
2218.311595805819 3171.177441018087
2218.9204212494133 2943.6878066715644
2219.52909984888 3175.7662186394055
2220.137631638092 2623.906312730461
2220.7460166509154 3338.4812193117023
2221.354254921198 2723.687500296454
2221.9623464827764 2990.3021631893816
2222.5702913694713 3113.741246621098
2223.178089615096 3304.997172515506
2223.7857412534486 2958.3520957282512
2224.39324631831 2619.6863285641625
2225.000604843457 2976.738097022874
2225.607816862641 3100.5136416710498
2226.214882409611 3167.989769290828
2226.8218015180973 3054.6950698898886
2227.4285742218217 2685.0217072215673
2228.0352005544864 2908.027209808238
2228.6416805497847 2704.02486814022
2229.248014241399 2861.8998785647127
2229.8542016629945 2696.7274925082047
2230.460242848223 2928.7832924530594
2231.0661378307304 2812.2140306938522
2231.671886644139 2695.5862024501157
2232.277489322065 2767.0101181931964
2232.8829458981127 2368.9961992066887
2233.48825640587 2820.028239749833
2234.0934208789095 3508.936828356667
2234.6984393507955 3282.598054846994
2235.3033118550793 3200.3407781772908
2235.9080384252975 2788.407706428001
2236.5126190949723 2610.992255954183
2237.1170538976166 2845.37636339669
2237.721342866729 2524.55698431004
2238.32548603579 2724.181294814994
2238.9294834382763 2825.97272822206
2239.533335107646 2985.050999797315
2240.1370410773434 2830.436589252884
2240.740601380803 2609.5088440523027
2241.3440160514474 2874.560967303906
2241.9472851226783 3245.957186330465
2242.550408627896 3029.3791065546043
2243.1533866004793 3367.7510251487356
2243.756219073799 2916.632172160248
2244.3589060812064 2656.5677228891045
2244.961447656049 2698.816324314844
2245.5638438316564 2754.5058573374968
2246.166094641343 2881.388294922159
2246.7682001184166 2801.2581671156295
2247.3701602961664 2993.773033509558
2247.971975207871 3020.4789558934363
2248.5736448867974 3182.3390323901103
2249.175169366197 2810.6575121261226
2249.7765486793123 2881.5611064388536
2250.3777828593684 3087.9027695044288
2250.9788719395783 3026.1066039218053
2251.579815953146 2826.851670418312
2252.1806149332606 2728.678210155321
2252.781268913097 2951.3397020066104
2253.381777925817 2769.3498927017367
2253.9821420045737 2913.0524118493317
2254.5823611825035 3124.299802303039
2255.1824354927303 2954.1769607786828
2255.782364968365 2698.537304404791
2256.38214964251 2442.6279122470137
2256.9817895482483 2636.448801161264
2257.5812847186553 2850.1698354440546
2258.180635186791 2630.121600954631
2258.779840985704 2692.4949188219025
2259.37890214843 2854.3772805516237
2259.97781870799 3372.0922996529757
2260.5765906973957 3171.5792401834906
2261.175218149645 2854.494464918097
2261.773701097718 3107.7278123723104
2262.3720395745895 2495.1245555742644
2262.970233613216 2593.9941135161566
2263.568283246548 2782.253075636444
2264.1661885075137 2434.296639205885
2264.763949429038 2489.0937639344907
2265.3615660440246 3059.8242520678464
2265.959038385374 2568.47876735288
2266.5563664859637 3135.595033616039
2267.153550378669 2554.076563291857
2267.7505900963424 3012.806110604112
2268.3474856718312 2614.910756354883
2268.9442371379664 2798.923537891659
2269.5408445275643 2748.384271981396
2270.1373078734377 2836.872948226394
2270.7336272083758 2657.8681547854785
2271.32980256516 2761.7455278775133
2271.925833976562 3049.7124272260908
2272.5217214753357 3126.4491413488736
2273.117465094223 2691.812881269659
2273.7130648659586 2560.6983052734586
2274.308520823257 2410.845127674988
2274.903832998827 2853.7615312936023
2275.4990014253563 2551.2204236761913
2276.094026135528 2917.884565536519
2276.6889071620117 2729.001546676648
2277.2836445374614 2714.3723935056228
2277.878238294519 2852.7640632951525
2278.472688465812 2755.8548278058283
2279.066995083962 2658.7065317362235
2279.6611581815705 2683.9127113343443
2280.255177791232 3107.307888385328
2280.8490539455233 2822.414009650151
2281.442786677013 3267.1117687026135
2282.0363760182554 3154.980516958719
2282.6298220017943 2653.4539752670476
2283.223124660155 3145.857611555509
2283.816284025859 2493.747164724783
2284.4093001314086 3052.9718924107538
2285.002173009292 2397.8632805290717
2285.5949026919952 2958.3418339185355
2286.1874892119777 2731.225666177789
2286.7799326016993 2919.528449412231
2287.3722328936 2578.4050866318303
2287.964390120109 2275.73740815058
2288.556404313642 2983.2478695819177
2289.1482755066027 3137.072093245806
2289.7400037313873 2901.435950195337
2290.3315890203703 2441.2199808866694
2290.9230314059205 2514.2475511451216
2291.5143309203904 2587.4717138312885
2292.1054875961236 2532.7677243334333
2292.6965014654506 2934.278723538335
2293.287372560684 2742.1889531122183
2293.878100914131 2629.208030091736
2294.468686558086 2516.0704868548078
2295.059129524827 2689.041957090228
2295.649429846617 2978.612360838008
2296.239587555716 2835.1396337276155
2296.8296026843636 2917.8049669813463
2297.419475264791 2768.076016892082
2298.0092053292137 2617.896420261447
2298.598792909839 2812.0869261515
2299.1882380388597 2739.000139725055
2299.777540748455 2817.844833970829
2300.3667010707904 2896.615324186246
2300.9557190380256 2959.276025497734
2301.544594682302 2685.5981075984646
2302.1333280357503 3090.1400468672437
2302.721919130485 2853.2050002930287
2303.3103679986198 3374.2959240477517
2303.898674672242 3096.698470312963
2304.486839183437 2550.114029227988
2305.0748615642697 2681.470254256773
2305.6627418468015 2640.697502096033
2306.2504800630704 2632.324886273501
2306.8380762451143 2615.926349740029
2307.425530424949 2734.6981829928945
2308.012842634582 2853.721325054235
2308.6000129060103 3356.773454724965
2309.187041271214 3410.964767004636
2309.773927762164 3162.0001529329743
2310.3606724108213 2912.533179232073
2310.9472752491274 2428.5770272170353
2311.5337363090184 2808.664079382558
2312.120055622414 2805.621819621868
2312.706233221221 2691.2976640774564
2313.2922691373424 2906.817917967794
2313.8781634026564 2460.064136201503
2314.463916049037 2651.9397321931738
2315.049527108342 2755.4352303823202
2315.6349966124235 2982.60382958183
2316.2203245931123 3058.5985322129372
2316.8055110822315 2368.989380031989
2317.3905561115935 2502.1566660844583
2317.9754597129977 2409.0169752471243
2318.560221918229 2347.1473573468656
2319.1448427590603 2285.1884469662587
2319.729322267256 2435.605292197844
2320.313660474563 2428.6518072674
2320.8978574127195 2777.878113387344
2321.481913113452 3128.16713861447
2322.0658276084705 2558.5877858302624
2322.6496009294806 2796.1170403465753
2323.233233108165 2768.307486997358
2323.8167241762058 2690.1029966826695
2324.4000741652617 2569.6249430683306
2324.983283106987 2771.1975255042807
2325.5663510330232 3099.162119386851
2326.1492779749933 2629.3873258232666
2326.7320639645204 2739.790758733456
2327.3147090332004 2532.910049505386
2327.897213212629 2592.145134573838
2328.4795765343843 2651.264315152716
2329.0617990300307 2512.6091815752443
2329.643880731124 2535.3290894454285
2330.22582166921 2558.2065950095307
2330.807621875816 3113.9673484767513
2331.3892813824623 2184.259505207207
2331.9708002206517 2293.1445458514763
2332.5521784218818 2445.6991580465524
2333.133416017634 2598.6721002289037
2333.7145130393765 2643.96387152795
2334.295469518571 2846.1489659661574
2334.876285486658 3030.0460003800804
2335.456960975076 2967.6654076413706
2336.037496015242 2905.1967795830797
2336.6178906385667 2730.549436833863
2337.198144876451 2958.186347566506
2337.778258760278 2627.16934387748
2338.3582323214214 2305.669901395066
2338.938065591243 2808.648175697877
2339.517758601087 3171.536674183699
2340.0973113822965 2961.296632160805
2340.676723966193 2802.2517701492607
2341.255996384094 2739.5063427001987
2341.835128667295 3113.910478637533
2342.4141208470883 2902.5292523904827
2342.992972954751 2602.397264360716
2343.5716850215467 2359.7084369857316
2344.1502570787306 2116.464617613342
2344.7286891575386 2293.8836842684586
2345.3069812892045 3107.784876136181
2345.885133504944 2941.4836180656457
2346.4631458359618 2520.4997251740956
2347.04101831345 2503.00399806315
2347.6187509685915 2853.2532020165154
2348.196343832553 2446.766420809961
2348.7737969364935 2587.897349418775
2349.351110311558 2310.0588687485583
2349.9282839888765 2570.2549468494262
2350.5053179995757 2418.1513109422467
2351.0822123747585 2447.984358096186
2351.658967145526 2415.809477817632
2352.2355823429643 2383.721720074201
2352.812057998144 2754.4614556170973
2353.3883941421263 2249.4882995234466
2353.9645908059647 2833.836031140716
2354.540648020693 2671.384751041752
2355.116565817336 2457.5434244190064
2355.6923442269126 2568.7525998430983
2356.2679832804224 2680.1900605722467
2356.8434830088518 2546.9285749503865
2357.41884344318 2300.0126937192103
2357.994064614377 2283.6859605516324
