#exp_cfg={"servo_angle": 0.0, "laser_lim": 100.0, "servo_angle_to": 18.0, "laser_wup": 0.0, "bt_dev": "EnSpectr-25AE3", "laser_wdn_max": 0.0, "frames": 10.0, "servo_used": 0, "servo_calib_use": 0, "laser_wdn_min": 0.0, "servo_pix_from": 90.0, "cooler_tout": 300.0, "servo_angle_from": 0.0, "servo_calib": "[-1.9174921013161362e-09, 3.9322238269163779e-05, -0.27385609119055809, 653.59552119713567]", "laser_autoctl": 0, "servo_pix_to": 3682.0, "laser_pw": 100.0, "cooler_on": 0, "laser_volt": 4.0, "cooler_autoctl": 0, "cooler_curr": 70.0, "cooler_startup": 10.0, "laser_fixed_pw": 0, "gain": 1.3, "offset": 2.53059635486, "servo_calib_degree": 3.0, "laser_curr": 55.0, "shutter": 8200.0, "servo_calib_step": 1.0, "laser_fixed_curr": 0, "exp": 2000.0, "ccd_volt": 4.7, "bt_addr": "00:06:66:62:5A:E3", "servo_delay": 500.0, "laser_autooff": 1}
#proc_cfg={"flat_auto_wnd": 200.0, "flat_auto_fr": 200.0, "flat_auto_shift": 5.0, "yconv": 1, "flatten": 1, "flatten_strength": 100.0, "xfrom": 300.0, "auto_max_frame": 2000.0, "auto_signal": 48000.0, "flat_auto_tol": 0.1, "autoclip": 1, "xrel_range": 0.0, "flat_auto_to": 4000.0, "intensity_adj": 1.0, "xrel": 7852.0, "rmhot": 1, "flat_auto_slit": 4.999999999999997, "auto_ini_exp": 300.0, "auto_off": 0, "xto": 2860.0, "flat_auto_ref": "", "flat_auto_rank": 1, "autobackg": 0, "xrel_adj": 0.0, "auto_black_lvl": 1, "base_wnd": 100.0, "sub_baseline": 0, "xconv": 2, "auto_max_exp": 1000.0, "auto_total_exp": 10000.0, "auto_exp": 0, "rmripple": 0, "black_lvl": 8283.5625, "shutter_clip_adj": 0.0, "auto_bckg": 0, "flat_auto_thr": 0.9, "subbackg": 1}
316.8218498245369 13549.396476926526
317.89969571804795 13366.063062680772
318.977263876126 13343.366508824975
320.05455438786703 13234.018720852651
321.1315673423287 13159.088450691668
322.2083028285215 13283.781506397154
323.2847609354267 13172.534331676778
324.3609417519747 13158.292140959335
325.43684536705587 13021.618775632058
326.5124718695279 13045.932860328672
327.58782134820103 12979.951792927732
328.66289389184385 13103.48537637703
329.7376895891921 12829.566655714532
330.8122085289342 12925.549902765415
331.88645079971866 12871.978319035265
332.9604164901575 12813.286633404981
334.03410568881554 12738.497213146205
335.1075184842266 12874.2300002122
336.18065496487543 12718.684283628094
337.2535152192122 12712.429695083254
338.32609933564163 12673.9165777392
339.39840740253203 12664.09296926228
340.4704395082099 12690.217728350883
341.5421957409617 12528.291996525053
342.6136761890357 12645.291815763509
343.6848809406365 12515.69522669745
344.75581008392874 12522.420602135897
345.82646370703696 12490.136339548804
346.8968418980512 12450.237194693289
347.96694474501055 12507.474371040551
349.0367723359268 12415.620701895084
350.106324758759 12389.682652998528
351.1756021014353 12395.019931735664
352.2446044518383 12400.989585582047
353.31333189781435 12387.731607407994
354.38178452716966 12387.912349008195
355.449962427665 12354.720535372482
356.51786568702846 12338.188241773245
357.58549439294256 12415.55601513367
358.6528486330535 12437.900242079637
359.71992849496564 12356.262648676431
360.7867340662433 12384.812277782836
361.8532654344144 12439.497686445255
362.9195226869597 12414.392696831907
363.9855059113288 12379.810413585798
365.05121519492604 12219.910404376144
366.11665062511565 12373.451237434818
367.1818122892273 12331.461053566109
368.2467002745434 12346.164713232312
369.31131466831175 12324.748405543733
370.375655557742 12317.318208943307
371.4397230299983 12331.689681351247
372.5035171722102 12222.264572500342
373.5670380714637 12194.0866857652
374.6302858148101 12359.678710588576
375.6932604892554 12350.613004561674
376.7559621817709 12379.3969945162
377.81839097928605 12224.32119903446
378.8805469686886 12281.889951112229
379.94243023683157 12384.745147158466
381.0040408705263 12296.053809607114
382.0653789565458 12196.063280660392
383.1264445816196 12260.2809832077
384.1872378324406 12185.38868087279
385.2477587956637 12169.242891173526
386.3080075579037 12113.658578793144
387.3679842057336 12052.932630135041
388.4276888256918 12176.483820582518
389.48712150426945 12093.011397811333
390.54628232792857 12013.382522284408
391.6051713830857 11957.783519224377
392.66378875611736 12043.278810458387
393.7221345333637 11946.01140397257
394.7802088011249 11897.56183376521
395.838011645661 11981.037930733683
396.89554315319765 11933.793344678958
397.9528034099112 11798.35958403253
399.00979250194723 11802.435346822363
400.06651051541485 11686.518604188612
401.1229575363741 11786.926888498663
402.17913365085224 11715.395460016089
403.23503894483656 11746.07635806596
404.2906735042761 11648.432056671585
405.3460374150818 11650.434677932686
406.401130763119 11635.345544049447
407.455953634224 11716.576679199785
408.5105061141876 11597.2117371279
409.56478828876243 11489.429640490076
410.6188002436629 11512.793832482774
411.6725420645689 11514.747062067723
412.72601383711117 11527.375928139703
413.77921564689314 11577.648018916792
414.8321475794728 11445.235220608849
415.88480972036814 11438.264702563501
416.93720215506437 11433.347460648749
417.9893249690049 11316.438840255116
419.04117824759123 11286.569403926489
420.09276207619223 11347.977453560752
421.144076540133 11341.23611252444
422.1951217247042 11254.94902003351
423.24589771515275 11374.151104068069
424.2964045966928 11292.097810760242
425.34664245449494 11287.475838751821
426.3966113736933 11289.388334771782
427.4463114393875 11182.280623696184
428.49574273662984 11257.76181908423
429.5449053504417 11149.152705159364
430.5937993658026 11244.082144838154
431.6424248676558 11134.19425935272
432.6907819409007 11056.531598345124
433.73887067040596 11170.986958448117
434.7866911409965 11140.27531929917
435.8342434374608 11088.792840625856
436.88152764455117 11113.519981317972
437.9285438469724 11058.231149406372
438.9752921294057 10982.203094198663
440.02177257648145 10995.683610195869
441.06798527279716 10832.80057008057
442.1139303029122 11123.945394298386
443.1596077513459 11143.29207731853
444.2050177025794 10913.063566600978
445.25016024105753 11010.841424628263
446.2950354511886 10921.806353555106
447.33964341733736 10904.942813117284
448.383984223834 10945.627190413104
449.4280579549686 10851.945455503226
450.471864694995 10844.848268453028
451.5154045281306 10939.269349963713
452.5586775385509 10856.881512011749
453.60168381039693 10859.731474985296
454.64442342776783 10999.926117844021
455.6868964747264 10912.095315699919
456.7291030353008 10831.155436842717
457.77104319347563 10953.424630039268
458.8127170332027 10849.111434965725
459.854124638392 10887.779369155167
460.895266092919 10953.797775147515
461.93614148061897 10876.060782944991
462.97675088529104 10965.583649867654
464.01709439069236 10941.174355722964
465.0571720805492 10864.235344120541
466.0969840385442 10963.888495374324
467.1365303483253 11040.444565554671
468.17581109350067 10904.890064180536
469.2148263576437 10867.764427050253
470.2535762242878 10982.683941511677
471.29206077693016 11055.044228775481
472.33028009902773 11095.344506074176
473.3682342740012 11128.467001991037
474.40592338523857 11064.409567943934
475.4433475160804 11085.242970822204
476.4805067498364 11063.058421763842
477.51740116978 11032.777250533116
478.5540308591426 11134.146682196566
479.59039590112116 11168.866257816582
480.6264963788726 11081.10961623328
481.6623323755193 11264.6527825958
482.6979039741436 11203.88781285841
483.7332112577915 11368.636496201314
484.76825430947247 11461.676283344223
485.80303321215797 11429.186107933243
486.837548048783 11482.275136473607
487.8717989022425 11739.015219411809
488.90578585539697 11652.0230669134
489.9395089910686 11711.145911805232
490.97296839203955 11683.144346317938
492.00616414106116 11594.31210009296
493.0390963208429 11583.951011393796
494.0717650140559 11610.219404955642
495.10417030333883 11576.165762158638
496.1363122712901 11530.801858247785
497.16819100046814 11432.410794802558
498.1998065734024 11298.675871097572
499.2311590725767 11209.43255051965
500.26224858044407 11131.102973913632
501.2930751794156 11112.790327541106
502.3236389518679 11012.330811193495
503.35393998014115 10933.122939985544
504.38397834653733 10934.521930026689
505.4137541333221 10920.621639683344
506.4432674227228 10776.31546349634
507.4725182969323 10707.986708211247
508.5015068381035 10688.915807456493
509.53023312835467 10756.18028286111
510.55869724976765 10591.77643253221
511.58689928438434 10595.035824072851
512.6148393142121 10581.167324318532
513.6425174212218 10670.30555104479
514.6699336873462 10642.408473948119
515.6970881944835 10647.663458336543
516.7239810244901 10495.66744453055
517.7506122591931 10610.567535816463
518.7769819803761 10508.290600127144
519.8030902697901 10580.127752922022
520.8289372091476 10550.11277993058
521.8545228801249 10701.993271392961
522.8798473643619 10587.986946972018
523.9049107434621 10535.174908446654
524.9297130989908 10570.00669552002
525.9542545124805 10524.263402692779
526.9785350654201 10527.695318377006
528.0025548392696 10530.736455361268
529.0263139154504 10519.403821814596
530.0498123753423 10611.57112337715
531.073050300296 10527.945236966238
532.0960277716204 10376.515683771944
533.1187448705896 10485.569151111653
534.1412016784416 10497.445152915523
535.1633982763833 10433.945239734503
536.1853347455726 10345.019498990143
537.2070111671401 10446.469352337765
538.2284276221817 10316.779213053433
539.2495841917516 10265.918723812898
540.2704809568677 10171.437856603083
541.2911179985167 10194.485582084768
542.3114953976419 10198.012394080743
543.3316132351592 10060.475170892572
544.3514715919409 9983.636756571652
545.3710705488247 10021.29344229721
546.3904101866156 10007.379117995024
547.4094905860784 10018.42582097594
548.4283118279418 10014.47491492606
549.4468739929034 10007.397938490943
550.4651771616191 9918.5166219046
551.4832214147063 9832.406000763514
552.501006832761 9970.326140114352
553.5185334963226 9870.99943159962
554.5358014859103 9923.322029809256
555.5528108820035 9920.767226030297
556.5695617650363 9851.27300670982
557.5860542154242 9925.288123117001
558.6022883135283 9870.01147796982
559.6182641396881 9793.296140394837
560.6339817741991 9847.600577887384
561.6494412973225 9949.05931109753
562.6646427892883 9981.707511100332
563.6795863302796 9836.759958540737
564.694272000459 9815.222611426916
565.7086998799423 9958.287734346486
566.7228700488104 9907.069370342952
567.7367825871115 9791.902041555044
568.7504375748576 9850.48907019823
569.7638350920224 9888.521079807717
570.7769752185486 9881.145739432397
571.7898580343353 9878.431826571887
572.802483619258 9790.933732146423
573.8148520531431 10014.446097588743
574.8269634157932 9902.851605255004
575.8388177869692 9886.204966162188
576.8504152463938 9910.483542378655
577.8617558737587 10090.37952959472
578.8728397487175 9915.693161099402
579.883666950891 9976.459141358268
580.8942375598654 10089.55838312205
581.9045516551851 10068.293917897721
582.9146093163617 10315.496943303415
583.924410622878 10071.298207479826
584.9339556541727 10124.906088334876
585.9432444896538 10293.558550337993
586.9522772086875 10361.302606967092
587.9610538906127 10355.770449274685
588.9695746147318 10229.169361709497
589.9778394603054 10202.372127874005
590.985848506567 10207.121633616302
591.9936018327098 10147.032719298299
593.0010995178891 9952.005045177959
594.0083416412344 10139.590901213662
595.0153282818283 9908.042352429908
596.0220595187293 9909.09946594912
597.0285354309508 9830.074644663877
598.0347560974806 9878.045067202695
599.0407215972609 9873.601157529254
600.0464320092051 9764.834938718586
601.0518874121954 9834.883863418288
602.0570878850685 9787.367218245969
603.062033506636 9745.843832558623
604.0667243556636 9669.518541848496
605.0711605108936 9655.678601174826
606.0753420510264 9923.353413029343
607.0792690547278 9748.262124262994
608.082941600629 9588.236196954362
609.0863597673306 9705.834657163443
610.0895236333909 9792.221168936052
611.0924332773357 9900.972435710888
612.0950887776617 9799.965415355995
613.0974902128219 9781.82495166976
614.0996376612384 9963.605137167786
615.1015312013005 10012.551868170349
616.1031709113595 10053.384028495975
617.1045568697336 10016.547739917807
618.1056891547069 10051.03130691286
619.1065678445229 10108.891911465085
620.1071930173985 10373.315859609045
621.1075647515099 10321.963611844576
622.1076831250048 10365.334917771937
623.1075482159849 10467.764853125278
624.1071601025305 10508.555836719677
625.1065188626781 10560.752461309276
626.105624574433 10847.864138987832
627.1044773157682 10899.377350400515
628.1030771646128 10880.589939110636
629.1014241988742 10993.449815122676
630.0995184964158 11099.775142602488
631.0973601350688 11196.369709870789
632.0949491926294 11392.472087425747
633.0922857468631 11091.751432474
634.089369875499 11232.811696108123
635.0862016562278 11247.524369111135
636.0827811667077 11063.75930147304
637.0791084845641 11108.989758210853
638.0751836873878 10974.920418649841
639.0710068527369 11040.64227574923
640.0665780581294 10740.077052399478
641.0618973810506 10736.62129834948
642.0569648989604 10811.15704656321
643.0517806892676 10545.41432937816
644.0463448293649 10600.137733656766
645.040657396592 10383.455337486474
646.0347184682723 10310.583511401563
647.0285281216875 10160.71770951866
648.0220864340772 10089.001169524892
649.0153934826558 10005.965223310586
650.0084493446047 9980.947794294954
651.0012540970674 10063.035973568458
651.9938078171526 9869.974340839006
652.9861105819346 9892.183100574282
653.9781624684565 9954.469085381423
654.9699635537254 9673.096172523528
655.9615139147136 9841.383555236791
656.9528136283589 9674.987396049426
657.9438627715699 9800.394062166732
658.9346614212154 9767.558418479615
659.925209654135 9457.546547410298
660.9155075471263 9510.894768123957
661.9055551769616 9546.460861733412
662.895352620375 9749.665550798165
663.8848999540678 9492.937243292212
664.8741972547068 9363.762882036124
665.863244598926 9373.657284766789
666.8520420633213 9450.306652198113
667.8405897244611 9329.009049375418
668.8288876588758 9218.74430858847
669.8169359430613 9348.2541086469
670.8047346534822 9306.355439647527
671.7922838665672 9192.187237251483
672.7795836587156 9283.574955587253
673.766634106285 9447.650231674706
674.7534352856092 9187.232134009824
675.7399872729766 9213.269999620532
676.7262901446538 9243.935380078863
677.712343976862 9235.57943100559
678.6981488457986 9336.635851141913
679.6837048276229 9162.372224024386
680.6690119984596 9255.729545466067
681.6540704344043 9231.15610896714
682.6388802115107 9130.203360052928
683.6234414058108 9141.739799439169
684.6077540932874 9050.59672196475
685.591818349907 9124.178036130277
686.575634251587 9133.16409869677
687.5592018742263 9051.563399532923
688.5425212936734 8888.577780280984
689.5255925857564 9280.537387118638
690.5084158262707 9049.929126373503
691.4909910909646 8949.888049144898
692.4733184555644 8931.791095936678
693.4553979957618 9054.279571909257
694.4372297872123 8964.119112117514
695.4188139055404 8882.978022383555
696.4001504263324 8753.870593161266
697.3812394251509 8937.1128673399
698.3620809775111 8797.815702886051
699.3426751589104 8837.878135080151
700.3230220448004 8780.042968657235
701.3031217106054 8827.286592570143
702.2829742317172 9046.17063402115
703.2625796834873 8620.028892574777
704.2419381412474 8657.303424990114
705.22104968028 8779.569742767642
706.1999143758458 8621.183837562536
707.178532303169 8718.507027596741
708.1569035374378 8741.63495631324
709.1350281538107 8723.275747856958
710.1129062274158 8668.603961998506
711.0905378333373 8786.250390726049
712.0679230466376 8791.754947615258
713.0450619423427 8862.061858715188
714.0219545954424 8971.616411477295
714.9986010808989 8819.904072746229
715.9750014736292 8864.888095644985
716.9511558485392 8973.417636961934
717.9270642804786 9131.608063571213
718.9027268442787 9109.916184505511
719.8781436147328 9058.631487730923
720.8533146666014 9107.921093860696
721.828240074612 9161.852769408406
722.8029199134635 9046.264244218819
723.7773542578125 9041.62143941855
724.751543182294 9006.782997899869
725.7254867615029 9052.404617278322
726.6991850700015 8769.434358088907
727.6726381823228 8813.674401380722
728.6458461729599 8823.749956982407
729.6188091163858 8823.908451473
730.5915270870246 8796.834223828686
731.5640001592856 8751.506843065532
732.536228407529 8813.858573071759
733.5082119060917 8820.84418989591
734.4799507292755 8657.500988003241
735.4514449513481 8633.630568530487
736.4226946465496 8645.957468104429
737.3936998890786 8782.078521707854
738.3644607531078 8573.075263760653
739.3349773127793 8646.599578130556
740.3052496421951 8702.456933509562
741.27527781543 8547.892525732716
742.2450619065221 8471.98107900309
743.2146019894826 8523.921464496827
744.183898138288 8546.75325769944
745.1529504268801 8466.978915440548
746.1217589291682 8366.891251152303
747.0903237190341 8410.207027284187
748.058644870318 8425.199132613603
749.0267224568397 8315.231165268777
749.994556552374 8217.537571186354
750.9621472306771 8304.130722421016
751.9294945654583 8280.474493797792
752.8965986304011 8277.564615041458
753.8634594991636 8213.080253080983
754.8300772453586 8303.96641328433
755.7964519425768 8218.080391680896
756.762583664371 8362.934005742927
757.7284724842611 8334.665625233589
758.6941184757416 8187.118222826153
759.6595217122667 8235.787988010541
760.6246822672638 8273.054874942876
761.5896002141235 8094.581095865778
762.5542756262093 8222.852041092096
763.5187085768503 8210.790621285554
764.4828991393406 8223.336616446128
765.4468473869474 8216.25851970191
766.4105533929032 8208.030070642588
767.3740172304078 8175.6724277204585
768.3372389726283 8236.023476091117
769.3002186926988 8118.446260955975
770.2629564637282 8140.8486517724505
771.2254523587872 8112.936647816187
772.1877064509154 8031.368571534001
773.1497188131179 7938.895851066113
774.1114895183728 7926.301261434723
775.0730186396268 7968.416520886525
776.0343062497905 7958.658456190754
776.9953524217381 7854.734062333014
777.9561572283274 8016.977377651599
778.9167207423689 7900.109999183723
779.8770430366476 7857.2503954630665
780.8371241839159 7843.334857940841
781.7969642568951 7878.646440916424
782.7565633282757 8021.839110916788
783.7159214707099 7821.168847416797
784.6750387568281 7848.065273178273
785.6339152592227 7813.858834116118
786.5925510504512 7804.998841465861
787.5509462030477 7832.841070010215
788.5091007895098 7851.749509460737
789.4670148823006 7849.985068126938
790.4246885538596 7833.221778375881
791.3821218765861 7775.689406210241
792.3393149228505 7664.828396487303
793.2962677649975 7781.017326994105
794.2529804753303 7848.733778374755
795.20945312613 7841.062893542556
796.1656857896378 7733.111973506396
797.1216785380675 7655.964915885181
798.0774314435985 7830.550915670872
799.0329445783846 7963.623625658418
799.9882180145414 7869.064185224501
800.9432518241574 7793.3707847900605
801.89804607929 7973.323974393704
802.852600851962 8011.439822180719
803.8069162141637 7849.55194861795
804.760992237856 7921.074659196172
805.714828994971 8072.34120132301
806.6684265574077 8084.830196192293
807.6217849970271 7950.30092700225
808.574904385674 7865.873093478907
809.527784795142 8097.013746806447
810.4804262972102 8103.614513417454
811.4328289636178 7914.636747742152
812.3849928660748 7779.232209198259
813.3369180762638 7821.253980747626
814.2886046658241 7903.048455806264
815.2400527063783 7688.601683882256
816.1912622695108 7748.164307644021
817.1422334267718 7780.696557150775
818.0929662496856 7595.472494387434
819.0434608097457 7531.015814391432
819.9937171784059 7632.245496616371
820.9437354271013 7493.459404821054
821.8935156272255 7610.075191763119
822.8430578501484 7508.057393193977
823.7923621672016 7379.8943599995055
824.7414286496896 7414.830961079737
825.6902573688876 7470.398986937145
826.6388483960363 7357.297514354596
827.5872018023492 7310.013871091081
828.5353176590033 7403.115785690177
829.4831960371503 7292.83506026427
830.4308370079016 7314.071343730262
831.3782406423525 7278.220111244591
832.3254070115545 7363.768328573712
833.2723361865319 7280.820298213938
834.2190282382799 7173.165435170669
835.1654832377644 7262.110820127719
836.1117012559116 7144.06118557809
837.0576823636256 7371.284348964868
838.003426631778 7187.801583246925
838.9489341312074 7139.793389414447
839.8942049327197 7320.691534383007
840.8392391070975 7352.492742684546
841.7840367250865 7181.385365799944
842.7285978573982 7185.193014049978
843.672922574724 7335.193667465431
844.6170109477152 7184.633678420621
845.560863046996 7211.87294943858
846.5044789431595 7144.522278141034
847.4478587067697 7096.623104360059
848.3910024083561 7299.898753180137
849.333910118421 7173.565096269229
850.2765819074339 7129.291233582652
851.2190178458332 7194.988835771762
852.161218004032 7260.446830731979
853.1031824524016 7190.034650970201
854.0449112612987 7077.640153550607
854.9864045010327 7303.440492823053
855.9276622418947 7186.064371409311
856.8686845541379 7130.881980407197
857.8094715079915 7095.500532605605
858.7500231736467 7302.500269167072
859.690339621271 7217.962042874862
860.6304209209939 7197.849104496248
861.5702671429244 7082.330658261171
862.5098783571284 7205.5189490439125
863.4492546336569 7192.54492579101
864.3883960425155 7144.0205592961165
865.3273026536863 7116.435689571558
866.2659745371238 7116.885028958791
867.2044117627465 7308.499852604893
868.1426144004472 7106.887570093017
869.0805825200823 7239.842170238409
870.0183161914847 7237.250474550829
870.9558154844526 7351.218294606908
871.8930804687552 7266.306953983343
872.8301112141307 7141.716888922549
873.7669077902865 7323.995859317212
874.7034702669062 7413.199866598962
875.6397987136315 7316.515237147554
876.5758932000863 7403.637639629478
877.5117537958522 7473.028615985002
878.4473805704911 7361.263082467044
879.3827735935283 7407.5803329428045
880.3179329344603 7527.48539463038
881.2528586627541 7555.736011569471
882.1875508478479 7602.553240792338
883.1220095591489 7472.620972358304
884.0562348660296 7438.08378448689
884.9902268378391 7466.232984036209
885.9239855438955 7394.01252105302
886.8575110534839 7399.636892031832
887.7908034358588 7469.646479901731
888.7238627602474 7422.570920682583
889.6566890958475 7348.568701601847
890.5892825118208 7224.955536871321
891.5216430773125 7313.566131925074
892.4537708614189 7241.295015752963
893.3856659332196 7185.754634626571
894.3173283617652 7121.436006689602
895.2487582160684 7170.7752601571165
896.179955565116 7152.480574624227
897.110920477864 7083.75996720671
898.0416530232451 7077.671273474722
898.9721532701478 7016.912204303306
899.9024212874428 7181.5168674080705
900.8324571439662 6929.092863036516
901.7622609085302 6982.706856563755
902.6918326499072 6910.538104815438
903.6211724368477 7008.4618160404625
904.5502803380696 7063.247458637512
905.4791564222614 7155.115927243052
906.4078007580792 6926.293344884796
907.3362134141571 6864.4219306560235
908.2643944590909 7027.361544646526
909.1923439614493 6939.644588042209
910.1200619897754 6890.039751993025
911.0475486125779 7062.134329282507
911.9748038983344 6942.131947745927
912.9018279155007 6882.179385494844
913.8286207324982 6783.089392241061
914.7551824177117 6931.742974492806
915.6815130395116 6827.17525879671
916.6076126662283 6737.404406346597
917.533481366163 6819.296695637446
918.4591192075914 6863.490413866067
919.3845262587565 6877.357413950395
920.3097025878706 6766.709138018266
921.2346482631237 6749.96142169848
922.1593633526682 6757.295740458253
923.0838479246304 6917.051164628598
924.0081020471061 6844.481734734497
924.9321257881656 6583.394598919009
925.8559192158464 6707.9075483659835
926.7794823981512 6662.619655287213
927.7028154030686 6642.383733153962
928.6259182985414 6534.880296230724
929.5487911524906 6731.282801727517
930.4714340328119 6720.663106723601
931.3938470073608 6489.964970414389
932.3160301439748 6589.229893175517
933.2379835104548 6582.505933230427
934.1597071745709 6643.184414368901
935.0812012040769 6657.549907511563
936.002465666681 6621.009835582842
936.9235006300696 6635.53025490037
937.8443061619055 6615.090713279018
938.7648823298077 6497.888138517847
939.6852292013809 6519.603221655572
940.6053468441951 6604.7805596824055
941.5252353257874 6436.52595006746
942.4448947136698 6568.401809524597
943.364325075323 6482.00940819402
944.2835264782043 6599.682574567558
945.2024989897309 6495.530171093264
946.1212426773054 6516.978966408991
947.0397576082851 6584.1054194010885
947.9580438500125 6655.797991167771
948.8761014697939 6715.649210655106
949.7939305349064 6584.879212156797
950.7115311125999 6476.643416311466
951.6289032700952 6471.524576930674
952.5460470745875 6619.933373567229
953.4629625932339 6492.863582473172
954.3796498931715 6520.308337515115
955.2961090415029 6560.922193802634
956.2123401053068 6568.4863296291105
957.1283431516276 6455.971085819735
958.0441182474842 6494.5804016755865
958.9596654598663 6586.697528698994
959.8749848557309 6459.541786811952
960.7900765020167 6436.444410221446
961.7049404656209 6346.796993566112
962.6195768134185 6419.105305340676
963.5339856122537 6500.211281879906
964.4481669289453 6466.690283534738
965.3621208302793 6383.815031992997
966.2758473830145 6466.036667795038
967.1893466538822 6608.0044014828745
968.1026187095813 6409.575439898538
969.0156636167867 6323.10752627898
969.9284814421426 6524.285959828784
970.8410722522622 6419.386983252983
971.753436113735 6380.487409618485
972.6655730931161 6356.904021534005
973.5774832569368 6412.881302613034
974.4891666716958 6393.550440118881
975.4006234038698 6353.989909125967
976.3118535198955 6260.220807291938
977.2228570861935 6487.703366179683
978.1336341691494 6432.5178171432035
979.0441848351202 6321.553922107976
979.9545091504333 6452.488336536108
980.864607181391 6478.349083268876
981.7744789942699 6429.792482317102
982.6841246553086 6372.066055896426
983.5935442307236 6433.205821669913
984.5027377867027 6469.46369080232
985.4117053894024 6411.008132008237
986.3204471049557 6349.32529974401
987.2289629994648 6453.12934735641
988.1372531390007 6574.868164953923
989.0453175896091 6484.117136964399
989.9531564173067 6437.262825812705
990.860769688079 6358.287125430717
991.7681574678918 6420.429949686106
992.6753198226706 6450.559012430684
993.582256818323 6387.108932857727
994.4889685207218 6360.933842253742
995.3954549957143 6608.718006662484
996.301716309119 6622.594635663144
997.2077525267232 6417.207519316873
998.1135637142943 6436.884781704755
999.0191499375615 6585.492574400075
999.924511262232 6600.3065136575115
1000.8296477539861 6576.544646665277
1001.7345594784656 6389.143150389241
1002.6392465012996 6497.697680209367
1003.5437088880753 6607.374551833763
1004.4479467043584 6530.666756958273
1005.3519600156869 6348.601620250169
1006.2557488875718 6585.169169831095
1007.1593133854858 6500.5567035967715
1008.0626535748888 6376.986402052785
1008.9657695212009 6279.360108569797
1009.8686612898182 6568.8754914471865
1010.7713289461135 6527.4153796979
1011.6737725554212 6385.501411725627
1012.5759921830577 6389.357790617363
1013.4779878943027 6435.87581546891
1014.379759754418 6532.483505209484
1015.2813078286254 6322.607221551063
1016.18263218213 6220.3072813236095
1017.0837328801026 6284.589421588047
1017.9846099876886 6393.06127285993
1018.8852635700023 6261.609953238827
1019.7856936921362 6169.116538606227
1020.6859004191447 6391.661601901345
1021.5858838160675 6170.866725166386
1022.4856439479063 6178.475222451814
1023.3851808796389 6127.234433290311
1024.2844946762143 6360.938698185186
1025.183585402554 6313.544596209628
1026.082453123554 6053.659830735644
1026.9810979040776 6172.920557699484
1027.8795198089647 5987.0521049965155
1028.777718903024 6166.67377929571
1029.6756952510368 6066.705450162293
1030.5734489177648 6110.528146976109
1031.4709799679313 6034.054345895604
1032.3682884662358 6285.1763202706725
1033.2653744773506 5911.899204791774
1034.1622380659192 5898.643744874969
1035.058879296559 6045.84398432206
1035.9552982338591 6088.25897275257
1036.8514949423825 6013.457607184275
1037.7474694866614 5915.197312432529
1038.6432219312028 5808.768610910685
1039.5387523404825 6157.973177903021
1040.4340607789582 5951.958546809291
1041.3291473110476 6019.821378135068
1042.2240120011465 6082.782977933113
1043.1186549136273 6162.449197878158
1044.0130761128294 6030.032428764111
1044.9072756630649 6007.814838130925
1045.8012536286205 6092.843488887221
1046.6950100737577 6078.080081530914
1047.588545062701 6227.060025590083
1048.481858659663 6107.041663809101
1049.3749509288118 6306.495818807827
1050.2678219343034 6123.201255343084
1051.1604717402515 6165.115600234711
1052.0529004107575 6127.635682540278
1052.9451080098825 6186.280808310219
1053.8370946016694 6150.80697587885
1054.7288602501267 6232.380808549654
1055.6204050192446 6201.203628867738
1056.511728972977 6225.205327030856
1057.402832175254 6193.871635807778
1058.2937146899785 6029.576342557864
1059.1843765810263 5997.069047467135
1060.0748179122456 6175.005383971671
1060.9650387474576 6076.824763148621
1061.855039150456 6108.644627638565
1062.7448191850071 6086.289951334611
1063.6343789148505 6078.91831297631
1064.5237184037014 6181.6749478557485
1065.412837715241 6008.642509068266
1066.3017369131267 6049.671496985918
1067.190416060992 6019.842157220096
1068.0788752224398 5927.2454168829645
1068.9671144610438 5850.62261429649
1069.8551338403558 6071.991977407749
1070.7429334239023 6015.110107723656
1071.6305132751695 5880.449686513528
1072.517873457633 5983.852071147675
1073.4050140347335 5841.977871231238
1074.2919350698776 5957.339612802625
1075.1786366264623 5915.740733001798
1076.0651187678395 5869.640232072832
1076.95138155735 5832.976562255752
1077.8374250582929 5810.416910965148
1078.7232493339507 5861.934378070497
1079.608854447577 5752.062625277764
1080.4942404623907 5751.377974100404
1081.3794074415982 5831.271945168517
1082.2643554483657 5825.626158312463
1083.149084545841 5802.193654605003
1084.033594797138 5663.158230982729
1084.9178862653516 5726.970700020388
1085.8019590135427 5821.394996417413
1086.6858131047484 5611.922722627782
1087.5694486019802 5759.975656639615
1088.4528655682225 5753.172968770845
1089.3360640664287 5818.867444873931
1090.2190441595321 5642.1583332308865
1091.1018059104317 5700.5998825346505
1091.98434938201 5766.545894390729
1092.866674637111 5849.911222708136
1093.748781738559 5711.281315450723
1094.6306707491512 5591.94839388786
1095.5123417316554 5708.977650010058
1096.3937947488157 5630.295142849646
1097.2750298633455 5590.205938276968
1098.156047137938 5524.746961993907
1099.0368466352556 5641.685541542987
1099.9174284179317 5784.9760969320105
1100.7977925485757 5486.380596145426
1101.6779390897755 5554.705367792299
1102.5578681040806 5643.900597098291
1103.4375796540226 5577.950772952409
1104.3170738021054 5514.952466726595
1105.1963506108077 5423.786161201479
1106.0754101425773 5473.386070965023
1106.9542524598382 5567.442479147735
1107.8328776249855 5480.267056064394
1108.7112857003904 5526.776300203082
1109.5894767483987 5473.871626200054
1110.4674508313292 5631.004177761872
1111.3452080114657 5526.327217155625
1112.2227483510815 5657.115220820005
1113.1000719124077 5575.114655839089
1113.9771787576592 5702.577685465502
1114.854068949022 5501.141886124094
1115.7307425486542 5655.412362954347
1116.6071996186893 5681.305510841386
1117.483440221229 5973.025600364371
1118.3594644183577 5671.193876543713
1119.235272272128 5661.849627153572
1120.1108638445658 5757.568287649422
1120.9862391976712 5985.691106881641
1121.8613983934229 5774.221164026766
1122.7363414937627 5887.630407974865
1123.6110685606182 5862.458571172001
1124.485579655884 6063.317427405357
1125.359874841426 5961.550824689371
1126.2339541790916 5929.089442398234
1127.1078177306936 6173.499211796837
1127.9814655580267 5990.654682102433
1128.854897722851 5972.414535767804
1129.7281142869106 5918.391226757004
1130.6011153119125 6030.880101617311
1131.473900859548 6157.003819371084
1132.3464709914697 6062.663059635517
1133.2188257693178 6048.374776606968
1134.0909652546961 5982.654628748297
1134.96288950919 5848.464166603724
1135.8345985943506 6063.415778377704
1136.7060925717087 5800.787178310773
1137.57737150277 5954.88876044849
1138.4484354490069 5997.306580895152
1139.3192844718778 5817.584849299323
1140.1899186327992 5616.022355934289
1141.060337993178 5836.318002076239
1141.930542614382 5699.390996238917
1142.8005325577597 5668.929760697046
1143.670307884635 5520.768534404929
1144.5398686563003 5774.918528168049
1145.409214934025 5620.623719681617
1146.2783467790541 5415.6176687777415
1147.1472642526023 5533.623585191632
1148.0159674158622 5514.466464634563
1148.8844563300026 5385.578927061031
1149.7527310561618 5342.7869155084545
1150.6207916554504 5289.84150166033
1151.4886381889592 5305.901726113875
1152.3562707177498 5391.127940150976
1153.2236893028585 5237.819476102869
1154.090894005296 5214.295308910125
1154.9578848860474 5238.938225373519
1155.8246620060709 5271.535536718637
1156.6912254262988 5080.5494727003515
1157.5575752076438 5142.804754736474
1158.42371141098 5325.625955618382
1159.2896340971656 5303.17219620149
1160.1553433270346 5189.340720304041
1161.0208391613887 5274.692366394613
1161.8861216610057 5275.601382528202
1162.75119088664 5277.697280116041
1163.6160468990201 5222.011290575634
1164.4806897588442 5094.220924073033
1165.3451195267917 5277.20119319623
1166.2093362635114 5270.819333177396
1167.0733400296285 5211.676829292457
1167.9371308857444 5153.6123167670285
1168.8007088924278 5185.075879097729
1169.6640741102328 5182.789853324077
1170.5272265996773 5082.936555705335
1171.390166421259 5053.362091307723
1172.252893635452 5081.410046986805
1173.1154083026995 5300.7174897491
1173.977710483421 5197.091761533866
1174.8398002380145 5004.1213526679585
1175.7016776268483 5172.400216188936
1176.563342710264 5175.424815773956
1177.4247955485826 5035.122823534884
1178.2860362020947 5208.329999589983
1179.147064731069 5026.8310216946675
1180.0078811957483 5184.819415736301
1180.8684856563486 5019.89228130783
1181.7288781730604 5091.0304215038595
1182.589058806052 5213.188906410591
1183.4490276154593 5290.574833663943
1184.3087846614017 5080.720741443887
1185.1683300039676 5125.8561935085645
1186.027663703222 5354.867628276058
1186.8867858192025 5212.385776339734
1187.7456964119228 5179.077418523019
1188.6043955413716 5283.19783546852
1189.4628832675116 5243.13378985529
1190.3211596502842 5405.181292884927
1191.179224749596 5485.806483597463
1192.0370786253388 5205.239312070227
1192.8947213373758 5420.210567386257
1193.7521529455407 5516.177177840501
1194.6093735096438 5308.473563876369
1195.466383089477 5314.986164387458
1196.3231817447977 5384.394360277727
1197.1797695353398 5526.944138712033
1198.0361465208189 5205.051244209985
1198.8923127609214 5241.2313643533635
1199.7482683153048 5435.7590058862
1200.6040132436028 5606.461681342271
1201.459547605431 5360.668927928646
1202.3148714603722 5442.335369772498
1203.1699848679855 5429.811404520304
1204.0248878878065 5512.0453877041855
1204.8795805793507 5220.43397650833
1205.7340630020935 5411.923301043817
1206.5883352155033 5464.256794451279
1207.4423972790064 5533.907501408305
1208.2962492520237 5248.043077781354
1209.1498911939307 5305.151593866405
1210.0033231640937 5365.429284687208
1210.8565452218427 5351.5901444853935
1211.7095574264913 5108.335147954134
1212.5623598373222 5169.558736788588
1213.4149525135963 5164.607324365073
1214.2673355145507 5305.554382266308
1215.1195088993936 5054.809271901688
1215.9714727273113 5164.232404282103
1216.8232270574663 5262.5085599464455
1217.6747719489904 5068.2584171395265
1218.5261074609934 5052.180274649783
1219.3772336525653 5105.312698315696
1220.2281505827668 5136.369413821073
1221.0788583106296 5267.9082636217645
1221.9293568951707 4998.396246403968
1222.7796463953746 5022.2923806624185
1223.629726870202 5160.3826012085365
1224.4795983785934 5268.649169007245
1225.3292609794553 5123.544354276002
1226.1787147316809 4976.7755470717575
1227.0279596941327 5055.352853545492
1227.8769959256424 4990.384330843256
1228.7258234850306 5134.578009073197
1229.5744424310833 4879.98000854672
1230.422852822563 5161.056741603149
1231.2710547182105 5295.252624947368
1232.119048176739 5092.156856952702
1232.9668332568417 4934.849356210669
1233.8144100171812 5101.993294779675
1234.6617785163999 5101.608070167665
1235.508938813111 4800.90115431723
1236.3558909659114 4992.275614345092
1237.2026350333617 5053.152969255774
1238.049171074008 5222.051549767233
1238.8954991463652 4936.617188153374
1239.741619308932 4990.461146224089
1240.587531620169 5052.763066108344
1241.4332361385277 5113.890739708323
1242.2787329224248 5033.414226281016
1243.1240220302534 4853.174557391575
1243.9691035203869 4900.565887103147
1244.813977451171 5128.701193483878
1245.6586438809263 4983.274185797306
1246.5031028679496 4814.25994886202
1247.3473544705157 5083.117699481926
1248.1913987468706 5006.257595835772
1249.0352357552383 4786.109007554028
1249.8788655538228 4917.312688127105
1250.7222882007918 5072.132286802518
1251.565503754302 4990.495539680629
1252.4085122724755 4781.926934687812
1253.2513138134182 4971.849633104544
1254.0939084352049 4988.377972761466
1254.9362961958905 4964.367711031211
1255.7784771535007 4875.61593751809
1256.6204513660432 4952.518388967499
1257.4622188915 5146.6195763853375
1258.3037797878242 4900.067618138057
1259.1451341129468 4817.64836448767
1259.9862819247755 4945.672128241206
1260.8272232811978 4994.273313929301
1261.6679582400666 5123.399169885208
1262.5084868592203 4797.539990140371
1263.34880919647 4787.83669980624
1264.1889253095997 4867.831987843309
1265.0288352563712 5035.400817404112
1265.8685390945266 4769.816503402077
1266.7080368817751 4937.472860842795
1267.5473286758115 5075.369460052612
1268.386414534294 4927.256469467596
1269.2252945148703 4667.009658365878
1270.0639686751547 4755.2911834789975
1270.9024370727402 4718.973061854849
1271.7406997651997 4767.579939219844
1272.5787568100714 4633.088297423575
1273.4166082648808 4715.512845536281
1274.2542541871244 4835.60975442836
1275.091694634275 5037.724713127189
1275.9289296637817 4645.251743414073
1276.7659593330663 4800.636758376093
1277.6027836995308 4676.14047885982
1278.4394028205552 4884.074804565631
1279.2758167534867 4778.343277677372
1280.112025555658 4670.838697748669
1280.9480292843746 4812.991293216439
1281.7838279969128 4571.626931159632
1282.6194217505326 4605.963737252282
1283.4548106024686 4583.427735275077
1284.289994609926 4615.915975647126
1285.1249738300921 4695.321984124794
1285.959748320127 4628.550519686661
1286.7943181371702 4686.780305041366
1287.6286833383328 4713.408808866018
1288.4628439807038 4775.360026465913
1289.2968001213521 4607.160165953051
1290.1305518173194 4704.87585655591
1290.9640991256183 4780.1308967253935
1291.7974421032523 4638.276096634855
1292.630580807183 4628.873475484051
1293.463515294361 4744.434473341313
1294.29624562171 4862.636865533793
1295.12877184613 4702.891037119913
1295.961094024493 4676.122343587999
1296.79321221365 4785.663974140154
1297.6251264704333 4734.183885008088
1298.4568368516466 5047.418861594391
1299.2883434140658 4827.144455899546
1300.1196462144526 4626.808889406506
1300.9507453095375 4782.542627101613
1301.7816407560313 4800.478759333073
1302.6123326106172 4788.635456518679
1303.4428209299622 4662.786011547556
1304.2731057707024 4988.630712787357
1305.1031871894502 4732.51958484485
1305.933065242798 4863.27000814942
1306.7627399873181 4720.3588514891
1307.5922114795467 5048.231943253887
1308.4214797760123 4941.082969134466
1309.2505449332057 4838.62383346657
1310.0794070076026 4954.493494341254
1310.9080660556538 5002.667344988398
1311.736522133786 5069.355134700791
1312.5647752983987 4822.88703822079
1313.3928256058734 4631.281607788069
1314.2206731125661 4958.792383416518
1315.048317874809 4901.408825840759
1315.8757599489109 4781.959492564928
1316.7029993911547 4795.015305211396
1317.5300362578055 4940.892652440964
1318.356870605101 4801.110805835933
1319.183502489257 4756.747106587283
1320.0099319664623 4920.359220532592
1320.836159092889 4902.078700561937
1321.66218392468 4961.9578493391955
1322.4880065179532 4778.6219501906235
1323.3136269288134 4817.9724187821
1324.1390452133292 4992.6810000118885
1324.9642614275563 5100.12980604973
1325.7892756275214 4786.2145715083625
1326.6140878692295 4709.634531008756
1327.4386982086617 5191.305423229622
1328.2631067017755 4848.6487065914125
1329.0873134045069 4832.6894413842
1329.911318372764 4822.066856166597
1330.735121662441 4962.126406981859
1331.558723329399 4802.106357497335
1332.3821234294774 4774.39058251064
1333.2053220185007 4770.624872675826
1334.0283191522612 4738.588807578187
1334.851114886529 4916.456484865228
1335.6737092770582 4685.7909178904865
1336.4961023795695 4766.877954552068
1337.3182942497697 4553.54364011751
1338.1402849433325 4836.642580780915
1338.962074515921 4557.411876616965
1339.7836630231632 4552.048717285719
1340.6050505206676 5062.518257638761
1341.426237064028 4848.618257702338
1342.2472227088037 4663.847507490652
1343.0680075105338 4567.191757997918
1343.888591524741 4737.851374081117
1344.7089748069138 4875.625658156752
1345.5291574125276 4660.733598378535
1346.3491393970307 4552.321729562788
1347.168920815846 4757.698644554147
1347.9885017243778 4831.952705858353
1348.8078821780036 4576.743085403695
1349.6270622320844 4598.835540792297
1350.4460419419447 4593.836796014448
1351.2648213629054 4765.364093010432
1352.0834005502438 4520.124203550842
1352.90177955923 4533.82459635355
1353.7199584451064 4630.616373618151
1354.5379372630887 4679.598798876972
1355.355716068374 4576.656194666928
1356.1732949161305 4545.912613622311
1356.9906738615155 4615.82128841848
1357.8078529596478 4684.964448378016
1358.6248322656375 4690.381300215711
1359.441611834567 4564.645302366945
1360.2581917214866 4688.463278647663
1361.0745719814367 4595.238862040759
1361.890752669433 4550.2813181120555
1362.7067338404577 4518.870060139084
1363.5225155494845 4813.96526678456
1364.3380978514506 4780.37361194919
1365.1534808012839 4488.563921034567
1365.9686644538815 4363.861140502673
1366.783648864117 4811.871727733982
1367.5984340868417 4881.507102670443
1368.413020176893 4707.6223150250935
1369.2274071890715 4455.261777386307
1370.0415951781652 4785.640108127611
1370.8555841989346 4554.3820143948715
1371.6693743061223 4438.595464726798
1372.48296555444 4409.799779542953
1373.2963579985844 4728.078760780916
1374.1095516932255 4645.460357703675
1374.9225466930166 4400.142673604844
1375.7353430525782 4615.456624119279
1376.5479408265164 4557.7991118678165
1377.36034006941 4696.107514909929
1378.1725408358216 4601.106379984857
1378.9845431802805 4300.161427715528
1379.796347157304 4795.989629482474
1380.6079528213813 4684.832496882313
1381.4193602269788 4328.7521832447255
1382.230569428546 4385.447446564796
1383.0415804805016 4673.872377960286
1383.852393437246 4626.184388553283
1384.6630083531563 4491.469983937772
1385.4734252825892 4374.825877030671
1386.2836442798798 4566.534092735087
1387.0936653993322 4509.909605971711
1387.9034886952395 4425.695979432099
1388.713114221864 4498.496527087014
1389.5225420334482 4571.291550150756
1390.331772184214 4456.532981973171
1391.1408047283585 4144.271958597519
1391.9496397200564 4388.843578327413
1392.758277213461 4467.904329796767
1393.5667172627054 4580.426294422026
1394.3749599218918 4360.274871209507
1395.1830052451114 4220.911310983165
1395.9908532864265 4342.968006043977
1396.7985040998774 4500.750014038149
1397.6059577394808 4271.939113433441
1398.4132142592352 4330.285005689804
1399.2202737131156 4325.986399512349
1400.027136155073 4425.297111323709
1400.8338016390353 4185.321933658324
1401.6402702189134 4272.866016375714
1402.446541948586 4347.95495319304
1403.2526168819204 4228.1970270520815
1404.058495072757 4227.64333025718
1404.8641765749107 4261.641615485465
1405.6696614421799 4343.225778197032
1406.4749497283356 4634.788584941361
1407.280041487129 4166.957055139322
1408.084936772295 4053.546336261239
1408.8896356375335 4368.840366481146
1409.6941381365323 4327.97559489816
1410.498444322955 4046.6717135418994
1411.3025542504402 4192.934910552362
1412.106467972606 4263.321067634509
1412.9101855430508 4308.143018239734
1413.7137070153458 4001.898140553828
1414.5170324430437 4185.835560468268
1415.320161879672 4283.059757193683
1416.1230953787435 4476.2721029400545
1416.925832993742 4126.713414916616
1417.7283747781275 4010.510921163082
1418.5307207853439 4354.986161412382
1419.3328710688093 4228.653184647663
1420.134825681922 3997.5233480168945
1420.9365846780584 4085.91534761308
1421.7381481105713 4307.8251126373925
1422.539516032788 4225.03134292284
1423.3406884980232 3986.6257671427365
1424.1416655595604 4034.433381860808
1424.942447270665 4181.564419397582
1425.7430336845828 4243.104776873989
1426.5434248545298 4010.4479764802118
1427.3436208337116 4126.540601955277
1428.143621675301 4175.101338529434
1428.9434274324558 4276.373401102473
1429.7430381583108 3942.742538669725
1430.5424539059713 4155.708835157423
1431.3416747285337 4491.675243798849
1432.1407006790632 4299.077557697295
1432.9395318106053 4130.841206338386
1433.7381681761835 3985.8778658300207
1434.5366098288014 4215.203849366671
1435.3348568214424 4275.399213329808
1436.1329092070573 4067.560402489134
1436.9307670385879 4137.6926977150815
1437.7284303689503 4243.619868782394
1438.5258992510335 4393.460530202994
1439.3231737377118 4200.88643295615
1440.1202538818306 4072.8528443311384
1440.9171397362225 4118.215755400056
1441.7138313536925 4204.815772490433
1442.5103287870243 4047.116715845569
1443.3066320889775 3935.2967952347913
1444.1027413122956 4251.147631189644
1444.8986565096966 4127.669792820614
1445.694377733882 4052.4204312418724
1446.4899050375207 3938.9798472159646
1447.2852384732687 4086.7383974601107
1448.0803780937622 4186.317209538591
1448.8753239516063 3901.353829345895
1449.6700760993954 3882.0905050105384
1450.464634589689 3946.149062445983
1451.2589994750397 4292.515395477934
1452.0531708079689 3882.891456727265
1452.8471486409799 3834.372564199165
1453.6409330265524 4286.907259350216
1454.4345240171442 3943.8414830762717
1455.2279216651987 3904.408625098006
1456.0211260231263 3801.293339092813
1456.8141371433194 4171.720795247381
1457.6069550781594 4150.447664577943
1458.3995798799897 3832.877314708402
1459.1920116011424 3872.3410885860767
1459.98425029393 3782.350059925272
1460.7762960106338 3787.494926374966
1461.5681488035225 3888.5518814373127
1462.3598087248392 3922.726277100678
1463.1512758268036 4129.856958055195
1463.942550161617 3882.022161695061
1464.7336317814625 3753.3910850246803
1465.524520738496 3824.765600752551
1466.3152170848552 3785.866054424581
1467.1057208726506 3908.772478465493
1467.8960321539817 3720.6801284850276
1468.6861509809169 3629.3481597063706
1469.4760774055085 3773.6742177239767
1470.265811479785 3823.6441272090997
1471.055353255755 3674.2334112160142
1471.844702785409 3613.1176328154224
1472.6338601207044 3623.5039697867687
1473.4228253135934 3912.1626457987127
1474.2115984159936 3547.265236308038
1475.0001794798063 3437.169184892083
1475.7885685569145 3746.907864845306
1476.576765699172 3628.3930103468506
1477.3647709584238 3541.5682863334587
1478.1525843864802 3796.8610394601856
1478.9402060351367 3708.6542013535995
1479.7276359561693 3733.3829763036106
1480.514874201328 3502.945327351171
1481.3019208223468 3404.9580242185502
1482.0887758709323 3367.0489000879547
1482.8754393987747 3778.32040712314
1483.6619114575406 3381.5630326342202
1484.4481920988783 3462.0038798695655
1485.2342813744108 3717.8815744689336
1486.0201793357446 3795.2578522845006
1486.8058860344572 3387.97271718342
1487.591401522117 3451.809308324094
1488.3767258502594 3500.368694682556
1489.1618590704056 3571.0061671232957
1489.9468012340494 3198.4066946756857
1490.7315523926754 3651.9265101814854
1491.5161125977356 3637.6549745755087
1492.3004819006637 3599.4710749198966
1493.084660352877 3273.9645145383065
1493.8686480057622 3549.5737594021966
1494.6524449106964 3792.653956063024
1495.4360511190262 3767.982835591567
1496.219466682087 3511.5578613571524
1497.0026916511779 3440.077464261729
1497.7857260775945 3593.331738963203
1498.5685700125996 3665.388646411694
1499.3512235074395 3280.2031406086135
1500.133686613337 3359.3879605358807
1500.9159593814966 3491.471664215957
1501.698041863101 3898.4848928553647
1502.4799341093094 3342.4360733574395
1503.2616361712662 3276.4208432722203
1504.043148100087 3510.4312312583415
1504.8244699468742 3569.986312562248
1505.6056017626997 3263.7975148834157
1506.3865435986281 3345.9442095243453
1507.1672955056893 3565.352513846346
1507.9478575348967 3415.0851760708038
1508.7282297372512 3545.0209398942075
1509.5084121637192 3373.122524199543
1510.2884048652577 3476.312988621371
1511.0682078927948 3373.219074371358
1511.8478212972423 3351.5053831093123
1512.6272451294917 3367.6218429373353
1513.4064794404076 3480.593142093261
1514.1855242808433 3460.89570257909
1514.9643797016215 3414.8510522018173
1515.743045753552 3474.5543110734734
1516.5215224874191 3521.5979112957116
1517.2998099539836 3221.864294682829
1518.077908203999 3406.2709150608853
1518.8558172881785 3322.3892605157844
1519.633537257234 3469.7629218132947
1520.4110681618404 3522.3379470553577
1521.1884100526604 3459.0963058609864
1521.9655629803365 3332.8648485648346
1522.7425269954856 3637.6960207391517
1523.5193021487103 3712.164538853887
1524.2958884905856 3161.1511282699093
1525.0722860716687 3371.959690459036
1525.848494942502 3303.236879267924
1526.624515153595 3461.5345542644877
1527.4003467554485 3387.7664372096324
1528.175989798534 3518.0048684174603
1528.9514443333064 3436.1215103083086
1529.726710410203 3638.532620536726
1530.5017880796331 3252.809447339594
1531.276677391992 3365.2618317798633
1532.0513783976457 3686.9169557912332
1532.825891146953 3442.84975715966
1533.6002156902414 3417.6753945250484
1534.3743520778207 3417.1566434406136
1535.1483003599806 3430.255802606909
1535.9220605869923 3474.3939897037417
1536.6956328091019 3441.3524573741515
1537.4690170765407 3471.042230063663
1538.242213439511 3492.3034581543893
1539.015221948208 3415.715857457536
1539.78804265279 3312.3834188024534
1540.560675603405 3284.7032283692906
1541.3331208501804 3589.0365049944703
1542.1053784432224 3696.3066095993977
1542.8774484326168 3484.5824104833214
1543.649330868422 3408.3251274811773
1544.4210258006842 3441.082478912115
1545.1925332794308 3390.9538280613538
1545.9638533546604 3356.5637853393782
1546.7349860763552 3350.4968656382744
1547.5059314944829 3739.4773181216574
1548.27668965898 3562.607459705472
1549.0472606197673 3465.743638351406
1549.817644426752 3357.4172331715426
1550.5878411298072 3530.8482447073557
1551.3578507787988 3403.3930111861264
1552.1276734235635 3270.000260554506
1552.8973091139233 3398.358463154589
1553.6667578996767 3598.8284804018776
1554.436019830604 3446.299594157134
1555.20509495646 3362.888408757629
1555.9739833269869 3253.2632299720235
1556.7426849919011 3360.238717356192
1557.511200000903 3672.868420907158
1558.2795284036674 3455.464189446548
1559.0476702498509 3370.123145346247
1559.8156255890954 3602.4327268276566
1560.5833944710157 3796.4432382139335
1561.3509769452048 3241.5157449460903
1562.1183730612447 3348.36659090795
1562.8855828686865 3450.6079115952707
1563.6526064170703 3735.441095945528
1564.4194437559127 3600.9714493939246
1565.1860949347047 3437.6150712671756
1565.9525600029283 3724.9451760875186
1566.7188390100328 3794.7162499721258
1567.4849320054564 3488.676680665355
1568.250839038612 3484.907021275661
1569.0165601588997 3453.971761800264
1569.7820954156887 3539.578800501855
1570.5474448583373 3440.1318422724116
1571.31260853618 3372.5544534433707
1572.0775864985299 3261.7475702723705
1572.8423787946813 3511.9569652432083
1573.6069854739108 3350.4095529980696
1574.371406585471 3422.2647908975546
1575.1356421785986 3465.54220316634
1575.899692302506 3289.621217633276
1576.6635570063845 3492.0616054394072
1577.4272363394157 3421.3483685305387
1578.190730350747 3481.6562064510945
1578.9540390895163 3535.03066395001
1579.7171626048384 3124.160321123607
1580.480100945806 3285.549817982787
1581.2428541614918 3381.7663849587616
1582.0054223009538 3555.3601706935283
1582.767805413223 3443.471084522918
1583.5300035473156 3389.8273860107374
1584.292016752228 3603.252276819929
1585.0538450769309 3529.533886050774
1585.8154885703807 3201.0029400446097
1586.5769472815136 3221.8721013500067
1587.3382212592405 3387.0175128164033
1588.099310552463 3517.680756466915
1588.8602152100484 3370.9760960966596
1589.6209352808564 3478.897157890761
1590.3814708137234 3393.798399375205
1591.14182185746 3428.910447145514
1591.9019884608679 3381.7981552790175
1592.6619706727215 3160.1177594806013
1593.4217685417734 3430.263267165974
1594.1813821167616 3595.8901898408394
1594.9408114464022 3175.930153722516
1595.7000565793933 3255.093566527215
1596.459117564409 3480.3184200949136
1597.2179944501113 3272.9984817356376
1597.9766872851324 3280.4351377925022
1598.735196118092 3491.1784100076293
1599.4935209975883 3391.824090541633
1600.2516619721973 3580.818136290417
1601.0096190904787 3293.338794709972
1601.7673924009723 3209.9252603256678
1602.524981952196 3282.5100505184637
1603.2823877926476 3248.034712859885
1604.0396099708087 3169.4016879727924
1604.7966485351371 3181.059950566622
1605.5535035340745 3238.5676474380075
1606.3101750160404 3560.145898994967
1607.0666630294363 3103.186872297201
1607.822967622642 3144.4326885611767
1608.5790888440224 3371.3804068651793
1609.3350267419137 3472.0745542987215
1610.0907813646445 3265.6758435955567
1610.8463527605145 3200.0771003075743
1611.601740977805 3405.355335397585
1612.356946064785 3256.472611927217
1613.1119680696902 3064.6169113366573
1613.8668070407512 3216.365690042394
1614.6214630261748 3228.1953278005813
1615.375936074137 3467.9969936109437
1616.1302262328118 3269.9708377014313
1616.8843335503425 3242.795724487309
1617.638258074854 3181.9376553161865
1618.391999854457 3329.04975686181
1619.1455589372363 3394.361598656668
1619.8989353712623 3141.541195268468
1620.65212920458 2998.3624716681443
1621.4051404852235 3034.928530079521
1622.1579692611976 3234.0987616962743
1622.9106155804966 3022.658948213443
1623.663079491087 3063.1995351216797
1624.4153610409248 3257.122526318498
1625.1674602779385 3066.083206383305
1625.9193772500403 3046.194184829778
1626.6711120051277 3426.49924228677
1627.4226645910676 3148.222414547019
1628.174035055721 3072.4112603421554
1628.9252234469168 3124.3317151146994
1629.676229812474 3116.452675630817
1630.4270542001905 3523.866394984491
1631.1776966578382 3166.6169394476833
1631.9281572331747 3085.666901624334
1632.678435973945 3335.9152610304654
1633.4285329278573 3164.1631165382596
1634.1784481426203 2883.299840385445
1634.9281816659113 3209.810286009491
1635.677733545388 3368.3545652464163
1636.4271038286934 3065.826940569668
1637.176292563452 3262.1250895319104
1637.9252997972635 3160.8900842527123
1638.674125577716 3235.486619686437
1639.4227699523672 3649.3870666120865
1640.171232968767 2930.6121732487254
1640.9195146744423 3125.0312876398666
1641.6676151168977 3316.362669602102
1642.4155343436178 3388.9564669741762
1643.1632724020765 3150.3816063217914
1643.9108293397167 3201.6526673115764
1644.658205203974 3108.628429348813
1645.4054000422566 3648.0196590852006
1646.1524139019566 3084.811243559585
1646.8992468304423 2974.2591831075724
1647.6458988750728 3052.696216764173
1648.3923700831765 3185.808796893084
1649.1386605020743 3109.8963183883143
1649.8847701790564 3344.503913017864
1650.6306991614038 3276.0691880571785
1651.3764474963682 3316.507684426472
1652.1220152311944 2961.054545878684
1652.867402413096 3206.9747130274664
1653.6126090892776 3259.864121022699
1654.3576353069184 3412.265232338622
1655.1024811131829 3234.102667919132
1655.8471465552066 3064.7520011764273
1656.5916316801213 3444.192140190603
1657.3359365350298 3182.308991240036
1658.0800611670165 3103.7052321125216
1658.824005623148 3291.51312934539
1659.5677699504722 3044.5123704113967
1660.3113541960192 3272.9572634172728
1661.054758406799 3092.0677365844126
1661.7979826297997 3062.453554012848
1662.5410269119966 2988.3079023539735
1663.283891300338 3285.9153230377874
1664.0265758417645 3078.8888720480877
1664.7690805831826 3145.9740172078036
1665.5114055714948 3290.0954508219957
1666.2535508535748 3468.2630839432363
1666.9955164762814 2867.1497931475433
1667.7373024864555 3146.8730144969863
1668.478908930916 3151.4423205974354
1669.220335856462 3143.717653214054
1669.9615833098778 2914.1064794471517
1670.7026513379296 2941.544701310855
1671.44353998736 3115.6174577534357
1672.1842493048916 3149.064170996696
1672.9247793372379 2956.179296784623
1673.6651301310812 3177.6006165275417
1674.4053017330934 2945.710709422824
1675.1452941899242 3226.613045393865
1675.885107548207 2670.6117748276215
1676.6247418545518 2780.7788068752698
1677.3641971555535 2861.6920813353872
1678.1034734977893 3131.971176096746
1678.8425709278108 2949.428001063523
1679.5814894921605 3204.706867378256
1680.320229237359 3156.6986908978142
1681.0587902098978 3101.983227253285
1681.7971724562685 2934.764700301583
1682.5353760229264 2718.272228067047
1683.2734009563173 3055.1931810498054
1684.0112473028657 2672.573396573368
1684.7489151089794 3048.9268617994235
1685.4864044210462 2993.8911285778363
1686.2237152854377 2675.0752912139205
1686.960847748498 3072.8308383600815
1687.6978018565642 2715.520926398364
1688.434577655944 2617.8827740751126
1689.1711751929379 2668.1247603905513
1689.9075945138156 2889.1047195406377
1690.6438356648396 2739.170931332067
1691.3798986922448 2388.8915446138935
1692.1157836422499 2662.431010391435
1692.851490561059 2720.609884007201
1693.587019494853 2791.0520906640777
1694.3223704897991 2469.6689477961095
1695.0575435920364 2346.9877538999435
1695.792538847696 2971.809700314273
1696.527356302886 2629.876827050753
1697.2619960036936 2453.505557421064
1697.9964579961907 2166.573488207573
1698.730742326432 2237.916582646008
1699.4648490404488 2346.716473492298
1700.1987781842563 2472.5296139428247
1700.9325298038548 2728.990267246015
1701.6661039452174 2743.079027942368
1702.3995006543082 2572.364615796407
1703.1327199770658 2671.7399128568004
1703.865761959416 2442.933790074079
1704.598626647261 2845.5787315040084
1705.3313140864866 2365.871487531071
1706.0638243229587 2505.650843893944
1706.7961574025303 2677.4197263569686
1707.528313371029 2518.8914106950087
1708.260292274268 2300.914551140623
1708.9920941580403 2500.7505184140023
1709.7237190681226 2567.572663414804
1710.4551670502697 2461.1369542647108
1711.18643815022 2181.182193244993
1711.9175324136959 2305.390276795679
1712.6484498863938 2429.7915415788384
1713.379190614005 2201.3852722454626
1714.109754642188 2323.939930448899
1714.8401420165883 2310.912957580897
1715.570352782839 2907.7158375807403
1716.3003869865497 2554.599385912539
1717.0302446733076 2260.4783709725593
1717.7599258886876 2403.4327612657366
1718.4894306782444 2703.2969562862486
1719.2187590875183 2273.203308445796
1719.9479111620203 2628.702955786945
1720.6768869472544 2290.535486068199
1721.4056864887025 2687.100373275421
1722.1343098318284 2751.6273066450826
1722.8627570220742 2325.732277681439
1723.591028104871 2263.1719811444336
1724.3191231256242 2219.218403945136
1725.0470421297232 2419.440747266306
1725.7747851625427 2403.8321159920006
1726.5023522694337 2415.8648490371775
1727.2297434957363 2396.852222959485
1727.9569588867635 2168.9268355116756
1728.6839984878152 2485.9662786233057
1729.4108623441734 2008.2155928245934
1730.1375505011038 2516.842959943471
1730.8640630038426 2286.8306918612866
1731.5903998976264 2211.7885341604756
1732.316561227657 2345.0702024479024
1733.0425470391274 2232.5517568880073
1733.7683573772065 2442.3828847899285
1734.4939922870508 2294.9047874057824
1735.2194518137949 2382.800441670942
1735.9447360025606 2411.372650690082
1736.669844898439 2286.6094694793865
1737.3947785465189 2157.6006322619364
1738.1195369918605 1977.755877642256
1738.8441202795093 2215.5268864240743
1739.5685284544943 2407.5971235721267
1740.292761561821 2472.7307157466357
1741.0168196464838 2419.886502056486
1741.7407027534518 2313.285070546505
1742.464410927687 2422.034537289742
1743.187944214118 2229.4499103234634
1743.9113026576688 2126.561800241567
1744.634486303241 2280.301516845204
1745.3574951957125 2320.629968473634
1746.0803293799509 2528.973895841472
1746.8029889008048 2240.914522507563
1747.5254738031017 2462.9045853116363
1748.2477841316504 2241.5046794186264
1748.969919931249 2161.850058528392
1749.6918812466665 2274.6279468467933
1750.4136681226646 2504.558872065777
1751.1352806039777 2275.370985922683
1751.856718735331 1889.8221968020268
1752.5779825614281 2078.300155858899
1753.2990721269507 2294.4852128007196
1754.0199874765676 2285.4213106913303
1754.7407286549314 2085.3513595021604
1755.4612957066693 2108.648309819463
1756.1816886763954 2124.775398061728
1756.9019076087097 2318.124179264274
1757.6219525481865 2334.7278538637142
1758.3418235393856 2253.2381124980043
1759.061520626854 2169.0986250009337
1759.7810438551096 2422.42896645418
1760.5003932686614 2040.984387922566
1761.2195689119999 2530.489283285257
1761.938570829594 2224.9405594533955
1762.657399065898 2327.433201502608
1763.376053665348 2090.852978300515
1764.0945346723602 2004.2704378757055
1764.812842131334 2466.8246330284587
1765.5309760866512 2187.818343552171
1766.2489365826787 2059.76262187307
1766.9667236637597 2103.5310724791543
1767.684337374223 1906.6480744666933
1768.401777758383 2027.9807678395784
1769.1190448605284 2049.946989247388
1769.836138724937 2007.0688257920308
1770.5530593958665 2203.6411663236277
1771.2698069175603 2615.02791176354
1771.9863813342326 2264.248566529205
1772.702782690094 2051.836933418164
1773.4190110293293 2239.4839567772556
1774.1350663961111 2257.489993876083
1774.8509488345844 2081.4405869017164
1775.5666583888924 2223.550529594378
1776.2821951031437 2326.6000515566843
1776.9975590214362 2138.6860884371936
1777.7127501878585 2275.403257422823
1778.4277686464684 2157.7606000578826
1779.1426144413108 2439.95445700598
1779.8572876164162 2346.598599268518
1780.571788215797 1993.9177477906626
1781.2861162834415 2186.2975794099234
1782.0002718633277 2057.3595651153782
1782.7142549994132 2213.189847137877
1783.4280657356376 2186.2930716168175
1784.141704115922 2081.771264256455
1784.855170184177 2092.371163748589
1785.5684639842839 2217.5790665905693
1786.2815855601148 2270.1124557036387
1786.9945349555237 2322.704839894345
1787.707312214343 2017.5629693064093
1788.4199173803918 1960.4600890128436
1789.132350497468 1903.429265982682
1789.8446116093583 2054.7185926365823
1790.556700759822 2021.153146690192
1791.2686179926077 2145.453045627332
1791.9803633514493 2041.9780652834495
1792.6919368800554 1919.488923929245
1793.4033386221236 2182.039022728004
1794.1145686213295 2237.512585028794
1794.8256269213307 2322.518465756765
1795.536513565774 2079.2479901730007
1796.247228598284 1861.6964168546995
1796.9577720624693 2040.9086469953
1797.6681440019165 2139.126431894768
1798.3783444602013 2193.068484665445
1799.0883734808776 2138.3641154220536
1799.7982311074884 2168.3025992010744
1800.5079173835475 2171.7734374830084
1801.2174323525633 2264.241204939094
1801.9267760580187 2108.1376148976997
1802.635948543386 2204.5958991362354
1803.3449498521113 1932.2924917109322
1804.0537800276325 2213.995726610121
1804.7624391133668 1983.5325237385446
1805.47092715271 1797.5414738690004
1806.1792441890484 1918.920858622189
1806.8873902657433 2086.9695268204896
1807.5953654261448 2078.477533892391
1808.3031697135812 1982.7732383854218
1809.0108031713662 2006.6411515986933
1809.71826584279 1944.8086151498767
1810.425557771141 2102.5960593447176
1811.1326789996747 2500.3702113369363
1811.839629571632 2126.69547090255
1812.5464095302468 2076.8872228174378
1813.2530189187182 2054.470879748344
1813.959457780249 2092.9016981128907
1814.6657261580076 2104.620792017493
1815.371824095153 1995.2448894582874
1816.0777516348262 1830.2464175391658
1816.78350882015 1665.1503341764987
1817.4890956942272 1890.1689580648028
1818.1945123001533 1994.129101558201
1818.8997586809928 1987.7052210002971
1819.6048348798067 1841.3573852091188
1820.3097409396287 2138.282674917307
1821.0144769034796 2375.0534933588833
1821.7190428143622 2188.1707625239615
1822.423438715261 2239.407610025264
1823.1276646491478 1990.7662463984857
1823.8317206589727 2074.5049058262603
1824.5356067876692 2064.107997694326
1825.2393230781581 2043.5705794726377
1825.942869573335 1800.243548039918
1826.646246316086 1844.349852173511
1827.3494533492758 2115.543897745098
1828.052490715756 2070.63076687052
1828.7553584583547 2064.447733017242
1829.458056619891 2069.2618856061213
1830.1605852431585 1965.5518450904806
1830.8629443709433 1852.5891739041604
1831.5651340460063 1906.4544240713392
1832.2671543110919 1839.087211949737
1832.9690052089318 2091.419376001508
1833.6706867822395 1766.1024669531448
1834.3721990737104 2135.578853940104
1835.0735421260233 2079.9014596874267
1835.774715981841 1942.4077157198615
1836.4757206838058 2243.015658238325
1837.1765562745459 1828.1198393211569
1837.8772227966747 1888.3715829791513
1838.5777202927839 1948.549482744528
1839.2780488054523 1906.1591050818442
1839.9782083772352 1892.0861747699485
1840.6781990506806 1901.5904807592972
1841.378020868313 1910.9249773382344
1842.0776738726418 2071.9725154952803
1842.777158106157 1903.0416443317304
1843.4764736113375 1798.4636675534282
1844.1756204306403 1981.0381901252756
1844.8745986065078 2088.4821497097146
1845.5734081813607 1827.9057248359095
1846.2720491976124 1938.1587538568497
1846.970521697649 2000.1947148658564
1847.6688257238511 1926.907191019111
1848.3669613185684 1885.51722813762
1849.0649285241452 1758.726595296113
1849.7627273829057 2111.738893405198
1850.460357937156 1974.9720484631296
1851.1578202291857 1687.1002169692424
1851.8551143012664 1940.5523228486713
1852.5522401956569 1936.872504427511
1853.2491979545957 2137.663640020277
1853.9459876203055 1816.1480501883057
1854.6426092349902 1822.9925251872378
1855.3390628408451 1764.5655783813504
1856.0353484800362 2272.1945300470225
1856.7314661947203 2077.035925142134
1857.4274160270397 1834.986044188658
1858.123198019115 1954.9095119464448
1858.8188122130487 1798.9514212399474
1859.5142586509319 1913.8255885941949
1860.209537374838 1920.5177052844042
1860.9046484268183 1929.800432942792
1861.599591848917 2098.8039746146133
1862.294367683151 1814.54863362342
1862.988975971528 1856.7293005834913
1863.6834167560355 2063.379367548611
1864.3776900786452 2110.9834443022864
1865.0717959813119 1879.8571878301802
1865.7657345059724 1715.5579268306942
1866.4595056945564 1902.6834478320627
1867.1531095889586 2060.4713262710898
1867.846546231076 1722.2033975370455
1868.5398156627743 2091.017552216521
1869.2329179259123 1785.551629162408
1869.9258530623283 1777.451763120911
1870.618621113843 1769.3009411660635
1871.3112221222636 1815.4943598451769
1872.0036561293764 1917.0367047019777
1872.695923176956 1987.0485473377976
1873.3880233067594 2025.4799550079006
1874.0799565605212 1767.3235795648695
1874.7717229799673 1852.3739889401531
1875.4633226068036 2107.7505396143742
1876.1547554827175 1969.159396606255
1876.8460216493859 1846.248894618588
1877.5371211484617 1926.4120937657194
1878.2280540215852 2042.955360186686
1878.9188203103804 1753.338854073328
1879.6094200564548 1735.222072234291
1880.299853301396 1801.2792612474561
1880.9901200867826 2052.852687821537
1881.6802204541673 1997.5588861146848
1882.3701544450942 1942.1511652655004
1883.059922101087 2057.806666510755
1883.7495234636517 1742.4658492482674
1884.4389585742792 1845.613491413486
1885.1282274744517 1823.6848900733953
1885.8173302056166 1874.3847072447563
1886.506266809225 1925.155144111134
1887.195037326701 1713.0759520134682
1887.8836417994517 1787.5355052964164
1888.5720802688702 2141.9973986964706
1889.260352776333 2174.912054412042
1889.9484593632042 2185.5417477673964
1890.63640007082 1734.7076798617702
1891.3241749405151 1805.1764887518252
1892.0117840135954 1972.731826692523
1892.6992273313572 1929.4579436579934
1893.3865049350788 1797.0844444468264
1894.0736168660223 1885.8228329458484
1894.7605631654333 1974.6338574376216
1895.4473438745408 2082.860391941419
1896.133959034556 1725.3417306734325
1896.820408686679 1854.1091665811691
1897.506692872088 1810.9656964996543
1898.192811631945 1767.7374778277376
1898.8787650073991 1853.7449391209025
1899.5645530395832 2034.8914997498402
1900.2501757696118 2053.4579626655386
1900.9356332385796 2192.214086257538
1901.620925487574 1847.7157556224925
1902.3060525576602 1968.7007282847721
1902.9910144898859 1918.8460038336302
1903.6758113252872 1781.7228450739603
1904.3604431048789 1850.08190396107
1905.0449098696663 2051.665499000529
1905.7292116606295 1858.7353925327159
1906.4133485187394 1897.3190911891593
1907.0973204849488 1561.138711546982
1907.7811276001976 1650.6636203891837
1908.4647699053967 1800.783519046095
1909.1482474414588 1850.2624887445716
1909.8315602492694 1899.7477563535733
1910.5147083696957 2126.5276234874336
1911.1976918436012 1793.619375213912
1911.880510711815 1723.2578681703028
1912.5631650151681 1741.121418959882
1913.2456547944657 1758.9633715394616
1913.927980090495 1777.7284661758997
1914.6101409440362 1739.3044558187805
1915.2921373958416 1978.82305111112
1915.9739694866603 1781.5746418411604
1916.655637257214 2151.9487413400457
1917.3371407482136 1882.3813890953745
1918.0184800003572 2100.5491894947927
1918.6996550543154 2050.1649730727695
1919.3806659507554 1871.6123618317167
1920.0615127303208 1894.1435887938546
1920.7421954336423 1996.4774686989724
1921.4227141013343 2056.1053924479143
1922.103068773993 1867.5262817699397
1922.783259492202 2050.8602612511954
1923.4632862965227 1924.527288970922
1924.1431492275078 1804.655539632724
1924.8228483256917 1765.8033545872647
1925.5023836315922 1834.2382510787509
1926.1817551857057 1992.452985373759
1926.8609630285227 1755.3958369840243
1927.5400072005123 1991.0882066528004
1928.218887742125 1801.0583319046534
1928.8976046938005 1596.7351911070505
1929.5761580959588 1825.301507843949
1930.2545479890086 1935.2677367666724
1930.9327744133352 1934.686551470093
1931.6108374093164 1934.1526944624334
1932.2887370173066 1706.5981808588306
1932.9664732776473 2017.9157259624524
1933.6440462306673 1766.2139276852345
1934.3214559166754 1767.1930201056814
1934.9987023759659 2198.630268199288
1935.675785648813 2040.8484110200366
1936.3527057754836 2129.2537702301697
1937.029462796223 2217.8672888271353
1937.70605675126 1748.0204686280254
1938.3824876808085 1712.8523436570918
1939.058755625072 1795.7273932465646
1939.7348606242267 1752.9729341976479
1940.4108027184448 1831.3523718443146
1941.0865819478713 2072.358974261855
1941.7621983526478 1691.110208552083
1942.4376519728921 1610.6687655077308
1943.1129428487038 1902.0493167987
1943.7880710201734 1977.0975436699377
1944.4630365273733 1886.0110157910112
1945.1378394103576 1634.0251498308057
1945.8124797091714 1574.0482975697114
1946.4869574638324 1513.897319877305
1947.161272714353 1773.8848638270742
1947.8354255007234 1967.6846791295284
1948.5094158629272 1727.8361578880965
1949.1832438409183 1837.735354653042
1949.8569094746435 2023.3505387281537
1950.530412804037 2167.6202520059846
1951.2037538690092 1992.0460914152995
1951.8769327094578 1767.5920448696343
1952.5499493652678 1673.8778086123316
1953.222803876306 2086.587174750198
1953.895496282421 1932.4758157650726
1954.5680266234522 1904.6407593720073
1955.2403949392155 1865.9645637737492
1955.9126012695142 1663.3503891626747
1956.5846456541403 1834.1941240038293
1957.2565281328643 1737.7385427695815
1957.9282487454457 2042.7943780796268
1958.5998075316202 2038.4010705098092
1959.27120453112 1696.4883487213615
1959.9424397836501 1781.080195067964
1960.613513328908 2104.9794386015337
1961.2844252065697 2071.355540289373
1961.9551754563017 1642.0102844477628
1962.6257641177453 1704.1199561574454
1963.29619123054 1505.7262180324637
1963.966456834296 1681.7732256302497
1964.6365609686181 1552.8518395313731
1965.306503673086 1599.5155266139004
1965.976284987275 1646.1882666994384
1966.645904950734 1755.4637970077179
1967.315363603002 1597.4980408508015
1967.9846609836077 1795.521765215956
1968.6537971320486 1752.766226451561
1969.3227720878222 1905.4132710786278
1969.9915858904042 1746.9887565938207
1970.660238579252 1905.6633687413382
1971.3287301938108 1793.7350846934994
1971.997060773514 1808.46365111005
1972.665230357772 1775.9299380286925
1973.3332389859843 1738.6048931475866
1974.0010866975335 1602.2693151289823
1974.6687735317864 1781.220090509148
1975.3362995280932 1767.8769323629779
1976.003664725793 1909.4392259089295
1976.6708691642052 1907.4053753533117
1977.3379128826364 1905.215599065871
1978.004795920373 2035.8185706430831
1978.6715183166925 2080.817838366561
1979.3380801108524 1500.8687820338341
1980.0044813420973 1802.9800599488021
1980.6707220496555 1810.1507276659863
1981.3368022727373 1817.4696944542443
1982.0027220505417 1540.0659096058073
1982.66848142225 1797.5695320236687
1983.3340804270283 1576.9721391686578
1983.999519104027 1678.7933461832358
1984.6647974923835 1851.0837632832524
1985.329915631215 1870.0172848244802
1985.99487355963 1703.92732993827
1986.6596713167146 1934.9695893077228
1987.3243089415428 1763.4364071821594
1987.9887864731754 2077.4834532876657
1988.6531039506553 1571.7164130551469
1989.3172614130071 2174.941389625896
1989.9812588992481 1690.6661277524097
1990.645096448372 1470.6187256920198
1991.3087740993633 1754.457785139569
1991.9722918911848 1788.5055685514894
1992.635649862792 1844.9550906831696
1993.2988480531185 1848.7469733500286
1993.9618865010852 1796.19717769091
1994.6247652455968 1743.6207870956719
1995.287484325545 1691.532054284459
1995.9500437798033 1734.2452089228275
1996.6124436472292 1665.8448225643108
1997.2746839666706 1639.227386711388
1997.936764776954 1612.5606166070447
1998.598686116895 1581.7116575585449
1999.2604480252903 2029.8189948451795
1999.9220505409212 2046.5160839762284
2000.5834937025593 1654.9684346716028
2001.2447775489582 1677.2417448354183
2001.9059021188514 1794.1989593177593
2002.5668674509616 1663.7619547856568
2003.2276735839987 1775.451324953424
2003.8883205566508 1958.442338264063
2004.5488084075987 1782.0491299867704
2005.2091371755014 1672.6369336470573
2005.8693068990033 1494.8504608917358
2006.5293176167397 1570.097648648488
2007.1891693673224 1645.6147829927347
2007.848862189354 1568.390145549077
2008.5083961214223 1661.47684205028
2009.1677712020955 1578.1211815810452
2009.8269874699254 1594.617108168344
2010.4860449634598 1550.2698110577155
2011.1449437212177 1505.8976534937142
2011.8036837817108 2006.593798000089
2012.4622651834325 1845.1565902307054
2013.1206879648653 1815.4115254802844
2013.7789521644736 1610.8071221689647
2014.4370578207036 1792.5580965355105
2015.0950049719922 1642.5734892929463
2015.7527936567585 1925.58350508594
2016.4104239134067 1684.4053521250457
2017.067895780323 2115.2117899900145
2017.725209295886 2069.4529819018403
2018.3823644984514 2023.5163699001034
2019.0393614263648 1769.2310270381233
2019.6962001179545 1659.9447490655318
2020.3528806115355 2065.8353079639824
2021.0094029454067 1813.7517119494591
2021.6657671578487 1594.115917000198
2022.321973287133 1815.6079428827911
2022.9780213715148 1639.398591194816
2023.6339114492293 1743.7899957083773
2024.2896435585026 1644.4839676871875
2024.9452177375442 1689.1402282970262
2025.600634024544 2035.8329657282309
2026.2558924576842 1808.240602384448
2026.9109930751292 1885.9861441283422
2027.565935915025 2027.379116907808
2028.2207210155066 2169.2332697828633
2028.8753484146964 2257.701248672915
2029.529818150695 2080.667823919619
2030.1841302615903 1902.9254474598893
2030.8382847854573 1661.1131988702004
2031.4922817603601 1852.6882806974536
2032.1461212243357 1760.8800736471335
2032.7998032154192 1539.2285845916313
2033.4533277716218 1606.6902356341702
2034.1066949309443 1566.4303975315972
2034.7599047313688 1533.657454377424
2035.4129572108704 1823.1848881106416
2036.0658524074006 1791.5199787968613
2036.7185903589016 1825.9559963956647
2037.3711711032956 1735.8833081929656
2038.023594678496 1763.9235930615391
2038.675861122394 1536.9052706516463
2039.3279704728757 1522.5428239332382
2039.9799227678031 1508.2877274200757
2040.6317180450278 1651.0273457005983
2041.2833563423865 1657.59160982579
2041.9348376977014 2024.4110425460228
2042.5861621487784 1856.586521789258
2043.2373297334088 1920.0579492521858
2043.8883404893695 1829.5273938883056
2044.5391944544208 1888.293987464144
2045.1898916663158 2039.762671152213
2045.8404321627804 2091.72114653347
2046.4908159815368 1640.8954585386248
2047.1410431602853 1743.8563745492108
2047.7911137367173 1620.4078763907282
2048.441027748504 1829.806124965608
2049.090785233302 1459.2951735389875
2049.7403862287592 1609.2323781507462
2050.389830772503 1607.1589087626012
2051.0391189021466 1605.128825550448
2051.688250655294 1887.0111528400357
2052.337226069527 1483.2247790241859
2052.986045182417 1974.9691196932229
2053.634708031521 1944.3735798794544
2054.283214654375 1913.8602323176463
2054.931565088511 1494.6666480600313
2055.579759371436 1378.523838595207
2056.2277975406523 1838.5350317029595
2056.8756796336384 2038.954183683049
2057.5234056878617 1452.8140457495688
2058.1709757407752 1601.820433866958
2058.8183898298194 2110.903952752324
2059.465647992416 2009.3977708762789
2060.1127502659747 1983.6161589720627
2060.759696687888 1890.9020964034203
2061.4064872955405 1798.1859642400427
2062.053122126292 1578.0010042794195
2062.699601217497 1784.1049608372734
2063.345924606485 1523.774001715344
2063.992092330587 1763.6458590502393
2064.638104427102 1879.501581771357
2065.283960933324 1995.495979695938
2065.92966188653 1875.940991438914
2066.5752073239855 1653.469296659096
2067.2205972829397 1875.855348791356
2067.86583180062 1683.919641142528
2068.5109109142522 1731.3328291404669
2069.15583466104 1700.264781759342
2069.8006030781708 1546.1758643277171
2070.445216202821 1545.7499983531604
2071.089674072153 1798.3621108290117
2071.7339767233116 2027.2564484595812
2072.3781241934303 1679.0728732385385
2073.0221165196253 1804.3044242802257
2073.6659537390024 1856.6324124146438
2074.3096358886505 1909.0878169966425
2074.953163005637 1673.5481272757522
2075.596535127028 1458.3580866681687
2076.2397522898664 1498.2161444163535
2076.882814531182 1577.0797546330634
2077.5257218879924 1798.1821050769734
2078.1684743973 1580.2425095035846
2078.8110720960885 1529.5745929065206
2079.453515021336 1655.668132062579
2080.095803209997 1781.8629465385688
2080.7379366990135 1694.2946311856278
2081.37991552532 1983.8840472792556
2082.0217397258275 1876.6943593745941
2082.6634093374414 1599.005534744861
2083.3049243970418 1628.6935952492827
2083.9462849415067 1977.8537565625859
2084.587491007689 1747.3651507180214
2085.2285426324324 1696.7739578924914
2085.869439852564 1735.170049365715
2086.510182704902 1677.6970247129204
2087.1507712262483 1684.9497166971826
2087.791205453381 1437.3161239358485
2088.4314854230743 1822.2907744015483
2089.0716111720867 1704.262668022649
2089.7115827371617 1402.560716203548
2090.351400155023 1455.4962697150154
2090.991063462385 1508.5998949761026
2091.6305726959527 1379.6369076453352
2092.2699278924047 1750.590674527745
2092.9091290884153 1540.0593321920041
2093.548176320641 1483.3203961832835
2094.187069625721 1800.7219856782842
2094.8258090402887 1822.6020335918365
2095.464394600951 1844.532250222383
2096.102826344313 1603.6727952259544
2096.741104306955 1513.8271104561331
2097.379228525453 1423.784606371906
2098.017199036358 1355.906616305242
2098.6550158762147 1916.0680619264645
2099.2926790815527 1850.908657841667
2099.9301886888825 1811.5628678284072
2100.5675447347076 1591.1943561201895
2101.2047472555114 1968.1118717829206
2101.841796287761 1689.3707112469808
2102.47869186792 1703.0381581866236
2103.1154340324265 1608.6913373323143
2103.752022817709 1717.4354845266867
2104.388458260184 1458.6891356475717
2105.024740396251 1873.730671983732
2105.660869262292 1496.5399943658017
2106.296844894685 1504.8179235604698
2106.93266732978 1513.1514540809146
2107.5683366039284 1598.7454737482133
2108.2038527534532 1797.2347524743104
2108.8392158146726 1878.658994391013
2109.4744258238843 1399.2654480992953
2110.1094828173755 1698.180361555991
2110.744386831422 2081.0043233782935
2111.3791379022787 1785.835866674155
2112.01373606619 1842.5489273679207
2112.648181359389 1807.4983977780987
2113.28247381809 1735.9937465125863
2113.916613478492 1787.9042392009221
2114.550600376786 1644.4194321829557
2115.1844345491445 1532.096687169581
2115.818116031729 1488.7756722695892
2116.451644860679 1637.7013995616667
2117.085021072133 1361.3718999388525
2117.718244702204 1496.88749311417
2118.3513157869984 1559.2953083304237
2118.984234362604 1521.5025915588499
2119.617000465092 1534.9693719471757
2120.249614130529 1577.1940906852672
2120.8820753949585 1619.4881837289515
2121.5143842944162 1526.3951734010775
2122.14654086492 1567.0333654993499
2122.7785451424734 1476.4368799249953
2123.4103971630702 1796.0239436564218
2124.042096962681 1692.918070011683
2124.6736445772767 1910.9287382840557
2125.305040042802 1554.2078051071926
2125.936283395191 1686.1515074678318
2126.567374670365 1763.8847588852027
2127.198313904233 1560.2654318880543
2127.8291011326855 1676.1575172415578
2128.4597363916037 1792.0928856682167
2129.0902197168507 1574.8438219780542
2129.720551144279 1815.5939825192065
2130.3507307097225 2056.566389536497
2130.980758449008 2067.853962907018
2131.6106343979427 1949.3914547611644
2132.2403585923203 1830.6946406255763
2132.8699310679276 1887.770043709943
2133.499351860526 1742.6015321973732
2134.1286210058715 1702.2255913824379
2134.7577385397053 1859.9511994958962
2135.3867044977487 2017.932385711074
2136.0155189157176 1876.5402364453214
2136.644181829308 1999.289006146936
2137.2726932742025 1743.903957361122
2137.901053286074 1628.6742006800546
2138.5292619005777 1513.3238438745666
2139.1573191533535 1551.0836120770723
2139.7852250800315 1864.3137650176916
2140.4129797162295 1819.4654381171174
2141.0405830975433 1373.9696673518233
2141.6680352595613 1367.080832060282
2142.2953362378576 1360.1943530285755
2142.9224860679915 1527.020708753515
2143.549484785508 1624.624860247344
2144.1763324259373 1594.5595631759004
2144.803029024799 1478.232511116234
2145.429574617594 1440.244053199007
2146.0559692398165 1706.7045609673849
2146.682212926942 1544.127975646269
2147.308305714432 1632.860244330775
2147.9342476377333 1786.4706457577024
2148.5600387322847 1697.1643478549424
2149.185679033506 1607.7864316049884
2149.8111685768017 1583.3752729433722
2150.4365073975678 1450.6867006526759
2151.061695531187 1463.4290663540746
2151.686733013021 1602.8027282079768
2152.311619878423 1742.559719188622
2152.9363561627342 1602.2874402356297
2153.560941901278 1524.4540254065562
2154.1853771293663 1628.4615013112102
2154.809661882293 1697.7946137650692
2155.433796195348 1949.3944363653204
2156.0577801037944 1241.049044023924
2156.681613642895 1937.1654902746661
2157.3052968478896 1324.3839901717406
2157.928829754006 1698.00501985067
2158.552212396462 1845.4235278739336
2159.1754448104566 1743.269967345026
2159.7985270311783 1580.6201280139105
2160.4214590938027 1171.6563251318717
2161.0442410334927 1234.4995618446633
2161.6668728853874 1341.4559820485235
2162.289354684628 1448.6605087989947
2162.911686466332 1563.8418278332058
2163.533868265602 1873.4531400205494
2164.1559001175337 2103.180731965671
2164.7777820572046 1827.3078995078845
2165.399514119681 1754.7459151473718
2166.021096340013 1505.3606842425204
2166.6425287532384 1851.1189218790914
2167.263811394385 1513.0502047156147
2167.8849442984574 1807.543312326296
2168.505927500455 1527.779499567249
2169.126761035366 1666.6074569053428
2169.7474449381552 1528.8387637028459
2170.367979243778 1711.47736842095
2170.9883639871823 1894.681883811098
2171.608599203293 1574.4519859571833
2172.2286849270276 2150.8971177011244
2172.8486211932886 2403.7865246725696
2173.4684080369625 1713.8244892625892
2174.0880454929265 1288.5350394172137
2174.7075335960417 1296.7437767700949
2175.3268723811543 1340.683821541368
2175.9460618831 1384.7538380527344
2176.565102136701 1517.8066814083363
2177.1839931767627 1582.2005662050246
2177.802735038078 1646.7873571636724
2178.421327755432 1360.09826150995
2179.0397713635866 1439.1932512455485
2179.658065897298 1457.0451942328286
2180.276211391305 1792.9119544623013
2180.8942078803357 1465.9038092886592
2181.5120553991 1759.5599302882754
2182.129753982299 1378.0229393352288
2182.7473036646206 1576.8982733659686
2183.3647044807367 1753.4173186117946
2183.9819564653044 1748.095674953281
2184.599059652968 1742.8219221470513
2185.216014078367 1740.9283161982185
2185.832819776113 1838.250433760327
2186.4494767808137 1935.6983864398858
2187.065985127063 1557.4446759483822
2187.682344849436 1415.3568606391816
2188.298555982501 1520.3526046136778
2188.9146185608097 1625.4322675680191
2189.530532618901 1799.2351236138006
2190.1462981912937 1772.14330515946
2190.761915312507 1702.8886739357622
2191.377384017036 1603.6300289059448
2191.9927043393654 1536.976216539521
2192.6078763139667 1093.7187578400897
2193.2228999753006 1290.781851246151
2193.837775357808 1488.2657691513643
2194.452502495922 1233.890370068884
2195.0670814240602 1429.660335405579
2195.6815121766285 1245.9922647974768
2196.2957947880186 1196.4610083879957
2196.9099292926057 1146.8339271223645
2197.523915724758 1810.9473961127346
2198.137754118825 1329.5987304365826
2198.7514445091456 1991.2985246006187
2199.3649869300443 1400.206026551768
2199.9783814158327 1939.3046952544307
2200.5916280008096 1980.4070191870574
2201.2047267192593 1750.1970169645297
2201.8176776054515 1616.5038511835469
2202.430480693649 1735.8928867086317
2203.0431360180955 1855.6127801398088
2203.6556436130195 1874.7605232379883
2204.268003512645 1776.227978289163
2204.8802157511727 1677.5048775723778
2205.492280362796 2036.4109135041429
2206.1041973816937 1616.5969956949032
2206.715966842032 1763.3862613703363
2207.3275887779655 1726.5762938322598
2207.93906322363 1682.4646970605281
2208.550390213153 1791.4300326661803
2209.1615697806465 1827.0594723022289
2209.7726019602105 1507.0972810914552
2210.3834867859277 1317.6290023149406
2210.9942242918787 1576.758406616106
2211.6048145121167 1571.8337064001785
2212.2152574806914 2310.1944585626243
2212.825553231638 1370.9809761735519
2213.435701798975 2632.007848347294
2214.045703216707 1675.3763031759966
2214.655557518832 1224.7726214811494
2215.2652647393297 1301.004471329984
2215.874824912169 1129.2170997951885
2216.4842380713 1612.1808325002235
2217.09350425067 1289.827377123373
2217.7026234842033 1959.4989981110914
2218.311595805819 1832.1823734470804
2218.9204212494133 1498.8399791738343
2219.52909984888 1966.5716764234617
2220.137631638092 1333.2846372796464
2220.7460166509154 1967.7781307959965
2221.354254921198 1417.6294728124765
2221.9623464827764 1655.7574955848697
2222.5702913694713 1641.4904763984182
2223.178089615096 1816.998064852789
2223.7857412534486 1389.8111292863027
2224.39324631831 1265.772075928225
2225.000604843457 1426.9563093378504
2225.607816862641 1580.425881926922
2226.214882409611 1734.0585080732285
2226.8218015180973 1830.7213821882003
2227.4285742218217 1668.5007807979437
2228.0352005544864 1704.2253200142015
2228.6416805497847 1293.9610986759812
2229.248014241399 1475.722298102637
2229.8542016629945 1301.1218709024602
2230.460242848223 1725.2929152924207
2231.0661378307304 1480.33698677854
2231.671886644139 1235.1329339016506
2232.277489322065 1202.4912215808258
2232.8829458981127 1258.5036764166703
2233.48825640587 1649.176008022124
2234.0934208789095 2212.134070924638
2234.6984393507955 1915.0081838119233
2235.3033118550793 1761.8318286649385
2235.9080384252975 1499.0939322149948
2236.5126190949723 1504.6256872817007
2237.1170538976166 1348.040539547041
2237.721342866729 1347.6793429002776
2238.32548603579 1514.1454200323058
2238.9294834382763 1673.5419100859629
2239.533335107646 1748.1579938355735
2240.1370410773434 1617.5102109995346
2240.740601380803 1336.9133774018533
2241.3440160514474 1696.4546836268862
2241.9472851226783 1689.007874283503
2242.550408627896 1568.2649648074373
2243.1533866004793 1529.8251820950345
2243.756219073799 1491.3455150759053
2244.3589060812064 1452.81767760484
2244.961447656049 1302.0143595331729
2245.5638438316564 1581.0902420877776
2246.166094641343 1518.9681178616315
2246.7682001184166 1427.146858706621
2247.3701602961664 1490.8179953022714
2247.971975207871 1639.1957243211793
2248.5736448867974 1562.8096499602555
2249.175169366197 1486.2133262738382
2249.7765486793123 1611.014460120712
2250.3777828593684 1732.937326021128
2250.9788719395783 1541.9740474599246
2251.579815953146 1671.2808632751082
2252.1806149332606 1366.437586115651
2252.781268913097 1547.9485102666765
2253.381777925817 1293.3966808447162
2253.9821420045737 1655.9652274178309
2254.5823611825035 1722.8198957727534
2255.1824354927303 1592.2075464892928
2255.782364968365 1407.5458238239735
2256.38214964251 1222.6723768931759
2256.9817895482483 1496.5908827188669
2257.5812847186553 1406.1788630806218
2258.180635186791 1473.4277568131356
2258.779840985704 1603.9935348365877
2259.37890214843 1378.134174900703
2259.97781870799 1509.6602179114795
2260.5765906973957 1641.4338409470904
2261.175218149645 1780.227425254554
2261.773701097718 1828.6138165142013
2262.3720395745895 1366.087543983047
2262.970233613216 1311.2279507209764
2263.568283246548 1319.06484885876
2264.1661885075137 1326.8597631555597
2264.763949429038 1440.0068434412558
2265.3615660440246 2028.2182327281894
2265.959038385374 1322.057184851024
2266.5563664859637 1921.699897180863
2267.153550378669 1479.1461152275954
2267.7505900963424 1786.3001910470944
2268.3474856718312 1413.184793612799
2268.9442371379664 1312.4034199430025
2269.5408445275643 1419.0779286238073
2270.1373078734377 1389.2607567025534
2270.7336272083758 1359.3837377394598
2271.32980256516 1559.88808118916
2271.925833976562 1800.6265532533648
2272.5217214753357 1612.1817280211012
2273.117465094223 1423.32689956083
2273.7130648659586 1478.5344599513194
2274.308520823257 1412.2656696449967
2274.903832998827 1368.9698462758927
2275.4990014253563 1325.5783979022403
2276.094026135528 1641.689887958809
2276.6889071620117 1394.4797218698327
2277.2836445374614 1534.8491126793338
2277.878238294519 1701.6775839467814
2278.472688465812 1498.5740982305215
2279.066995083962 1295.113302336881
2279.6611581815705 1421.6818136133782
2280.255177791232 1407.2274072614478
2280.8490539455233 1677.837902135437
2281.442786677013 1948.9961328893896
2282.0363760182554 2014.5933050399144
2282.6298220017943 1343.7144667649065
2283.223124660155 2065.5014428586164
2283.816284025859 1430.9217035725674
2284.4093001314086 2048.3051334339802
2285.002173009292 1302.831551995792
2285.5949026919952 1722.6072928416663
2286.1874892119777 1569.339822041004
2286.7799326016993 1462.7570529152733
2287.3722328936 1355.8507147235762
2287.964390120109 1169.9718911032082
2288.556404313642 1742.6308853194016
2289.1482755066027 1983.6570971106562
2289.7400037313873 1590.9446811470984
2290.3315890203703 1456.4449617227683
2290.9230314059205 1485.2474341989423
2291.5143309203904 1514.1427943875055
2292.1054875961236 1607.2477757094234
2292.6965014654506 2063.3302329445532
2293.287372560684 1353.5055436909547
2293.878100914131 1437.4591044730937
2294.468686558086 1521.638239336789
2295.059129524827 1602.847553483151
2295.649429846617 1907.151881811579
2296.239587555716 1636.603955555524
2296.8296026843636 1649.436933004221
2297.419475264791 1592.7243264998078
2298.0092053292137 1535.8072545261134
2298.598792909839 2002.6906891659644
2299.1882380388597 1800.880832852949
2299.777540748455 2109.803359180561
2300.3667010707904 1753.6021988560847
2300.9557190380256 1964.7956398749054
2301.544594682302 1707.4300195456788
2302.1333280357503 1907.4851814396047
2302.721919130485 1728.5547277286532
2303.3103679986198 2067.2675180506385
2303.898674672242 1957.6991238782339
2304.486839183437 1511.629735366269
2305.0748615642697 1443.7446073469516
2305.6627418468015 1688.8967373535331
2306.2504800630704 1815.156258593613
2306.8380762451143 1661.978940874591
2307.425530424949 1732.700721087413
2308.012842634582 1803.5713284085537
2308.6000129060103 2112.321985121215
2309.187041271214 1820.677201713456
2309.773927762164 2070.0147601406256
2310.3606724108213 1764.6997517106931
2310.9472752491274 1804.3390853409996
2311.5337363090184 1844.1135978364541
2312.120055622414 1664.9856194435401
2312.706233221221 1527.96320463851
2313.2922691373424 1733.8500676101012
2313.8781634026564 1377.5251810889508
2314.463916049037 1541.8063267065102
2315.049527108342 1790.3288551616856
2315.6349966124235 1932.3897642131167
2316.2203245931123 1628.8693250974688
2316.8055110822315 1826.2743241859218
2317.3905561115935 1608.5956629773357
2317.9754597129977 1425.14984070938
2318.560221918229 1396.9464387295684
2319.1448427590603 1368.7094606189073
2319.729322267256 1435.0580987844287
2320.313660474563 1913.7381591839373
2320.8978574127195 1549.3432415437442
2321.481913113452 1855.4911701664805
2322.0658276084705 1564.433001214958
2322.6496009294806 1484.781274851102
2323.233233108165 1741.2113461259778
2323.8167241762058 1701.773669628637
2324.4000741652617 1621.8889612094622
2324.983283106987 1800.391163180461
2325.5663510330232 1948.894763790673
2326.1492779749933 1654.6670772030907
2326.7320639645204 1838.2901507423408
2327.3147090332004 1438.355538206118
2327.897213212629 1616.648618058322
2328.4795765343843 1795.0641958563942
2329.0617990300307 1267.1325260876624
2329.643880731124 1910.6138541474306
2330.22582166921 1598.8130115182573
2330.807621875816 1476.374294088631
2331.3892813824623 1353.86584939821
2331.9708002206517 1214.2796852968906
2332.5521784218818 1418.422718153556
2333.133416017634 1623.0411060635606
2333.7145130393765 1398.406606548576
2334.295469518571 1902.5082709759936
2334.876285486658 1863.65151186086
2335.456960975076 1875.9606674431895
2336.037496015242 1888.329830439118
2336.6178906385667 1616.6812150003466
2337.198144876451 1608.2896200579676
2337.778258760278 1666.7864431447942
2338.3582323214214 1697.0786653767232
2338.938065591243 1727.398684789508
2339.517758601087 1899.7376659343286
2340.0973113822965 1717.4163506225536
2340.676723966193 1593.293537145998
2341.255996384094 1738.2402466760727
2341.835128667295 1880.0133238414219
2342.4141208470883 1658.7271786601698
2342.992972954751 1660.4205997266758
2343.5716850215467 1707.1775921711073
2344.1502570787306 1018.1547361008785
2344.7286891575386 1387.3604809156436
2345.3069812892045 1589.369930535433
2345.885133504944 1791.598307058727
2346.4631458359618 1637.927609498524
2347.04101831345 1617.2335164340152
2347.6187509685915 1596.4488318787078
2348.196343832553 1470.0660243206944
2348.7737969364935 1528.5624452049433
2349.351110311558 1405.510511560781
2349.9282839888765 1385.4623439538984
2350.5053179995757 1323.4735283928296
2351.0822123747585 1238.7061217644507
2351.658967145526 1345.692920546409
2352.2355823429643 1452.9382745581681
2352.812057998144 1701.7269734360398
2353.3883941421263 1587.45430830248
2353.9645908059647 1766.6827302923023
2354.540648020693 1409.460485383464
2355.116565817336 1735.2483597777725
2355.6923442269126 1427.5503245125378
2356.2679832804224 1726.708665933514
2356.8434830088518 1569.4401731103449
2357.41884344318 1682.561106341697
2357.994064614377 1988.9382259097686
