#exp_cfg={"servo_angle": 0.0, "laser_lim": 100.0, "servo_angle_to": 18.0, "laser_wup": 0.0, "bt_dev": "EnSpectr-25AE3", "laser_wdn_max": 0.0, "frames": 10.0, "servo_used": 0, "servo_calib_use": 0, "laser_wdn_min": 0.0, "servo_pix_from": 90.0, "cooler_tout": 300.0, "servo_angle_from": 0.0, "servo_calib": "[-1.9174921013161362e-09, 3.9322238269163779e-05, -0.27385609119055809, 653.59552119713567]", "laser_autoctl": 0, "servo_pix_to": 3682.0, "laser_pw": 100.0, "cooler_on": 0, "laser_volt": 4.0, "cooler_autoctl": 0, "cooler_curr": 70.0, "cooler_startup": 10.0, "laser_fixed_pw": 0, "gain": 1.3, "offset": 2.53059635486, "servo_calib_degree": 3.0, "laser_curr": 55.0, "shutter": 8200.0, "servo_calib_step": 1.0, "laser_fixed_curr": 0, "exp": 2000.0, "ccd_volt": 4.7, "bt_addr": "00:06:66:62:5A:E3", "servo_delay": 500.0, "laser_autooff": 1}
#proc_cfg={"flat_auto_wnd": 200.0, "flat_auto_fr": 200.0, "flat_auto_shift": 5.0, "yconv": 1, "flatten": 1, "flatten_strength": 100.0, "xfrom": 300.0, "auto_max_frame": 2000.0, "auto_signal": 48000.0, "flat_auto_tol": 0.1, "autoclip": 1, "xrel_range": 0.0, "flat_auto_to": 4000.0, "intensity_adj": 1.0, "xrel": 7852.0, "rmhot": 1, "flat_auto_slit": 4.999999999999997, "auto_ini_exp": 300.0, "auto_off": 0, "xto": 2860.0, "flat_auto_ref": "", "flat_auto_rank": 1, "autobackg": 0, "xrel_adj": 0.0, "auto_black_lvl": 1, "base_wnd": 100.0, "sub_baseline": 0, "xconv": 2, "auto_max_exp": 1000.0, "auto_total_exp": 10000.0, "auto_exp": 0, "rmripple": 0, "black_lvl": 8282.4625, "shutter_clip_adj": 0.0, "auto_bckg": 0, "flat_auto_thr": 0.9, "subbackg": 1}
316.8218498245369 12330.666529635313
317.89969571804795 12192.611681384002
318.977263876126 12190.535779512462
320.05455438786703 12026.344452015095
321.1315673423287 12064.613865400614
322.2083028285215 12137.300620062895
323.2847609354267 12086.89519086814
324.3609417519747 12044.814725067317
325.43684536705587 11901.391529684719
326.5124718695279 11921.32545685217
327.58782134820103 11828.433992879663
328.66289389184385 11939.70532284938
329.7376895891921 11652.965018042132
330.8122085289342 11734.445765910412
331.88645079971866 11827.463089634239
332.9604164901575 11781.464176439113
334.03410568881554 11697.196579016778
335.1075184842266 11787.307314801063
336.18065496487543 11638.217191310925
337.2535152192122 11697.973986060144
338.32609933564163 11707.155833628054
339.39840740253203 11705.339887508831
340.4704395082099 11584.925594612027
341.5421957409617 11575.005357002949
342.6136761890357 11663.798524440474
343.6848809406365 11579.303370732108
344.75581008392874 11485.263568786557
345.82646370703696 11516.18551151391
346.8968418980512 11439.69760505458
347.96694474501055 11553.856030816782
349.0367723359268 11434.15320737841
350.106324758759 11398.575000838473
351.1756021014353 11295.38413048939
352.2446044518383 11307.489300230105
353.31333189781435 11428.313358849542
354.38178452716966 11305.15096538793
355.449962427665 11269.053127041212
356.51786568702846 11265.26598214422
357.58549439294256 11343.380574545492
358.6528486330535 11378.25994804953
359.71992849496564 11260.524364468383
360.7867340662433 11203.737514286642
361.8532654344144 11294.05583188739
362.9195226869597 11327.240794050209
363.9855059113288 11240.635464588044
365.05121519492604 11112.267518049364
366.11665062511565 11262.018557913798
367.1818122892273 11172.819387959518
368.2467002745434 11200.794813948123
369.31131466831175 11184.51803174854
370.375655557742 11138.988866188196
371.4397230299983 11144.24102208011
372.5035171722102 11142.183099150494
373.5670380714637 11113.363228896487
374.6302858148101 11237.008839711441
375.6932604892554 11264.599063007894
376.7559621817709 11184.546290556409
377.81839097928605 11060.605915000726
378.8805469686886 11020.490649430601
379.94243023683157 11150.995191625587
381.0040408705263 11083.05272174577
382.0653789565458 10907.104861404543
383.1264445816196 11008.874613063119
384.1872378324406 11036.311766466024
385.2477587956637 10991.629996005711
386.3080075579037 10959.37490039723
387.3679842057336 10821.647999498397
388.4276888256918 11034.535066391301
389.48712150426945 10797.841227440305
390.54628232792857 10832.996862433425
391.6051713830857 10715.301832069352
392.66378875611736 10806.11937116783
393.7221345333637 10765.704794271474
394.7802088011249 10665.881361616975
395.838011645661 10711.327741192072
396.89554315319765 10686.414205524328
397.9528034099112 10599.030088343115
399.00979250194723 10539.525657109107
400.06651051541485 10549.377294986929
401.1229575363741 10652.073082541909
402.17913365085224 10501.404888585817
403.23503894483656 10522.756127204277
404.2906735042761 10495.647726007246
405.3460374150818 10450.923877460848
406.401130763119 10481.556268252752
407.455953634224 10519.721681535018
408.5105061141876 10434.473769062204
409.56478828876243 10363.62701921281
410.6188002436629 10345.246407373754
411.6725420645689 10377.140282621336
412.72601383711117 10397.323866433628
413.77921564689314 10439.246952310397
414.8321475794728 10334.34597187506
415.88480972036814 10311.422524439764
416.93720215506437 10380.437612025082
417.9893249690049 10238.829634263077
419.04117824759123 10225.381677537922
420.09276207619223 10176.7096462261
421.144076540133 10223.369265175099
422.1951217247042 10172.289674732086
423.24589771515275 10196.91041331639
424.2964045966928 10157.677419987533
425.34664245449494 10141.188851158817
426.3966113736933 10132.212607083895
427.4463114393875 10064.648714109348
428.49574273662984 10153.838462150556
429.5449053504417 10001.21023296905
430.5937993658026 10162.97342641471
431.6424248676558 10036.668748446144
432.6907819409007 10008.704310009387
433.73887067040596 10059.23646911296
434.7866911409965 10113.010581053246
435.8342434374608 10065.188986231273
436.88152764455117 10072.745021895647
437.9285438469724 10071.798232140814
438.9752921294057 10074.355666291034
440.02177257648145 10159.16522175718
441.06798527279716 10031.632557642553
442.1139303029122 10268.896491456351
443.1596077513459 10326.464060543989
444.2050177025794 10225.049900348353
445.25016024105753 10292.897869014832
446.2950354511886 10287.163040381882
447.33964341733736 10218.883610152134
448.383984223834 10254.295723900821
449.4280579549686 10103.310767108142
450.471864694995 10143.123055561642
451.5154045281306 10179.149678667412
452.5586775385509 10145.382388002925
453.60168381039693 9994.69068231153
454.64442342776783 10120.242827189692
455.6868964747264 10041.721116964782
456.7291030353008 9912.531406874907
457.77104319347563 9990.817884992332
458.8127170332027 9863.634244517047
459.854124638392 9845.283953546032
460.895266092919 9952.918950023417
461.93614148061897 9898.579586305328
462.97675088529104 9914.656783391863
464.01709439069236 9855.288603120945
465.0571720805492 9809.942147197102
466.0969840385442 9792.686477269217
467.1365303483253 9918.90949718095
468.17581109350067 9825.582777394906
469.2148263576437 9692.769986925503
470.2535762242878 9780.653587604818
471.29206077693016 9889.455194868195
472.33028009902773 9885.243481432411
473.3682342740012 9871.869340551162
474.40592338523857 9849.950016965904
475.4433475160804 9842.523029356005
476.4805067498364 9840.74138028867
477.51740116978 9899.330141279746
478.5540308591426 9934.861378320407
479.59039590112116 10092.766344601758
480.6264963788726 9984.8017661491
481.6623323755193 10128.150173190852
482.6979039741436 10142.28874434449
483.7332112577915 10298.297848573373
484.76825430947247 10530.26546867793
485.80303321215797 10398.936327488758
486.837548048783 10527.545366574734
487.8717989022425 10696.585082307749
488.90578585539697 10674.671613322187
489.9395089910686 10794.291421762013
490.97296839203955 10584.277972773682
492.00616414106116 10519.933975614302
493.0390963208429 10495.337714567338
494.0717650140559 10447.979504821511
495.10417030333883 10376.444031825158
496.1363122712901 10404.898646499687
497.16819100046814 10308.899585891273
498.1998065734024 10109.678722567009
499.2311590725767 10138.332329534322
500.26224858044407 9994.442186293516
501.2930751794156 9967.645810896442
502.3236389518679 9950.673185589352
503.35393998014115 9856.174489678358
504.38397834653733 9843.768270372539
505.4137541333221 9837.805905361907
506.4432674227228 9699.48262391408
507.4725182969323 9582.236955363165
508.5015068381035 9683.96099067129
509.53023312835467 9665.611140608615
510.55869724976765 9568.120892710427
511.58689928438434 9563.961610933282
512.6148393142121 9525.019032532144
513.6425174212218 9625.288668763193
514.6699336873462 9616.478998316288
515.6970881944835 9662.730606831228
516.7239810244901 9571.206012598708
517.7506122591931 9597.180267689673
518.7769819803761 9510.056056710731
519.8030902697901 9674.420043716282
520.8289372091476 9588.965370653788
521.8545228801249 9751.782936525497
522.8798473643619 9590.164632140793
523.9049107434621 9634.6120882133
524.9297130989908 9674.624149782883
525.9542545124805 9709.069702694715
526.9785350654201 9556.795392944114
528.0025548392696 9609.450374689195
529.0263139154504 9490.364351642931
530.0498123753423 9593.981386309257
531.073050300296 9603.271931935526
532.0960277716204 9371.706287881714
533.1187448705896 9463.896693040733
534.1412016784416 9459.931102936644
535.1633982763833 9412.92265099319
536.1853347455726 9321.525495071293
537.2070111671401 9407.54946948242
538.2284276221817 9314.512860314002
539.2495841917516 9254.923880704355
540.2704809568677 9152.145404547007
541.2911179985167 9207.222016122183
542.3114953976419 9044.301936935923
543.3316132351592 9039.016155748226
544.3514715919409 8933.278006927701
545.3710705488247 8903.334980552147
546.3904101866156 8862.625220102194
547.4094905860784 8921.961928340846
548.4283118279418 8876.299195688096
549.4468739929034 8922.821280698645
550.4651771616191 8790.78040503094
551.4832214147063 8781.954737117225
552.501006832761 8925.140124855428
553.5185334963226 8774.32831979075
554.5358014859103 8878.048786797664
555.5528108820035 8822.235494331373
556.5695617650363 8725.299382724765
557.5860542154242 8764.642320396804
558.6022883135283 8739.685370489353
559.6182641396881 8758.09295015867
560.6339817741991 8793.423898618094
561.6494412973225 8799.123870422269
562.6646427892883 8888.140263316764
563.6795863302796 8715.89409046274
564.694272000459 8697.906594223368
565.7086998799423 8875.688033213279
566.7228700488104 8724.992582115723
567.7367825871115 8684.52063933596
568.7504375748576 8754.810457521555
569.7638350920224 8801.720610811923
570.7769752185486 8703.261349974719
571.7898580343353 8761.149322844043
572.802483619258 8626.500823120587
573.8148520531431 8857.729572265633
574.8269634157932 8805.452312494266
575.8388177869692 8722.695828537027
576.8504152463938 8756.243257655155
577.8617558737587 8894.534261804802
578.8728397487175 8761.747358789138
579.883666950891 8856.203027858695
580.8942375598654 8969.926534761553
581.9045516551851 9014.78140286999
582.9146093163617 9216.042683210164
583.924410622878 8927.940260195777
584.9339556541727 8912.478530185932
585.9432444896538 9178.160478177155
586.9522772086875 9105.52316031621
587.9610538906127 9073.657082028734
588.9695746147318 9019.571329163133
589.9778394603054 9013.174787183829
590.985848506567 9035.72375751183
591.9936018327098 9017.817352180555
593.0010995178891 8853.522322865438
594.0083416412344 8991.506422357876
595.0153282818283 8812.977575567178
596.0220595187293 8901.93816372774
597.0285354309508 8817.975532818014
598.0347560974806 8862.566402781551
599.0407215972609 8842.242824684463
600.0464320092051 8766.332483764101
601.0518874121954 8861.444628739739
602.0570878850685 8841.881898215426
603.062033506636 8779.517353010766
604.0667243556636 8740.579356471113
605.0711605108936 8669.05597543682
606.0753420510264 8946.73913184203
607.0792690547278 8754.24609123761
608.082941600629 8676.805035311449
609.0863597673306 8838.87743541499
610.0895236333909 8856.177770121223
611.0924332773357 9039.851088329797
612.0950887776617 8948.321925077169
613.0974902128219 9002.532298904702
614.0996376612384 9180.159500538639
615.1015312013005 9276.314338414555
616.1031709113595 9294.348920572793
617.1045568697336 9232.846740904297
618.1056891547069 9333.954572104445
619.1065678445229 9429.594721605501
620.1071930173985 9712.371244501888
621.1075647515099 9733.496508614773
622.1076831250048 9770.521639803692
623.1075482159849 9881.30933791977
624.1071601025305 9932.289586582898
625.1065188626781 9973.602310439393
626.105624574433 10258.23236657977
627.1044773157682 10243.16365659991
628.1030771646128 10180.64078528035
629.1014241988742 10346.593768279268
630.0995184964158 10425.723536459765
631.0973601350688 10447.443295982372
632.0949491926294 10494.929504296462
633.0922857468631 10292.264617084384
634.089369875499 10410.097436218828
635.0862016562278 10322.20569937572
636.0827811667077 10058.539516039786
637.0791084845641 10046.372823598615
638.0751836873878 9913.642283903513
639.0710068527369 9951.441151971423
640.0665780581294 9789.423678075993
641.0618973810506 9653.050051004482
642.0569648989604 9645.423036013131
643.0517806892676 9363.341002808695
644.0463448293649 9427.888700898955
645.040657396592 9256.616771993236
646.0347184682723 9176.252932358526
647.0285281216875 9003.359510694618
648.0220864340772 8965.641599489949
649.0153934826558 8851.458491982949
650.0084493446047 8829.812832903619
651.0012540970674 8822.017007184224
651.9938078171526 8658.480058397487
652.9861105819346 8589.941416109024
653.9781624684565 8689.49432457757
654.9699635537254 8457.326431183796
655.9615139147136 8516.800209746016
656.9528136283589 8348.9360190185
657.9438627715699 8486.444501474645
658.9346614212154 8358.109480430157
659.925209654135 8156.932725495972
660.9155075471263 8149.16164083375
661.9055551769616 8202.46107171716
662.895352620375 8309.742342693069
663.8848999540678 8084.8456847485995
664.8741972547068 8054.911883658859
665.863244598926 8044.494597954181
666.8520420633213 8046.0469505966175
667.8405897244611 7977.7947133312355
668.8288876588758 7902.9346257728885
669.8169359430613 8075.568779767471
670.8047346534822 7968.786680063706
671.7922838665672 7888.644964345236
672.7795836587156 8007.919273489699
673.766634106285 8144.479482809761
674.7534352856092 7871.666735562083
675.7399872729766 7871.41268294514
676.7262901446538 7928.680564734312
677.712343976862 7949.432299987913
678.6981488457986 7925.54948722926
679.6837048276229 7839.304112521048
680.6690119984596 7935.388290987146
681.6540704344043 8002.710742858415
682.6388802115107 7917.636174266265
683.6234414058108 7894.482459070828
684.6077540932874 7835.94813187908
685.591818349907 7891.00445126885
686.575634251587 7867.961420112966
687.5592018742263 7859.204629955738
688.5425212936734 7743.248026648411
689.5255925857564 7906.652982266167
690.5084158262707 7844.371584561483
691.4909910909646 7753.898897349813
692.4733184555644 7716.937199155279
693.4553979957618 7763.637431119673
694.4372297872123 7712.021912784117
695.4188139055404 7692.420223275156
696.4001504263324 7579.822880295335
697.3812394251509 7737.798705534992
698.3620809775111 7618.085975560331
699.3426751589104 7649.219264828377
700.3230220448004 7603.526256320365
701.3031217106054 7553.3515766799155
702.2829742317172 7839.8445540061675
703.2625796834873 7510.527784154792
704.2419381412474 7547.744489099956
705.22104968028 7593.203386615579
706.1999143758458 7481.684697109321
707.178532303169 7551.322789995797
708.1569035374378 7710.486768873021
709.1350281538107 7707.662208018551
710.1129062274158 7629.78940647141
711.0905378333373 7825.49321196278
712.0679230466376 7770.682506317261
713.0450619423427 7969.998204283895
714.0219545954424 8090.199903588124
714.9986010808989 7984.097589142611
715.9750014736292 8101.320468396669
716.9511558485392 8173.509491515833
717.9270642804786 8330.041652737296
718.9027268442787 8281.432886620494
719.8781436147328 8281.469794975686
720.8533146666014 8280.486726665806
721.828240074612 8234.041529157605
722.8029199134635 8118.613087437528
723.7773542578125 8040.1161863144425
724.751543182294 8029.6174814203
725.7254867615029 7980.119833663474
726.6991850700015 7766.338427548122
727.6726381823228 7797.73986931997
728.6458461729599 7748.3614439467
729.6188091163858 7722.622354778844
730.5915270870246 7768.616291902702
731.5640001592856 7691.749984560277
732.536228407529 7706.397961116309
733.5082119060917 7707.866323135937
734.4799507292755 7620.405715434041
735.4514449513481 7617.491040995696
736.4226946465496 7688.568107288311
737.3936998890786 7720.186306337697
738.3644607531078 7607.777204029086
739.3349773127793 7595.142954179391
740.3052496421951 7551.3450664086895
741.27527781543 7470.657372717853
742.2450619065221 7378.943431537298
743.2146019894826 7472.621839559598
744.183898138288 7396.8545970721925
745.1529504268801 7339.662711375653
746.1217589291682 7195.320401523245
747.0903237190341 7193.456819862263
748.058644870318 7184.38618584237
749.0267224568397 7128.79826610816
749.994556552374 7040.886636934968
750.9621472306771 7121.538438858281
751.9294945654583 7131.26683700683
752.8965986304011 7172.718246724295
753.8634594991636 7050.970987736339
754.8300772453586 7158.1165971983255
755.7964519425768 7099.726592472211
756.762583664371 7285.629896153885
757.7284724842611 7245.181554606109
758.6941184757416 7059.788714753032
759.6595217122667 7159.937669658131
760.6246822672638 7165.361218900158
761.5896002141235 7002.61674896852
762.5542756262093 7057.346600817237
763.5187085768503 7130.893689407884
764.4828991393406 7092.575619765412
765.4468473869474 7079.6773277311295
766.4105533929032 7107.594939932469
767.3740172304078 6999.168405547687
768.3372389726283 7192.303124356016
769.3002186926988 6943.336543636821
770.2629564637282 6951.889501259288
771.2254523587872 6903.117389515118
772.1877064509154 6895.334953039119
773.1497188131179 6750.5154342252445
774.1114895183728 6777.404120549331
775.0730186396268 6784.858528064295
776.0343062497905 6802.64331749109
776.9953524217381 6730.397462312115
777.9561572283274 6791.657087736295
778.9167207423689 6793.542919478556
779.8770430366476 6727.599689970113
780.8371241839159 6782.235580003059
781.7969642568951 6763.024884740604
782.7565633282757 6974.66758173563
783.7159214707099 6768.659494438443
784.6750387568281 6880.185568581948
785.6339152592227 6793.569269054429
786.5925510504512 6769.762580628808
787.5509462030477 6847.979876138903
788.5091007895098 6809.991911736513
789.4670148823006 6722.2430270539935
790.4246885538596 6745.5267802886465
791.3821218765861 6836.265179540031
792.3393149228505 6718.745317161306
793.2962677649975 6864.76422733068
794.2529804753303 6862.8211205134085
795.20945312613 6869.225356083094
796.1656857896378 6813.757934148756
797.1216785380675 6774.2875066246215
798.0774314435985 6836.686984437971
799.0329445783846 7031.90201531753
799.9882180145414 6905.850680109147
800.9432518241574 6884.67482451586
801.89804607929 7025.9630140150275
802.852600851962 7143.579814879185
803.8069162141637 7061.641833508768
804.760992237856 7127.867988111355
805.714828994971 7183.034053817411
806.6684265574077 7239.432377950143
807.6217849970271 7183.400097255323
808.574904385674 7072.179226203669
809.527784795142 7155.749392980833
810.4804262972102 7223.8081066668
811.4328289636178 7043.409729649708
812.3849928660748 6905.738996883968
813.3369180762638 6820.538791811852
814.2886046658241 6958.659964855562
815.2400527063783 6820.775287156032
816.1912622695108 6753.714739308469
817.1422334267718 6824.224062017964
818.0929662496856 6705.421263870773
819.0434608097457 6534.6522562515165
819.9937171784059 6591.751873754746
820.9437354271013 6527.704990104934
821.8935156272255 6721.287540446491
822.8430578501484 6509.785546179535
823.7923621672016 6401.398922464295
824.7414286496896 6493.099976527607
825.6902573688876 6505.969554452671
826.6388483960363 6445.989315527568
827.5872018023492 6400.217710783348
828.5353176590033 6551.3263420451785
829.4831960371503 6376.523074764174
830.4308370079016 6333.114739716006
831.3782406423525 6379.341314714908
832.3254070115545 6415.672031845951
833.2723361865319 6328.268926324509
834.2190282382799 6278.741260700256
835.1654832377644 6376.670223699025
836.1117012559116 6259.934297555292
837.0576823636256 6437.591266668121
838.003426631778 6202.259571063548
838.9489341312074 6185.13666281367
839.8942049327197 6330.298236201599
840.8392391070975 6393.645797100227
841.7840367250865 6251.697713474489
842.7285978573982 6228.6428953792165
843.672922574724 6369.012021472827
844.6170109477152 6301.773123692576
845.560863046996 6259.7675932411785
846.5044789431595 6319.555400568179
847.4478587067697 6224.618097163285
848.3910024083561 6406.803864147891
849.333910118421 6338.509870621913
850.2765819074339 6228.695811135377
851.2190178458332 6322.070470482686
852.161218004032 6429.288172346647
853.1031824524016 6321.844129808071
854.0449112612987 6255.679496707637
854.9864045010327 6378.449341006721
855.9276622418947 6230.066313886685
856.8686845541379 6303.796815954939
857.8094715079915 6272.8306808929
858.7500231736467 6461.324573737749
859.690339621271 6314.545961688114
860.6304209209939 6420.447665255624
861.5702671429244 6250.151540703109
862.5098783571284 6402.304483447468
863.4492546336569 6344.820774904417
864.3883960425155 6404.345055365898
865.3273026536863 6319.278297862069
866.2659745371238 6309.956420664847
867.2044117627465 6577.406083535486
868.1426144004472 6433.385011841043
869.0805825200823 6522.669533886674
870.0183161914847 6503.9895145817045
870.9558154844526 6556.2815948293455
871.8930804687552 6584.652796121632
872.8301112141307 6384.295625810886
873.7669077902865 6635.7739104296
874.7034702669062 6745.0855360363
875.6397987136315 6567.069710775786
876.5758932000863 6659.277539923065
877.5117537958522 6711.0115081840895
878.4473805704911 6624.922062436328
879.3827735935283 6620.1748457472
880.3179329344603 6736.219764000208
881.2528586627541 6727.1438722216935
882.1875508478479 6841.599350613757
883.1220095591489 6693.359576402319
884.0562348660296 6586.31600193276
884.9902268378391 6741.054533720952
885.9239855438955 6593.407536487488
886.8575110534839 6549.396728347075
887.7908034358588 6607.262734635306
888.7238627602474 6483.026742241782
889.6566890958475 6546.153555064284
890.5892825118208 6385.248369377925
891.5216430773125 6477.067448827165
892.4537708614189 6433.96020744775
893.3856659332196 6321.99986059326
894.3173283617652 6214.515470968325
895.2487582160684 6336.5084754576355
896.179955565116 6233.750601000653
897.110920477864 6208.449409048864
898.0416530232451 6114.151102836654
898.9721532701478 6094.479930559082
899.9024212874428 6230.550334683225
900.8324571439662 6064.469808471689
901.7622609085302 6050.741207847475
902.6918326499072 5948.637299813411
903.6211724368477 6107.618826393911
904.5502803380696 6135.425960766583
905.4791564222614 6241.137912555549
906.4078007580792 6002.020997848514
907.3362134141571 6010.62712895984
908.2643944590909 6195.724633284487
909.1923439614493 5982.283667085003
910.1200619897754 6002.31394660653
911.0475486125779 6150.428266005894
911.9748038983344 6037.876021074449
912.9018279155007 5981.7527025018735
913.8286207324982 5901.875547833935
914.7551824177117 6011.948282829863
915.6815130395116 5913.356034837904
916.6076126662283 5819.973674168797
917.533481366163 5953.776822802509
918.4591192075914 5932.728733286661
919.3845262587565 5993.890893208931
920.3097025878706 5849.153972657453
921.2346482631237 5864.595115987862
922.1593633526682 5926.640282710561
923.0838479246304 6018.205458862436
924.0081020471061 6116.921891578305
924.9321257881656 5810.454655364422
925.8559192158464 5940.54532134111
926.7794823981512 5823.826225920972
927.7028154030686 5764.546364309061
928.6259182985414 5699.696110742813
929.5487911524906 5980.76396352492
930.4714340328119 6007.314784803127
931.3938470073608 5772.8151559782345
932.3160301439748 5759.0287216600545
933.2379835104548 5821.2327545956705
934.1597071745709 5953.330474940552
935.0812012040769 5890.772356806761
936.002465666681 5987.88336083955
936.9235006300696 5905.184454452319
937.8443061619055 5933.640924364558
938.7648823298077 5809.202736994827
939.6852292013809 5785.899915267202
940.6053468441951 5947.520950568671
941.5252353257874 5768.001516154329
942.4448947136698 5805.662383124446
943.364325075323 5789.8661948208255
944.2835264782043 5827.31951347879
945.2024989897309 5775.9088146190825
946.1212426773054 5846.4839110497005
947.0397576082851 5935.614525831327
947.9580438500125 6002.774934546729
948.8761014697939 5908.926502540546
949.7939305349064 5894.073376397397
950.7115311125999 5741.572454905914
951.6289032700952 5738.336464512362
952.5460470745875 5949.343054169712
953.4629625932339 5780.656398536429
954.3796498931715 5817.282514907681
955.2961090415029 5890.527504236961
956.2123401053068 5859.539175417092
957.1283431516276 5806.696153079181
958.0441182474842 5735.38174505679
958.9596654598663 5896.306158005902
959.8749848557309 5827.731265970413
960.7900765020167 5701.487389150256
961.7049404656209 5687.802111037743
962.6195768134185 5766.921280309098
963.5339856122537 5817.76695540678
964.4481669289453 5829.53342046583
965.3621208302793 5771.886454063946
966.2758473830145 5721.033157937385
967.1893466538822 5972.998171116263
968.1026187095813 5707.744760227409
969.0156636167867 5755.835109639402
969.9284814421426 5848.403955866277
970.8410722522622 5796.408683368007
971.753436113735 5770.335259789428
972.6655730931161 5697.505623278414
973.5774832569368 5883.577481910088
974.4891666716958 5693.43074343923
975.4006234038698 5707.906234347463
976.3118535198955 5659.498620544435
977.2228570861935 5847.344696686855
978.1336341691494 5855.445751885076
979.0441848351202 5673.600067529069
979.9545091504333 5816.686960142676
980.864607181391 5743.076132641044
981.7744789942699 5842.930397622422
982.6841246553086 5779.838507444764
983.5935442307236 5807.101941678649
984.5027377867027 5890.417827313719
985.4117053894024 5854.07020490809
986.3204471049557 5779.259444390491
987.2289629994648 5875.910461559046
988.1372531390007 5966.455700477294
989.0453175896091 5916.212524958974
989.9531564173067 5911.333771483066
990.860769688079 5781.255000647481
991.7681574678918 5787.932785961547
992.6753198226706 5921.421900867079
993.582256818323 5857.8221502359265
994.4889685207218 5870.947652599318
995.3954549957143 6022.897815970983
996.301716309119 6019.824220258468
997.2077525267232 5902.9815614947265
998.1135637142943 5917.172891399315
999.0191499375615 6114.221659398669
999.924511262232 6076.034992805387
1000.8296477539861 6036.742967838484
1001.7345594784656 5912.935530729168
1002.6392465012996 5880.101876945701
1003.5437088880753 6004.220200202385
1004.4479467043584 5987.954742916815
1005.3519600156869 5739.111584921631
1006.2557488875718 6000.557518642347
1007.1593133854858 5976.192147858809
1008.0626535748888 5768.6090806669945
1008.9657695212009 5700.9483590773725
1009.8686612898182 6068.61569177799
1010.7713289461135 5966.719151321956
1011.6737725554212 5813.539899241544
1012.5759921830577 5830.433455036663
1013.4779878943027 5842.358511480636
1014.379759754418 5944.346647541089
1015.2813078286254 5720.526895776746
1016.18263218213 5599.493477017864
1017.0837328801026 5715.221052817489
1017.9846099876886 5816.298973638814
1018.8852635700023 5689.9006310369505
1019.7856936921362 5565.3681831737995
1020.6859004191447 5851.801314789579
1021.5858838160675 5574.975533238996
1022.4856439479063 5599.451418076368
1023.3851808796389 5524.128269234199
1024.2844946762143 5751.82631273016
1025.183585402554 5595.0707552845215
1026.082453123554 5447.378084250119
1026.9810979040776 5530.940533920535
1027.8795198089647 5423.465584395649
1028.777718903024 5501.833589791423
1029.6756952510368 5449.868075538249
1030.5734489177648 5473.131599271688
1031.4709799679313 5386.891919620837
1032.3682884662358 5635.713168288253
1033.2653744773506 5332.449103088963
1034.1622380659192 5337.228802361399
1035.058879296559 5398.44811275077
1035.9552982338591 5515.6282989454685
1036.8514949423825 5467.18622696716
1037.7474694866614 5381.767692071665
1038.6432219312028 5409.813620478786
1039.5387523404825 5522.524137069881
1040.4340607789582 5472.824878052964
1041.3291473110476 5441.165085630127
1042.2240120011465 5574.8229342881805
1043.1186549136273 5519.090365921634
1044.0130761128294 5433.962224627154
1044.9072756630649 5474.379479174843
1045.8012536286205 5550.546773359396
1046.6950100737577 5582.58196176261
1047.588545062701 5662.798234195553
1048.481858659663 5559.457147944488
1049.3749509288118 5730.497165077706
1050.2678219343034 5530.602528410429
1051.1604717402515 5634.0367917769245
1052.0529004107575 5435.828649967453
1052.9451080098825 5595.94518860324
1053.8370946016694 5596.456409020878
1054.7288602501267 5597.239381227803
1055.6204050192446 5573.632618309353
1056.511728972977 5626.025915754089
1057.402832175254 5701.358159015608
1058.2937146899785 5488.928498790384
1059.1843765810263 5479.229451128097
1060.0748179122456 5615.566719629334
1060.9650387474576 5534.457575296515
1061.855039150456 5570.239646621381
1062.7448191850071 5498.510025070049
1063.6343789148505 5518.690005074175
1064.5237184037014 5682.318377311029
1065.412837715241 5446.736403958182
1066.3017369131267 5433.717531356201
1067.190416060992 5516.814549449783
1068.0788752224398 5414.398978538427
1068.9671144610438 5341.928643828353
1069.8551338403558 5502.719257172177
1070.7429334239023 5452.309085851775
1071.6305132751695 5344.660137110598
1072.517873457633 5430.832105159219
1073.4050140347335 5387.728756270258
1074.2919350698776 5426.030113284038
1075.1786366264623 5329.03423338364
1076.0651187678395 5400.7908807153335
1076.95138155735 5197.861169176831
1077.8374250582929 5351.970443166763
1078.7232493339507 5440.988348547333
1079.608854447577 5276.340934175374
1080.4942404623907 5172.082342764066
1081.3794074415982 5353.763935831582
1082.2643554483657 5346.610771120465
1083.149084545841 5240.810725779766
1084.033594797138 5201.404483531885
1084.9178862653516 5174.507865520604
1085.8019590135427 5407.470122624568
1086.6858131047484 5112.676542308762
1087.5694486019802 5197.240959081553
1088.4528655682225 5199.83755680651
1089.3360640664287 5372.711825152228
1090.2190441595321 5275.053539486527
1091.1018059104317 5273.885984659208
1091.98434938201 5319.878861345494
1092.866674637111 5493.485654058583
1093.748781738559 5278.194054879319
1094.6306707491512 5073.40753251721
1095.5123417316554 5259.872164320616
1096.3937947488157 5211.226538991068
1097.2750298633455 5196.45363197757
1098.156047137938 5151.9774026094965
1099.0368466352556 5219.831715415654
1099.9174284179317 5368.608440630975
1100.7977925485757 5028.667580509387
1101.6779390897755 5125.861762508866
1102.5578681040806 5165.237368974313
1103.4375796540226 5235.319056032522
1104.3170738021054 5120.103607103048
1105.1963506108077 4957.849666593516
1106.0754101425773 4976.563766447486
1106.9542524598382 5171.269793293492
1107.8328776249855 5082.05665775119
1108.7112857003904 5022.29670346987
1109.5894767483987 5035.856549753418
1110.4674508313292 5302.586896942845
1111.3452080114657 5086.528756200191
1112.2227483510815 5263.118723006876
1113.1000719124077 5244.35057353193
1113.9771787576592 5442.049733890792
1114.854068949022 5223.315112232727
1115.7307425486542 5401.108364897427
1116.6071996186893 5434.37370414812
1117.483440221229 5694.942150250405
1118.3594644183577 5432.5615059779975
1119.235272272128 5482.294393260096
1120.1108638445658 5576.558467927355
1120.9862391976712 5820.350099441175
1121.8613983934229 5693.1910152283735
1122.7363414937627 5665.433978376386
1123.6110685606182 5666.996375221571
1124.485579655884 5894.663501743523
1125.359874841426 5771.349416988911
1126.2339541790916 5894.8053735055355
1127.1078177306936 5948.718979962569
1127.9814655580267 5850.052668344552
1128.854897722851 5873.3032518821055
1129.7281142869106 5850.954797587511
1130.6011153119125 5882.433148511927
1131.473900859548 6058.027751427352
1132.3464709914697 5837.413195426913
1133.2188257693178 5859.78604371863
1134.0909652546961 5745.830909447408
1134.96288950919 5635.493430866454
1135.8345985943506 5835.721444558235
1136.7060925717087 5553.342265206627
1137.57737150277 5590.708059387071
1138.4484354490069 5775.567797752656
1139.3192844718778 5470.499329897515
1140.1899186327992 5371.205392011042
1141.060337993178 5532.253574892337
1141.930542614382 5397.030277295605
1142.8005325577597 5336.01178142204
1143.670307884635 5134.566750247466
1144.5398686563003 5298.3466894761
1145.409214934025 5299.109501041432
1146.2783467790541 5049.106143399231
1147.1472642526023 5147.74552854465
1148.0159674158622 5218.487731438356
1148.8844563300026 5036.089539648779
1149.7527310561618 4970.990479807108
1150.6207916554504 4934.650146449285
1151.4886381889592 4879.2857893475475
1152.3562707177498 5015.902024130996
1153.2236893028585 4858.9510552348165
1154.090894005296 4802.098156110091
1154.9578848860474 4927.974530673227
1155.8246620060709 4852.92960482348
1156.6912254262988 4730.572534083987
1157.5575752076438 4708.0162391227805
1158.42371141098 4905.063534010706
1159.2896340971656 4915.572616748349
1160.1553433270346 4775.938978118481
1161.0208391613887 4888.719771766097
1161.8861216610057 4928.164156433275
1162.75119088664 4853.986140804749
1163.6160468990201 4725.718447943176
1164.4806897588442 4733.908999196843
1165.3451195267917 4886.575872020773
1166.2093362635114 4854.097983524675
1167.0733400296285 4868.753614582821
1167.9371308857444 4706.448702189621
1168.8007088924278 4755.974487284917
1169.6640741102328 4868.159164019476
1170.5272265996773 4717.242374290187
1171.390166421259 4589.573755557278
1172.252893635452 4816.04108444177
1173.1154083026995 4969.117545023293
1173.977710483421 4870.402614972159
1174.8398002380145 4622.680259423891
1175.7016776268483 4826.077227984875
1176.563342710264 4788.909002366511
1177.4247955485826 4741.419293302267
1178.2860362020947 4897.828239246532
1179.147064731069 4646.9357430836835
1180.0078811957483 4813.250158424711
1180.8684856563486 4682.363607190315
1181.7288781730604 4797.202452040958
1182.589058806052 4831.024831599984
1183.4490276154593 5032.896511233256
1184.3087846614017 4760.355264052687
1185.1683300039676 4884.776051738655
1186.027663703222 5065.878765858254
1186.8867858192025 4880.225413597672
1187.7456964119228 4927.727066951493
1188.6043955413716 5055.7751397347
1189.4628832675116 5125.292986777155
1190.3211596502842 5246.84894740649
1191.179224749596 5234.634779917619
1192.0370786253388 5036.166819404803
1192.8947213373758 5253.244881078447
1193.7521529455407 5381.257734448327
1194.6093735096438 5144.396725954538
1195.466383089477 5125.235094109363
1196.3231817447977 5152.162697289574
1197.1797695353398 5392.547089566107
1198.0361465208189 5112.523504023427
1198.8923127609214 5105.306139198472
1199.7482683153048 5266.993332348784
1200.6040132436028 5379.577679993202
1201.459547605431 5102.1816506631485
1202.3148714603722 5198.766154564457
1203.1699848679855 5163.486816084138
1204.0248878878065 5269.9914550087615
1204.8795805793507 4823.746151552388
1205.7340630020935 5139.85978659489
1206.5883352155033 5218.711235977903
1207.4423972790064 5135.215321299007
1208.2962492520237 5041.339159708807
1209.1498911939307 5025.238599358707
1210.0033231640937 5032.672421260112
1210.8565452218427 5056.010157401559
1211.7095574264913 4776.745429629586
1212.5623598373222 4851.509849372353
1213.4149525135963 4803.747353139664
1214.2673355145507 4981.53460727049
1215.1195088993936 4748.429176518119
1215.9714727273113 4821.240215436976
1216.8232270574663 5036.429986458754
1217.6747719489904 4772.326530977451
1218.5261074609934 4760.953246959727
1219.3772336525653 4917.392083317429
1220.2281505827668 4908.203341817783
1221.0788583106296 4983.2074939195045
1221.9293568951707 4707.16647689762
1222.7796463953746 4629.710162406967
1223.629726870202 4868.292932546405
1224.4795983785934 4860.168701851065
1225.3292609794553 4837.8677704229685
1226.1787147316809 4668.292930401263
1227.0279596941327 4789.26675070419
1227.8769959256424 4658.420988561314
1228.7258234850306 4817.371196376668
1229.5744424310833 4554.379487060186
1230.422852822563 4843.818802254429
1231.2710547182105 5005.436950308987
1232.119048176739 4832.0396968063305
1232.9668332568417 4564.958591815319
1233.8144100171812 4863.900845116421
1234.6617785163999 4798.102604824248
1235.508938813111 4545.818451233099
1236.3558909659114 4700.808057182336
1237.2026350333617 4852.679668968178
1238.049171074008 4877.701486774825
1238.8954991463652 4685.463716083806
1239.741619308932 4778.266670014117
1240.587531620169 4833.120533416866
1241.4332361385277 4886.840589845495
1242.2787329224248 4725.867791602648
1243.1240220302534 4670.396919511267
1243.9691035203869 4653.537367702627
1244.813977451171 4925.725045752895
1245.6586438809263 4788.107700658934
1246.5031028679496 4500.761481197844
1247.3473544705157 4789.048709200104
1248.1913987468706 4732.579113518677
1249.0352357552383 4518.8628635969435
1249.8788655538228 4638.322216348237
1250.7222882007918 4880.248745853837
1251.565503754302 4761.6625491653285
1252.4085122724755 4502.072030697826
1253.2513138134182 4861.384850368991
1254.0939084352049 4665.986185544627
1254.9362961958905 4735.737237631273
1255.7784771535007 4641.111917024277
1256.6204513660432 4815.325534071142
1257.4622188915 4932.709154745736
1258.3037797878242 4741.866299916268
1259.1451341129468 4542.516417570171
1259.9862819247755 4756.9460409765925
1260.8272232811978 4684.540193465191
1261.6679582400666 4825.586517237369
1262.5084868592203 4467.208260494355
1263.34880919647 4561.276377269959
1264.1889253095997 4711.158841564827
1265.0288352563712 4902.266394736265
1265.8685390945266 4566.166089956085
1266.7080368817751 4827.328205861013
1267.5473286758115 4846.448191477653
1268.386414534294 4823.528834317451
1269.2252945148703 4467.6392994320595
1270.0639686751547 4648.449176245629
1270.9024370727402 4657.003756680688
1271.7406997651997 4636.983883422675
1272.5787568100714 4437.526811238353
1273.4166082648808 4478.365986780404
1274.2542541871244 4545.224740346883
1275.091694634275 4812.023708740293
1275.9289296637817 4429.895370198387
1276.7659593330663 4685.005675130224
1277.6027836995308 4583.108962706674
1278.4394028205552 4797.7249499862955
1279.2758167534867 4587.282204877158
1280.112025555658 4618.748235753781
1280.9480292843746 4667.676159989818
1281.7838279969128 4372.747027675089
1282.6194217505326 4582.414156529553
1283.4548106024686 4413.380525486538
1284.289994609926 4473.962258997437
1285.1249738300921 4696.571299148702
1285.959748320127 4516.096460406343
1286.7943181371702 4511.691974588887
1287.6286833383328 4579.220213023759
1288.4628439807038 4624.396893931117
1289.2968001213521 4504.550194358739
1290.1305518173194 4536.939812555169
1290.9640991256183 4666.02971250608
1291.7974421032523 4542.737466935572
1292.630580807183 4440.782360072449
1293.463515294361 4674.3154343813385
1294.29624562171 4733.32501303076
1295.12877184613 4488.631475348538
1295.961094024493 4571.747780611823
1296.79321221365 4564.092589723356
1297.6251264704333 4719.625534689547
1298.4568368516466 4856.625085923048
1299.2883434140658 4747.65355683875
1300.1196462144526 4511.537730406654
1300.9507453095375 4702.406999935427
1301.7816407560313 4710.330235599875
1302.6123326106172 4633.250904839539
1303.4428209299622 4595.3645159079315
1304.2731057707024 4915.165451240132
1305.1031871894502 4617.089236715297
1305.933065242798 4744.735855564462
1306.7627399873181 4661.177524545318
1307.5922114795467 5100.527573821653
1308.4214797760123 5160.118635766796
1309.2505449332057 4819.366158831844
1310.0794070076026 4822.898917909079
1310.9080660556538 5002.447790813044
1311.736522133786 4949.604610927371
1312.5647752983987 4874.435960781838
1313.3928256058734 4677.83868347302
1314.2206731125661 4865.956788477439
1315.048317874809 4903.20327961826
1315.8757599489109 4833.658225179045
1316.7029993911547 4851.291497226718
1317.5300362578055 4952.787166147408
1318.356870605101 4707.935933003534
1319.183502489257 4800.004912132144
1320.0099319664623 4951.001773858187
1320.836159092889 4932.2397880469125
1321.66218392468 4967.3109647137435
1322.4880065179532 4620.138750789021
1323.3136269288134 4891.367684726336
1324.1390452133292 5034.1291930524785
1324.9642614275563 5063.28407281772
1325.7892756275214 4824.686049106102
1326.6140878692295 4782.285469793143
1327.4386982086617 5239.538660797994
1328.2631067017755 4899.476193477037
1329.0873134045069 4933.118334750439
1329.911318372764 4827.467637516658
1330.735121662441 4882.591927923296
1331.558723329399 4789.593788535917
1332.3821234294774 4732.666419846831
1333.2053220185007 4866.267424911604
1334.0283191522612 4734.2606850839
1334.851114886529 4934.196392055868
1335.6737092770582 4628.558266573525
1336.4961023795695 4787.209558983219
1337.3182942497697 4593.944588454391
1338.1402849433325 4763.857669587814
1338.962074515921 4570.061072333696
1339.7836630231632 4508.017309825294
1340.6050505206676 5043.209571693904
1341.426237064028 4894.330418602705
1342.2472227088037 4564.442233498974
1343.0680075105338 4527.676526700607
1343.888591524741 4671.4025259566815
1344.7089748069138 4928.211106161323
1345.5291574125276 4665.170387476112
1346.3491393970307 4515.276728979769
1347.168920815846 4716.473451605896
1347.9885017243778 4773.037933079193
1348.8078821780036 4507.389141664657
1349.6270622320844 4687.03024925554
1350.4460419419447 4545.201873734726
1351.2648213629054 4771.907642171823
1352.0834005502438 4458.388559783922
1352.90177955923 4505.428490710774
1353.7199584451064 4732.180575738007
1354.5379372630887 4652.727258290493
1355.355716068374 4573.290501722878
1356.1732949161305 4510.625319750247
1356.9906738615155 4582.074688681144
1357.8078529596478 4615.019068929423
1358.6248322656375 4700.6451471550445
1359.441611834567 4530.804424899678
1360.2581917214866 4746.0591701918875
1361.0745719814367 4533.441922225735
1361.890752669433 4488.423117743563
1362.7067338404577 4460.642209425053
1363.5225155494845 4710.295490540417
1364.3380978514506 4741.053020963095
1365.1534808012839 4325.490611870467
1365.9686644538815 4224.988313314707
1366.783648864117 4675.000621432312
1367.5984340868417 4733.393918482329
1368.413020176893 4611.377886837356
1369.2274071890715 4324.971174705431
1370.0415951781652 4742.378471368023
1370.8555841989346 4604.117648102546
1371.6693743061223 4400.065470766431
1372.48296555444 4258.948975066655
1373.2963579985844 4556.374339893336
1374.1095516932255 4516.2856630640545
1374.9225466930166 4228.780375159833
1375.7353430525782 4550.1468610640895
1376.5479408265164 4339.807988099703
1377.36034006941 4553.821455051217
1378.1725408358216 4599.269557642716
1378.9845431802805 4205.826078753808
1379.796347157304 4836.414570829037
1380.6079528213813 4641.238498985925
1381.4193602269788 4235.319133653937
1382.230569428546 4365.919053071314
1383.0415804805016 4655.404932906065
1383.852393437246 4509.512801003159
1384.6630083531563 4434.324550712424
1385.4734252825892 4350.953850395249
1386.2836442798798 4452.346384403606
1387.0936653993322 4409.103776781281
1387.9034886952395 4390.48412723053
1388.713114221864 4410.505799077406
1389.5225420334482 4520.962130784576
1390.331772184214 4287.621574312698
1391.1408047283585 4093.895198630179
1391.9496397200564 4327.656585043411
1392.758277213461 4372.155091130657
1393.5667172627054 4561.295494753967
1394.3749599218918 4239.065177199542
1395.1830052451114 4056.975050134839
1395.9908532864265 4193.024123062362
1396.7985040998774 4471.318329198423
1397.6059577394808 4190.035407344223
1398.4132142592352 4217.512764035759
1399.2202737131156 4151.469350060239
1400.027136155073 4343.29765504986
1400.8338016390353 4167.749208871949
1401.6402702189134 4157.71278033105
1402.446541948586 4313.002075190202
1403.2526168819204 4126.443980693748
1404.058495072757 4074.1806686235514
1404.8641765749107 4197.770189114955
1405.6696614421799 4246.080540332421
1406.4749497283356 4603.486944599188
1407.280041487129 4172.718972208832
1408.084936772295 3960.4825719680184
1408.8896356375335 4370.787402039589
1409.6941381365323 4279.050088516784
1410.498444322955 4055.7402880494183
1411.3025542504402 4108.843977503812
1412.106467972606 4211.51540981248
1412.9101855430508 4278.799969267011
1413.7137070153458 4019.796423951074
1414.5170324430437 4146.529841371506
1415.320161879672 4175.421319710303
1416.1230953787435 4420.35100358223
1416.925832993742 4044.254328888272
1417.7283747781275 3925.2176225479707
1418.5307207853439 4236.454699796743
1419.3328710688093 4077.9348694375703
1420.134825681922 3859.4104130566257
1420.9365846780584 4042.9997798868217
1421.7381481105713 4389.681798627339
1422.539516032788 4137.052515642269
1423.3406884980232 3946.3589256207933
1424.1416655595604 3881.7095835957894
1424.942447270665 4020.8702808233356
1425.7430336845828 4197.126159844365
1426.5434248545298 3847.7240751347263
1427.3436208337116 4075.9907153876384
1428.143621675301 4108.271460419341
1428.9434274324558 4260.444868520904
1429.7430381583108 3788.3017806020716
1430.5424539059713 3979.2142577114123
1431.3416747285337 4344.772785258824
1432.1407006790632 4037.264954374087
1432.9395318106053 4040.4963223664454
1433.7381681761835 3747.178282683063
1434.5366098288014 3949.732240161275
1435.3348568214424 4039.0322926017834
1436.1329092070573 3817.956330144624
1436.9307670385879 3905.959833477522
1437.7284303689503 4022.429446338831
1438.5258992510335 4140.867472607125
1439.3231737377118 4016.724476098465
1440.1202538818306 3945.322045834472
1440.9171397362225 3926.2681846018954
1441.7138313536925 3927.8024140119205
1442.5103287870243 3707.644798045089
1443.3066320889775 3771.806198193944
1444.1027413122956 4078.9017789173913
1444.8986565096966 3870.57307230565
1445.694377733882 3790.471734056049
1446.4899050375207 3624.0319920050397
1447.2852384732687 3885.6701367565593
1448.0803780937622 3989.088135363475
1448.8753239516063 3740.1669870646047
1449.6700760993954 3524.6170528455827
1450.464634589689 3774.918395583157
1451.2589994750397 4135.557777398325
1452.0531708079689 3654.901532856323
1452.8471486409799 3596.9848354077208
1453.6409330265524 4049.3491930317477
1454.4345240171442 3736.160641685097
1455.2279216651987 3678.079189419722
1456.0211260231263 3781.3674233829697
1456.8141371433194 3905.6932995556563
1457.6069550781594 3860.4671714819897
1458.3995798799897 3577.4729703582525
1459.1920116011424 3750.798840917391
1459.98425029393 3552.6932474616465
1460.7762960106338 3565.803676644309
1461.5681488035225 3675.4232794716677
1462.3598087248392 3788.60385132361
1463.1512758268036 3908.859685291155
1463.942550161617 3598.5137167665853
1464.7336317814625 3588.0860130084147
1465.524520738496 3725.297402569732
1466.3152170848552 3553.763991814688
1467.1057208726506 3719.175884069037
1467.8960321539817 3656.6848542300713
1468.6861509809169 3608.612788883708
1469.4760774055085 3635.8356359380327
1470.265811479785 3620.715645672568
1471.055353255755 3386.2356310994664
1471.844702785409 3487.9815140759865
1472.6338601207044 3469.572045734133
1473.4228253135934 3728.817271255998
1474.2115984159936 3409.6195878303624
1475.0001794798063 3304.7288814031153
1475.7885685569145 3690.2150277371147
1476.576765699172 3606.3688783970947
1477.3647709584238 3484.2046749590954
1478.1525843864802 3831.952040484339
1478.9402060351367 3683.045765571136
1479.7276359561693 3638.148693644368
1480.514874201328 3460.779390758444
1481.3019208223468 3329.699117416655
1482.0887758709323 3349.6558596735895
1482.8754393987747 3692.3478882521886
1483.6619114575406 3343.453312941536
1484.4481920988783 3487.1892175135517
1485.2342813744108 3606.317374946427
1486.0201793357446 3714.433636459854
1486.8058860344572 3410.8306319848125
1487.591401522117 3431.3835237685817
1488.3767258502594 3422.358506739004
1489.1618590704056 3530.9542388640316
1489.9468012340494 3195.1751178882378
1490.7315523926754 3536.8873497758746
1491.5161125977356 3595.1425809276684
1492.3004819006637 3565.8638539029635
1493.084660352877 3352.3549519278663
1493.8686480057622 3555.8710957729227
1494.6524449106964 3704.7006841151588
1495.4360511190262 3746.830530533495
1496.219466682087 3587.145474104941
1497.0026916511779 3550.9657788457785
1497.7857260775945 3475.8771951998897
1498.5685700125996 3634.615340526613
1499.3512235074395 3311.069038424435
1500.133686613337 3380.0895678880506
1500.9159593814966 3346.77248666324
1501.698041863101 3917.4130338298005
1502.4799341093094 3297.765239453285
1503.2616361712662 3301.981812836876
1504.043148100087 3597.918730991899
1504.8244699468742 3576.9416858214126
1505.6056017626997 3361.676443250571
1506.3865435986281 3275.16585193379
1507.1672955056893 3491.4851818742136
1507.9478575348967 3390.663400896249
1508.7282297372512 3671.716547515961
1509.5084121637192 3548.3619488916397
1510.2884048652577 3486.346020368446
1511.0682078927948 3368.709777818373
1511.8478212972423 3438.0053862647264
1512.6272451294917 3320.606355502274
1513.4064794404076 3600.6057400987893
1514.1855242808433 3662.3998643766217
1514.9643797016215 3484.5031155697493
1515.743045753552 3522.9455852985693
1516.5215224874191 3524.982490781315
1517.2998099539836 3248.991217939077
1518.077908203999 3457.1653219698674
1518.8558172881785 3297.136253078615
1519.633537257234 3463.3977830431204
1520.4110681618404 3583.09882017153
1521.1884100526604 3496.6955936623644
1521.9655629803365 3421.226280367161
1522.7425269954856 3718.786893388712
1523.5193021487103 3885.7603346545047
1524.2958884905856 3333.65413635974
1525.0722860716687 3477.7609371816616
1525.848494942502 3349.5993096076645
1526.624515153595 3486.4398891836995
1527.4003467554485 3477.818606189746
1528.175989798534 3683.1317094891483
1528.9514443333064 3474.6146850810533
1529.726710410203 3721.381340668031
1530.5017880796331 3321.542976354109
1531.276677391992 3440.82118615901
1532.0513783976457 3691.582133530269
1532.825891146953 3423.4448354531814
1533.6002156902414 3620.599750447503
1534.3743520778207 3432.9533890429557
1535.1483003599806 3543.7564874897603
1535.9220605869923 3530.424494551554
1536.6956328091019 3587.806982960916
1537.4690170765407 3411.29614658823
1538.242213439511 3637.7337576168284
1539.015221948208 3502.3158405367603
1539.78804265279 3448.7384610487074
1540.560675603405 3301.8347300393375
1541.3331208501804 3712.552390564176
1542.1053784432224 3738.3653597965167
1542.8774484326168 3557.817860199174
1543.649330868422 3625.6042472640206
1544.4210258006842 3617.3333301607317
1545.1925332794308 3618.5050363615956
1545.9638533546604 3541.1808446314135
1546.7349860763552 3445.2430017139877
1547.5059314944829 3879.3552852953753
1548.27668965898 3594.2728200687116
1549.0472606197673 3696.782766482611
1549.817644426752 3504.5991008765427
1550.5878411298072 3757.30897740235
1551.3578507787988 3599.889951221706
1552.1276734235635 3383.6186803741266
1552.8973091139233 3568.7664717146226
1553.6667578996767 3650.2465073884277
1554.436019830604 3500.9201319706262
1555.20509495646 3485.767352550839
1555.9739833269869 3479.9135165683715
1556.7426849919011 3436.5080348492215
1557.511200000903 3787.810008621242
1558.2795284036674 3632.5629155352835
1559.0476702498509 3559.3748912091432
1559.8156255890954 3777.846920128481
1560.5833944710157 3990.376921138149
1561.3509769452048 3435.5882963738745
1562.1183730612447 3602.345538212561
1562.8855828686865 3557.21296363536
1563.6526064170703 3881.633199869918
1564.4194437559127 3730.1026465468663
1565.1860949347047 3515.8306160100597
1565.9525600029283 3969.3459159534395
1566.7188390100328 3961.3513740637404
1567.4849320054564 3505.6809537232452
1568.250839038612 3565.3627631911377
1569.0165601588997 3627.490042391569
1569.7820954156887 3707.461582618932
1570.5474448583373 3601.7185977676963
1571.31260853618 3589.5385815604873
1572.0775864985299 3326.434950442321
1572.8423787946813 3704.1488111719614
1573.6069854739108 3452.5593773717237
1574.371406585471 3709.552400783082
1575.1356421785986 3727.288153889105
1575.899692302506 3622.068116190664
1576.6635570063845 3711.0557789846584
1577.4272363394157 3490.363890558206
1578.190730350747 3580.594759867864
1578.9540390895163 3698.390730338818
1579.7171626048384 3257.8235835128826
1580.480100945806 3456.486134940019
1581.2428541614918 3491.6282712767584
1582.0054223009538 3664.0250580712245
1582.767805413223 3550.9226941123757
1583.5300035473156 3661.37133369438
1584.292016752228 3837.7041749736977
1585.0538450769309 3825.6279006356513
1585.8154885703807 3475.6668722555055
1586.5769472815136 3429.884047460623
1587.3382212592405 3660.041855461461
1588.099310552463 3814.4859669398516
1588.8602152100484 3548.534049544315
1589.6209352808564 3684.151392481463
1590.3814708137234 3634.672455311983
1591.14182185746 3725.8347352815035
1591.9019884608679 3601.2747376919083
1592.6619706727215 3325.0882926892436
1593.4217685417734 3728.419920479007
1594.1813821167616 3809.192092021372
1594.9408114464022 3461.9225919177925
1595.7000565793933 3543.240734233408
1596.459117564409 3692.691524185388
1597.2179944501113 3486.1648833640165
1597.9766872851324 3498.3703342947492
1598.735196118092 3816.46916825845
1599.4935209975883 3648.486337914309
1600.2516619721973 3817.8050589760887
1601.0096190904787 3533.845603397736
1601.7673924009723 3531.643966851489
1602.524981952196 3504.1682543473626
1603.2823877926476 3495.8179571214932
1604.0396099708087 3503.244056696875
1604.7966485351371 3303.9960466002194
1605.5535035340745 3543.5568259313463
1606.3101750160404 3840.6538642226187
1607.0666630294363 3401.8886828022114
1607.822967622642 3344.4786923078914
1608.5790888440224 3534.789896801677
1609.3350267419137 3640.248660858997
1610.0907813646445 3487.4339730871843
1610.8463527605145 3436.6443566414864
1611.601740977805 3637.320930458941
1612.356946064785 3572.2063769073734
1613.1119680696902 3314.8144947470632
1613.8668070407512 3601.311202905913
1614.6214630261748 3437.678048476496
1615.375936074137 3662.132417307517
1616.1302262328118 3506.4234597095297
1616.8843335503425 3620.2043322545446
1617.638258074854 3424.5663256999383
1618.391999854457 3497.9039597648252
1619.1455589372363 3596.829051321592
1619.8989353712623 3558.3118021097303
1620.65212920458 3283.6148598036807
1621.4051404852235 3392.2631621599016
1622.1579692611976 3501.5363580348203
1622.9106155804966 3317.2456440642445
1623.663079491087 3438.923821228299
1624.4153610409248 3566.4393434608223
1625.1674602779385 3441.224823450396
1625.9193772500403 3389.9455831955383
1626.6711120051277 3854.457517491118
1627.4226645910676 3444.4883615090957
1628.174035055721 3370.2304098699124
1628.9252234469168 3572.141719278673
1629.676229812474 3387.4651486677185
1630.4270542001905 4020.3200155000413
1631.1776966578382 3466.4353325807715
1631.9281572331747 3335.3924585958994
1632.678435973945 3620.483828204361
1633.4285329278573 3450.9793160390122
1634.1784481426203 3166.9275200573366
1634.9281816659113 3476.6166364871215
1635.677733545388 3660.5897427487216
1636.4271038286934 3452.4513332113775
1637.176292563452 3504.2651137761504
1637.9252997972635 3487.2953972302776
1638.674125577716 3627.8494965792343
1639.4227699523672 3846.9739336487087
1640.171232968767 3155.127797928916
1640.9195146744423 3525.421231141663
1641.6676151168977 3686.2496358320727
1642.4155343436178 3676.0134325000645
1643.1632724020765 3570.4812242821454
1643.9108293397167 3483.666645789871
1644.658205203974 3410.805354400978
1645.4054000422566 3972.4192482197213
1646.1524139019566 3429.3593517966874
1646.8992468304423 3359.6523819800314
1647.6458988750728 3363.690479679156
1648.3923700831765 3436.853240349742
1649.1386605020743 3356.220037221604
1649.8847701790564 3667.6834138288614
1650.6306991614038 3598.0695229673606
1651.3764474963682 3623.514024003796
1652.1220152311944 3255.1468556989034
1652.867402413096 3568.572367162854
1653.6126090892776 3536.4384128918596
1654.3576353069184 3805.789453184513
1655.1024811131829 3546.662632587093
1655.8471465552066 3348.3956492507896
1656.5916316801213 3615.9684963145983
1657.3359365350298 3518.8788270188984
1658.0800611670165 3414.1412205258857
1658.824005623148 3504.456632382976
1659.5677699504722 3187.0263012012883
1660.3113541960192 3544.6557866967078
1661.054758406799 3401.340322255694
1661.7979826297997 3270.2137912476564
1662.5410269119966 3279.3919934151418
1663.283891300338 3556.2216423209647
1664.0265758417645 3221.8109825668266
1664.7690805831826 3390.777142783763
1665.5114055714948 3563.448759572772
1666.2535508535748 3785.071961347631
1666.9955164762814 3059.5566359545624
1667.7373024864555 3389.083358063118
1668.478908930916 3464.807931145083
1669.220335856462 3346.5166699383967
1669.9615833098778 3348.706346868627
1670.7026513379296 3205.046877479469
1671.44353998736 3426.2497525679173
1672.1842493048916 3360.9361170435745
1672.9247793372379 3248.0162170731123
1673.6651301310812 3386.2433412188134
1674.4053017330934 3304.4497073247267
1675.1452941899242 3464.9548513656446
1675.885107548207 2859.1313324775333
1676.6247418545518 3018.898571135771
1677.3641971555535 3046.295701503243
1678.1034734977893 3380.5972540549205
1678.8425709278108 3197.550993286645
1679.5814894921605 3309.3072779188487
1680.320229237359 3347.669186201079
1681.0587902098978 3294.5219782627137
1681.7971724562685 3051.8204575432205
1682.5353760229264 3022.013695162987
1683.2734009563173 3219.977061749762
1684.0112473028657 3058.2084916537906
1684.7489151089794 3276.71998873568
1685.4864044210462 3266.6212244496405
1686.2237152854377 2752.1049541400616
1686.960847748498 3345.9643241469544
1687.6978018565642 2931.682021287717
1688.434577655944 2901.6229878975887
1689.1711751929379 2863.6364424028934
1689.9075945138156 3007.8449951753114
1690.6438356648396 2902.3449536528187
1691.3798986922448 2656.9401306397353
1692.1157836422499 2947.449384024064
1692.851490561059 2879.826230160212
1693.587019494853 2973.7081547766534
1694.3223704897991 2599.190822612686
1695.0575435920364 2606.497060462241
1695.792538847696 3201.5128136012536
1696.527356302886 2780.788241468719
1697.2619960036936 2610.3358510257435
1697.9964579961907 2677.422841153506
1698.730742326432 2373.685076768814
1699.4648490404488 2530.872247522956
1700.1987781842563 2577.682277719216
1700.9325298038548 2882.572978706024
1701.6661039452174 3000.149590969364
1702.3995006543082 2729.803914900168
1703.1327199770658 2894.6334829412313
1703.865761959416 2644.678467953493
1704.598626647261 2929.087034098578
1705.3313140864866 2563.5219158759924
1706.0638243229587 2632.022158985514
1706.7961574025303 2819.3842087240814
1707.528313371029 2736.98104033262
1708.260292274268 2504.415629473636
1708.9920941580403 2633.4581088645728
1709.7237190681226 2638.987857124201
1710.4551670502697 2682.8247523100545
1711.18643815022 2283.783048784323
1711.9175324136959 2971.118197929539
1712.6484498863938 2680.772240256118
1713.379190614005 2413.9529590648604
1714.109754642188 2545.565792335353
1714.8401420165883 2481.453700045276
1715.570352782839 3022.637786508153
1716.3003869865497 2675.5780834119205
1717.0302446733076 2380.0781842776464
1717.7599258886876 2566.3828837215087
1718.4894306782444 2900.7169658778794
1719.2187590875183 2369.968138491755
1719.9479111620203 2702.377837356533
1720.6768869472544 2418.8862711592888
1721.4056864887025 2857.4922724568037
1722.1343098318284 2865.9603322552525
1722.8627570220742 2544.424524872262
1723.591028104871 2382.2072732800907
1724.3191231256242 2321.8230340181403
1725.0470421297232 2521.372782711416
1725.7747851625427 2571.2985380803793
1726.5023522694337 2582.6822956145706
1727.2297434957363 2543.4214761088137
1727.9569588867635 2307.2787699185947
1728.6839984878152 2720.155264508365
1729.4108623441734 2672.968104437252
1730.1375505011038 2625.983696859222
1730.8640630038426 2380.1890307592103
1731.5903998976264 2338.5073088176878
1732.316561227657 2540.055056155059
1733.0425470391274 2221.6095011361426
1733.7683573772065 2491.373768496175
1734.4939922870508 2426.0055740236335
1735.2194518137949 2482.1095437328813
1735.9447360025606 2406.470616170156
1736.669844898439 2447.1175912144854
1737.3947785465189 2255.697232853471
1738.1195369918605 2145.436736774807
1738.8441202795093 2407.8013148907708
1739.5685284544943 2419.500538455463
1740.292761561821 2487.7036261958183
1741.0168196464838 2505.3280490087327
1741.7407027534518 2521.3892472690986
1742.464410927687 2431.6672752148143
1743.187944214118 2340.3685320476284
1743.9113026576688 2299.7483406245483
1744.634486303241 2320.689309858847
1745.3574951957125 2480.247476194798
1746.0803293799509 2437.8132648354117
1746.8029889008048 2376.1715949355
1747.5254738031017 2464.1095524270945
1748.2477841316504 2270.501091574088
1748.969919931249 2265.830202308112
1749.6918812466665 2308.323631932173
1750.4136681226646 2470.1517354019034
1751.1352806039777 2421.5206157906596
1751.856718735331 2108.2833344837168
1752.5779825614281 2057.765224043984
1753.2990721269507 2350.9105656223423
1754.0199874765676 2488.268204397493
1754.7407286549314 2120.8614186242808
1755.4612957066693 2343.928657965496
1756.1816886763954 2115.0620833155863
1756.9019076087097 2410.7983393044065
1757.6219525481865 2340.643508147402
1758.3418235393856 2407.0936860841916
1759.061520626854 2261.168454937225
1759.7810438551096 2494.954433923779
1760.5003932686614 2171.549773405022
1761.2195689119999 2458.780568437477
1761.938570829594 2322.67493901282
1762.657399065898 2378.9031588837875
1763.376053665348 2076.3696470351374
1764.0945346723602 2122.6253216811374
1764.812842131334 2538.856246657581
1765.5309760866512 2117.3991247298145
1766.2489365826787 2059.4178422668365
1766.9667236637597 2225.4527529872976
1767.684337374223 1956.8373094021822
1768.401777758383 1960.4489242879795
1769.1190448605284 2117.650480798368
1769.836138724937 2033.6554697509425
1770.5530593958665 2300.046440137691
1771.2698069175603 2671.845061215508
1771.9863813342326 2374.383476728973
1772.702782690094 2207.4441406860433
1773.4190110293293 2437.4617658354978
1774.1350663961111 2320.91914968433
1774.8509488345844 2168.859196567466
1775.5666583888924 2299.8564157968203
1776.2821951031437 2484.463463301821
1776.9975590214362 2216.697280960864
1777.7127501878585 2347.0675328549623
1778.4277686464684 2373.6117300138058
1779.1426144413108 2567.8247993797104
1779.8572876164162 2424.8503010791637
1780.571788215797 2036.918012262758
1781.2861162834415 2304.8762609239443
1782.0002718633277 2114.9232017514287
1782.7142549994132 2315.0955166722956
1783.4280657356376 2293.131944618667
1784.141704115922 2160.4723115428933
1784.855170184177 2091.2106135094537
1785.5684639842839 2314.1799718481752
1786.2815855601148 1855.789012827737
1786.9945349555237 2266.5221946847346
1787.707312214343 2024.4961753865002
1788.4199173803918 2027.7722407760407
1789.132350497468 2031.2302934826778
1789.8446116093583 2133.9316454904433
1790.556700759822 2043.555653481113
1791.2686179926077 2127.1958184393307
1791.9803633514493 2158.925820437315
1792.6919368800554 2061.848852884724
1793.4033386221236 2229.8506955361827
1794.1145686213295 2208.549508625093
1794.8256269213307 2520.974930355325
1795.536513565774 2168.982393451596
1796.247228598284 1888.3938331983536
1796.9577720624693 2000.3336164633856
1797.6681440019165 2192.9909900228463
1798.3783444602013 2138.4306662296667
1799.0883734808776 2243.3710003816673
1799.7982311074884 2228.0883668328797
1800.5079173835475 2216.7663943857033
1801.2174323525633 2283.6862705274225
1801.9267760580187 2103.647054152992
1802.635948543386 2210.8456028542378
1803.3449498521113 1943.5078197848954
1804.0537800276325 2216.11606542003
1804.7624391133668 2115.643831377388
1805.47092715271 1889.968710822944
1806.1792441890484 1936.7965895854572
1806.8873902657433 2321.378342272415
1807.5953654261448 2165.2818204248047
1808.3031697135812 2082.1014182642107
1809.0108031713662 2078.605676701989
1809.71826584279 2073.394870403884
1810.425557771141 2056.445191891827
1811.1326789996747 2111.4167924496805
1811.839629571632 2166.3362785385957
1812.5464095302468 2093.199629049198
1813.2530189187182 2133.35864060562
1813.959457780249 2034.114961982162
1814.6657261580076 2309.6505480819774
1815.371824095153 2167.784316435959
1816.0777516348262 2269.8544447179793
1816.78350882015 1692.3742122982535
1817.4890956942272 1949.1926270913598
1818.1945123001533 2069.9230597503115
1818.8997586809928 2124.671032721453
1819.6048348798067 1956.6156852644403
1820.3097409396287 2085.9403066283066
1821.0144769034796 2425.849768439218
1821.7190428143622 2207.1034769805237
1822.423438715261 2307.036324251597
1823.1276646491478 2092.0076607904784
1823.8317206589727 2060.697622763314
1824.5356067876692 2024.2510264105852
1825.2393230781581 1986.056255969861
1825.942869573335 1845.2667108691767
1826.646246316086 1881.8159180044381
1827.3494533492758 2289.250702098966
1828.052490715756 2102.226194064497
1828.7553584583547 2101.9410780754783
1829.458056619891 2306.228376738473
1830.1605852431585 1976.1280978240688
1830.8629443709433 1902.753046122676
1831.5651340460063 1934.73290999036
1832.2671543110919 1910.3704788523064
1832.9690052089318 2252.987123637163
1833.6706867822395 1884.728768305402
1834.3721990737104 2249.2223269012015
1835.0735421260233 2270.5586532566
1835.774715981841 2005.4959083869217
1836.4757206838058 2289.238840487978
1837.1765562745459 1960.1050541165264
1837.8772227966747 1870.1503138717203
1838.5777202927839 1981.3952885761094
1839.2780488054523 1922.8606083119935
1839.9782083772352 1973.0204537676284
1840.6781990506806 2335.8153072549126
1841.378020868313 2055.9094954095544
1842.0776738726418 2045.735467858935
1842.777158106157 1994.2024071802596
1843.4764736113375 1907.0470937927923
1844.1756204306403 2167.624408147124
1844.8745986065078 2175.567639094298
1845.5734081813607 1805.8762430317518
1846.2720491976124 1984.5308483333934
1846.970521697649 1910.6951000524627
1847.6688257238511 2074.374302387662
1848.3669613185684 1910.1909781951435
1849.0649285241452 1755.7596915528597
1849.7627273829057 2144.995048417603
1850.460357937156 2014.2377266841354
1851.1578202291857 1728.9291479684794
1851.8551143012664 2071.0562021272985
1852.5522401956569 2021.7300662967202
1853.2491979545957 2282.8006849850253
1853.9459876203055 1845.9156743548233
1854.6426092349902 1892.409598980223
1855.3390628408451 1988.3491569387068
1856.0353484800362 2290.797418413292
1856.7314661947203 2122.4176302951446
1857.4274160270397 1854.481319563216
1858.123198019115 1892.2698247841895
1858.8188122130487 1898.0968542094538
1859.5142586509319 1956.7520117805955
1860.209537374838 1939.2076888764925
1860.9046484268183 1925.0836851505173
1861.599591848917 2138.356959064993
1862.294367683151 1886.2748595732253
1862.988975971528 1871.1284479498142
1863.6834167560355 1969.038228520576
1864.3776900786452 2172.416626635507
1865.0717959813119 1822.8456165397881
1865.7657345059724 1878.2152470222143
1866.4595056945564 2068.0796502130393
1867.1531095889586 2112.4811044179933
1867.846546231076 1748.9122701194442
1868.5398156627743 2125.620938024815
1869.2329179259123 1863.0796407610942
1869.9258530623283 2229.166221175207
1870.618621113843 1862.7451100688336
1871.3112221222636 1770.3524565202254
1872.0036561293764 1806.865967184099
1872.695923176956 2009.516901982711
1873.3880233067594 2256.4340383069857
1874.0799565605212 1815.3537599639646
1874.7717229799673 1841.4171056717437
1875.4633226068036 2266.061885731132
1876.1547554827175 2048.1860696769913
1876.8460216493859 1913.859874736007
1877.5371211484617 1917.187410764748
1878.2280540215852 2108.02256243103
1878.9188203103804 1752.951571501667
1879.6094200564548 2002.3794958448227
1880.299853301396 1756.5617430567065
1880.9901200867826 2139.4164265959344
1881.6802204541673 2093.0665633755093
1882.3701544450942 2089.2661587397592
1883.059922101087 1823.109889762033
1883.7495234636517 1831.505069976826
1884.4389585742792 1839.8812539917933
1885.1282274744517 1757.3579378616682
1885.8173302056166 1893.6105946834195
1886.506266809225 2030.0480220786642
1887.195037326701 1715.3638478417543
1887.8836417994517 1843.4326356829
1888.5720802688702 2320.427329928054
1889.260352776333 2093.0963043514926
1889.9484593632042 2237.9822132524814
1890.63640007082 1869.6374787312611
1891.3241749405151 1750.9701829845667
1892.0117840135954 2010.9376218174446
1892.6992273313572 1934.455230186689
1893.3865049350788 1802.0858677419815
1894.0736168660223 2284.066591858185
1894.7605631654333 2074.201377142526
1895.4473438745408 2149.1554967661855
1896.133959034556 2224.1019467633746
1896.820408686679 2012.5332775751315
1897.506692872088 2300.853615583307
1898.192811631945 1929.9602961686546
1898.8787650073991 1951.8813860214239
1899.5645530395832 2127.6615220054173
1900.2501757696118 2167.108395101558
1900.9356332385796 1842.630583361577
1901.620925487574 1874.5155947077533
1902.3060525576602 1906.6028657621787
1902.9910144898859 2143.6943611150846
1903.6758113252872 1810.4190669448694
1904.3604431048789 2012.6033195628527
1905.0449098696663 2075.868397856255
1905.7292116606295 1955.9394487320928
1906.4133485187394 2036.6373206387495
1907.0973204849488 1712.493117977021
1907.7811276001976 1680.4635353627714
1908.4647699053967 1973.5272752688566
1909.1482474414588 1927.8081055481957
1909.8315602492694 1881.9062479064658
1910.5147083696957 2233.614811763499
1911.1976918436012 1931.1391972281665
1911.880510711815 1834.2001779423722
1912.5631650151681 2187.351770392759
1913.2456547944657 1823.06914555051
1913.927980090495 1800.380195489103
1914.6101409440362 1801.655247287529
1915.2921373958416 2070.77139636737
1915.9739694866603 1857.8791550815124
1916.655637257214 2184.840428390372
1917.3371407482136 2003.2300544452694
1918.0184800003572 2243.719769259989
1918.6996550543154 2200.8553140161175
1919.3806659507554 1963.0392024168116
1920.0615127303208 2039.4631713465667
1920.7421954336423 2113.091024001087
1921.4227141013343 2090.080526040605
1922.103068773993 1983.3351084156814
1922.783259492202 2190.9175927708025
1923.4632862965227 1864.5512397937305
1924.1431492275078 1858.2660854509263
1924.8228483256917 1789.6269921273008
1925.5023836315922 1949.4792661860915
1926.1817551857057 2135.3169104558942
1926.8609630285227 2321.533909662844
1927.5400072005123 2056.123604275825
1928.218887742125 1875.510264248041
1928.8976046938005 1656.2724849422793
1929.5761580959588 2025.5472860024481
1930.2545479890086 1963.9561874678245
1930.9327744133352 1685.2371515461887
1931.6108374093164 1993.9573002898112
1932.2887370173066 1777.3065817009822
1932.9664732776473 2106.1534897061592
1933.6440462306673 1910.2561647464638
1934.3214559166754 1890.5982087735997
1934.9987023759659 2304.188648702683
1935.675785648813 2079.2678633406167
1936.3527057754836 1643.384975537087
1937.029462796223 1736.2329100861957
1937.70605675126 1829.319603044596
1938.3824876808085 1745.7289305871661
1939.058755625072 1811.4997494565127
1939.7348606242267 1876.4955859734298
1940.4108027184448 1971.2436162488527
1941.0865819478713 2116.853266196063
1941.7621983526478 1863.850631863152
1942.4376519728921 1709.8577551552692
1943.1129428487038 1960.1193816393672
1943.7880710201734 2155.219303862808
1944.4630365273733 2049.910135686998
1945.1378394103576 1681.7010004439937
1945.8124797091714 1666.065879178738
1946.4869574638324 1650.341449817303
1947.161272714353 1854.5022900800673
1947.8354255007234 2055.135990360356
1948.5094158629272 1828.8979308541068
1949.1832438409183 2038.528877035103
1949.8569094746435 2093.609548013734
1950.530412804037 2227.281747750973
1951.2037538690092 2039.1509884915856
1951.8769327094578 1879.7844753033285
1952.5499493652678 1933.859338150821
1953.222803876306 2270.9284086500948
1953.895496282421 2115.9852909519796
1954.5680266234522 2117.498409671579
1955.2403949392155 2055.5760436832543
1955.9126012695142 1745.8139513823476
1956.5846456541403 1941.1049236506692
1957.2565281328643 1730.4763518445743
1957.9282487454457 2237.7853334832994
1958.5998075316202 2116.197040012402
1959.27120453112 1882.962013065838
1959.9424397836501 1784.5690287433094
1960.613513328908 2114.351782521041
1961.2844252065697 2240.622200446799
1961.9551754563017 1725.021901787292
1962.6257641177453 1876.5888070616522
1963.29619123054 1608.5164397147714
1963.966456834296 1793.4815769726065
1964.6365609686181 1712.8553111718716
1965.306503673086 2060.467994340514
1965.976284987275 1736.4080793033318
1966.645904950734 1946.2844554378505
1967.315363603002 1667.0938459104411
1967.9846609836077 1888.8284604167716
1968.6537971320486 1777.0116640283964
1969.3227720878222 2025.4465929328119
1969.9915858904042 1968.796262245667
1970.660238579252 2044.5478729799481
1971.3287301938108 1822.9562555238772
1971.997060773514 1780.3406475468703
1972.665230357772 1592.4305778987557
1973.3332389859843 1764.9089435405137
1974.0010866975335 1755.453372666152
1974.6687735317864 1924.6178862471193
1975.3362995280932 2008.694396632421
1976.003664725793 2029.2332957947176
1976.6708691642052 1656.8840150832261
1977.3379128826364 1879.903937606109
1978.004795920373 2058.2832047253746
1978.6715183166925 1823.3540674085514
1979.3380801108524 2146.3588592681767
1980.0044813420973 1973.0983942709777
1980.6707220496555 1660.006587568394
1981.3368022727373 1852.9888514573172
1982.0027220505417 1647.5850135136243
1982.66848142225 1839.6526813975834
1983.3340804270283 1643.6312115328024
1983.999519104027 1923.9554422315662
1984.6647974923835 1958.0157577402388
1985.329915631215 2006.1863347719168
1985.99487355963 1859.3325405942664
1986.6596713167146 2212.292377048117
1987.3243089415428 1782.1340835569088
1987.9887864731754 2201.0449179656284
1988.6531039506553 1716.5718718998955
1989.3172614130071 2279.5259069540284
1989.9812588992481 1749.8580778964151
1990.645096448372 1576.39907429182
1991.3087740993633 1908.9371507755282
1991.9722918911848 1770.832713810003
1992.635649862792 1895.2334296952235
1993.2988480531185 2003.660685956785
1993.9618865010852 1872.4918836292577
1994.6247652455968 1741.1407108457454
1995.287484325545 1585.1547985278323
1995.9500437798033 1845.9695796273852
1996.6124436472292 1867.5430446551593
1997.2746839666706 2113.063059467083
1997.936764776954 1926.2970738859135
1998.598686116895 1733.933553587399
1999.2604480252903 2134.005983272591
1999.9220505409212 2112.82261456455
2000.5834937025593 1748.0784817241813
2001.2447775489582 1785.884556226675
2001.9059021188514 1913.2456409045303
2002.5668674509616 1775.6932656599233
2003.2276735839987 1768.8089404969858
2003.8883205566508 1801.557857942452
2004.5488084075987 1834.2932954573012
2005.2091371755014 1897.5895730638717
2005.8693068990033 1671.3352935879739
2006.5293176167397 1673.718009565518
2007.1891693673224 1676.2558801999767
2007.848862189354 1529.548383561898
2008.5083961214223 1840.7047209680695
2009.1677712020955 1695.1658732594813
2009.8269874699254 1737.8313838886902
2010.4860449634598 1648.322177758361
2011.1449437212177 1558.675507398164
2011.8036837817108 2062.5811294305327
2012.4622651834325 2281.2083816673485
2013.1206879648653 2091.716805840856
2013.7789521644736 2143.193083066704
2014.4370578207036 2023.438264936216
2015.0950049719922 1903.292126483464
2015.7527936567585 2117.0805466892625
2016.4104239134067 1982.8649483216882
2017.067895780323 2360.1519269461955
2017.725209295886 2250.651766618733
2018.3823644984514 2140.7918820828277
2019.0393614263648 1944.0231659519118
2019.6962001179545 1894.5346741567282
2020.3528806115355 2212.3442015624587
2021.0094029454067 1869.8086444307896
2021.6657671578487 1612.8717924210855
2022.321973287133 1923.1554589928824
2022.9780213715148 1806.0093091517756
2023.6339114492293 1661.7994853569357
2024.2896435585026 1858.882616530648
2024.9452177375442 1927.5635653192426
2025.600634024544 2161.4767157227097
2026.2558924576842 1853.1176317028153
2026.9109930751292 2225.137815696925
2027.565935915025 2194.843245840405
2028.2207210155066 2164.4171228691202
2028.8753484146964 2213.739027952074
2029.529818150695 2175.4756574455105
2030.1841302615903 2136.9481256303998
2030.8382847854573 1742.5610656349102
2031.4922817603601 1906.903632060717
2032.1461212243357 1749.448010034838
2032.7998032154192 1611.1218472140374
2033.4533277716218 1725.8593265132236
2034.1066949309443 1646.1562180363617
2034.7599047313688 1631.0445309112717
2035.4129572108704 2005.3864487778271
2036.0658524074006 1859.3206157936304
2036.7185903589016 1835.3933514907792
2037.3711711032956 1967.044860771345
2038.023594678496 1931.2558589604646
2038.675861122394 1715.4545549370494
2039.3279704728757 1711.2443710749708
2039.9799227678031 1707.182051598617
2040.6317180450278 1922.259135604727
2041.2833563423865 1811.461751725207
2041.9348376977014 2200.7156944611393
2042.5861621487784 2079.866743219447
2043.2373297334088 1838.2066235484774
2043.8883404893695 1932.8066037357835
2044.5391944544208 2047.5191024471656
2045.1898916663158 2172.3000846536943
2045.8404321627804 2233.31350226572
2046.4908159815368 1726.6102228006953
2047.1410431602853 1829.6243939342344
2047.7911137367173 1784.6833711871598
2048.441027748504 1721.6592352110615
2049.090785233302 1658.5098959465734
2049.7403862287592 1742.3120163804845
2050.389830772503 1751.528788465849
2051.0391189021466 1760.8036409949268
2051.688250655294 1891.0157559790907
2052.337226069527 1694.190112066111
2052.986045182417 1949.7148395874397
2053.634708031521 1921.3528274763776
2054.283214654375 1893.075018293654
2054.931565088511 1419.704126385683
2055.579759371436 1681.8117877244683
2056.2277975406523 1975.928916386644
2056.8756796336384 1792.453013953728
2057.5234056878617 1608.5004820266417
2058.1709757407752 1706.626975177184
2058.8183898298194 2075.29629695453
2059.465647992416 1962.4535261146252
2060.1127502659747 2091.8932325170376
2060.759696687888 1684.1698884779707
2061.4064872955405 2073.0809785078022
2062.053122126292 2178.8102755383984
2062.699601217497 1499.0477998122783
2063.345924606485 1640.0823480019098
2063.992092330587 2018.3907664499384
2064.638104427102 2085.5452851203813
2065.283960933324 2152.8054625742193
2065.92966188653 1962.8985618976367
2066.5752073239855 2169.4017125946857
2067.2205972829397 1659.9433537537873
2067.86583180062 1898.3633352595766
2068.5109109142522 1821.8567824610327
2069.15583466104 1960.4375214929678
2069.8006030781708 1596.9249961817734
2070.445216202821 1695.6465177493646
2071.089674072153 2098.789675752592
2071.7339767233116 2054.1268798862684
2072.3781241934303 1825.751978867777
2073.0221165196253 1952.1958904750347
2073.6659537390024 1776.1885721627773
2074.3096358886505 2018.2866974047033
2074.953163005637 1729.073422757765
2075.596535127028 1572.2666148398966
2076.2397522898664 1587.0115135944757
2076.882814531182 1858.386621476179
2077.5257218879924 1994.8437202184646
2078.1684743973 1740.324237204964
2078.8110720960885 1605.970828963616
2079.453515021336 1776.324399890957
2080.095803209997 1946.82764720356
2080.7379366990135 2000.7608342479587
2081.37991552532 2054.6985349244837
2082.0217397258275 2100.6087183770514
2082.6634093374414 1994.0251747023096
2083.3049243970418 1887.4095458983243
2083.9462849415067 2089.1715247272864
2084.587491007689 1970.6616174716303
2085.2285426324324 1778.239311856371
2085.869439852564 1958.8276696631142
2086.510182704902 1728.0763632259059
2087.1507712262483 1837.2325363978211
2087.791205453381 1516.744655896839
2088.4314854230743 1862.3642145035112
2089.0716111720867 1938.1554764133484
2089.7115827371617 1564.6431091695742
2090.351400155023 1597.3771888442104
2090.991063462385 1630.250621553199
2091.6305726959527 1575.937658894054
2092.2699278924047 1624.7626437744502
2092.9091290884153 1673.7523824362827
2093.548176320641 1596.1301432717978
2094.187069625721 1951.080626820571
2094.8258090402887 1968.4423938499378
2095.464394600951 1985.8445624936794
2096.102826344313 1935.2319806293722
2096.741104306955 2092.442535913468
2097.379228525453 1738.4416658875805
2098.017199036358 1901.0801182429173
2098.6550158762147 2064.0585558102166
2099.2926790815527 2072.2153585940014
2099.9301886888825 1763.7988523638414
2100.5675447347076 1809.4283876850454
2101.2047472555114 2134.4947458813226
2101.841796287761 1840.5261021397557
2102.47869186792 1974.1630784986905
2103.1154340324265 1712.671801627704
2103.752022817709 1880.968926077335
2104.388458260184 1778.3050254990637
2105.024740396251 1851.763873579917
2105.660869262292 1602.1737264712233
2106.296844894685 1689.9815037992005
2106.93266732978 1778.0332823717072
2107.5683366039284 1591.0401354956248
2108.2038527534532 2017.2171849817933
2108.8392158146726 1856.5359492692473
2109.4744258238843 1706.3004047549443
2110.1094828173755 1822.7602021323523
2110.744386831422 2198.5186217103674
2111.3791379022787 1950.5419309467914
2112.01373606619 2075.103646356105
2112.648181359389 1915.8046994304514
2113.28247381809 1897.719132810916
2113.916613478492 1975.2950924979716
2114.550600376786 2020.1891875509914
2115.1844345491445 1841.46309472705
2115.818116031729 1731.5695188172576
2116.451644860679 1846.6481967634688
2117.085021072133 1610.7573719542922
2117.718244702204 1844.1300037448734
2118.3513157869984 1680.896983866252
2118.984234362604 1578.420464052515
2119.617000465092 1681.2406749875215
2120.249614130529 1713.1736112882325
2120.8820753949585 1745.15991539298
2121.5143842944162 1780.9348857216894
2122.14654086492 1668.372332348356
2122.7785451424734 1978.4115969411546
2123.4103971630702 1954.155230396192
2124.042096962681 1930.0574459473955
2124.6736445772767 2016.4363584780815
2125.305040042802 1735.1809071964904
2125.936283395191 1857.4791527337093
2126.567374670365 1785.628633298308
2127.198313904233 1822.5177029512183
2127.8291011326855 1892.7836773292759
2128.4597363916037 1962.9717333637393
2129.0902197168507 1923.6608110173536
2129.720551144279 2038.3924902468602
2130.3507307097225 2153.1418195669503
2130.980758449008 2118.391986703917
2131.6106343979427 2074.1356779144726
2132.2403585923203 2029.7221676671427
2132.8699310679276 2099.3768746228498
2133.499351860526 1963.0506535290456
2134.1286210058715 1756.6424714995574
2134.7577385397053 1915.6458450479756
2135.3867044977487 2074.908748435555
2136.0155189157176 2401.533552021793
2136.644181829308 2045.070666169481
2137.2726932742025 1899.9914674442366
2137.901053286074 2057.025156294689
2138.5292619005777 1583.0633543822898
2139.1573191533535 1604.5530091828423
2139.7852250800315 1992.0172539589614
2140.4129797162295 1982.5259133761544
2141.0405830975433 1583.7931252334695
2141.6680352595613 1577.1039148665684
2142.2953362378576 1570.4198329810868
2142.9224860679915 1745.0311631135366
2143.549484785508 1718.9171228732298
2144.1763324259373 1714.2603133165671
2144.803029024799 1667.7332556976423
2145.429574617594 1618.5011043048662
2146.0559692398165 1854.6480425478717
2146.682212926942 1676.9399700556162
2147.308305714432 1811.517636181902
2147.9342476377333 2161.0929440204854
2148.5600387322847 2251.4329799464695
2149.185679033506 1925.5556352578478
2149.8111685768017 1758.6510852326828
2150.4365073975678 1573.8153581546471
2151.061695531187 1701.5244368815129
2151.686733013021 2088.952955458705
2152.311619878423 1869.8769522605603
2152.9363561627342 1674.6931991317822
2153.560941901278 1634.0929831570986
2154.1853771293663 2138.3627373358527
2154.809661882293 1948.8175947446514
2155.433796195348 2153.06011544364
2156.0577801037944 2012.859299931366
2156.681613642895 1872.3174149997812
2157.3052968478896 1932.1938444775692
2157.928829754006 1992.0900000824436
2158.552212396462 1931.1018947245261
2159.1754448104566 1888.2272235059013
2159.7985270311783 1549.1317461902267
2160.4214590938027 1267.7967746732652
2161.0442410334927 1391.3625426892359
2161.6668728853874 1440.9815386924752
2162.289354684628 1490.7525351825916
2162.911686466332 1666.7825510780306
2163.533868265602 1957.0612574284737
2164.1559001175337 2315.1756468658814
2164.7777820572046 1956.4574395902334
2165.399514119681 1781.4399275431497
2166.021096340013 1634.711758734043
2166.6425287532384 1931.164232825617
2167.263811394385 1597.0678825886043
2167.8849442984574 2029.7108437111747
2168.505927500455 1533.7286062759708
2169.126761035366 1955.8385449128546
2169.7474449381552 1557.022005673323
2170.367979243778 1354.9161750477758
2170.9883639871823 2031.7188814167337
2171.608599203293 1709.0534816047862
2172.2286849270276 2200.2608923885027
2172.8486211932886 2341.362260388637
2173.4684080369625 1850.2815157729976
2174.0880454929265 1389.5432574556146
2174.7075335960417 1346.3613364465978
2175.3268723811543 1442.6052194056324
2175.9460618831 1539.1119701409748
2176.565102136701 1753.2469643393263
2177.1839931767627 1725.6748819845645
2177.802735038078 1698.0547167363038
2178.421327755432 1533.9066219610593
2179.0397713635866 1582.571056478173
2179.658065897298 1532.5376028193468
2180.276211391305 1880.5238536671718
2180.8942078803357 1667.3391111297624
2181.5120553991 1746.9192932706471
2182.129753982299 1526.275848152599
2182.7473036646206 1681.0180263453337
2183.3647044807367 1720.5748672787547
2183.9819564653044 1468.3095436900126
2184.599059652968 1739.5381859779736
2185.216014078367 2069.454665925808
2185.832819776113 2095.600430203471
2186.4494767808137 2121.688352326042
2187.065985127063 1721.978372907787
2187.682344849436 1701.9846185370957
2188.298555982501 2024.8767729210097
2188.9146185608097 1787.6955837428152
2189.530532618901 2028.1823813815015
2190.1462981912937 1888.4510948312225
2190.761915312507 1836.9804220156889
2191.377384017036 1748.7337384683622
2191.9927043393654 1795.3395078305682
2192.6078763139667 2059.0255370953837
2193.2228999753006 1556.483359077221
2193.837775357808 1948.355967605931
2194.452502495922 1489.1868804075284
2195.0670814240602 1703.024336300843
2195.6815121766285 1483.9811580736716
2196.2957947880186 2059.2134541726145
2196.9099292926057 1966.4917207863832
2197.523915724758 1873.6132076552508
2198.137754118825 1656.6846649644096
2198.7514445091456 2277.3942373498576
2199.3649869300443 2241.364596121179
2199.9783814158327 2205.344935963229
2200.5916280008096 2279.9709219889583
2201.2047267192593 2144.313789220304
2201.8176776054515 1703.2616848136327
2202.430480693649 1572.1359563872204
2203.0431360180955 2084.4036230388074
2203.6556436130195 2056.520152561985
2204.268003512645 1824.4083909047465
2204.8802157511727 1591.7407284771657
2205.492280362796 2003.6459033113229
2206.1041973816937 1851.1895015383693
2206.715966842032 1844.093847054483
2207.3275887779655 1886.0268211965908
2207.93906322363 1878.6804837914083
2208.550390213153 1861.1940171431374
2209.1615697806465 2029.342000276308
2209.7726019602105 1581.2225991450207
2210.3834867859277 1490.5904102766249
2210.9942242918787 1713.1042810338527
2211.6048145121167 1807.1275797673904
2212.2152574806914 2698.2152674506233
2212.825553231638 2683.1109481491285
2213.435701798975 2668.166902795382
2214.045703216707 1902.6344331120613
2214.655557518832 1296.3910566656991
2215.2652647393297 1471.925783404869
2215.874824912169 1611.8241408748852
2216.4842380713 1752.2198946237627
2217.09350425067 1565.1837834755538
2217.7026234842033 1880.5350432101536
2218.311595805819 1901.440739011098
2218.9204212494133 1706.687452320358
2219.52909984888 2224.6892346074324
2220.137631638092 1401.348607828369
2220.7460166509154 2223.5651147208414
2221.354254921198 1445.6791614773924
2221.9623464827764 1831.6576228313038
2222.5702913694713 1783.0772226260779
2223.178089615096 1707.811030439804
2223.7857412534486 1632.405175994293
2224.39324631831 1265.1418458598348
2225.000604843457 1654.133881541243
2225.607816862641 2001.890822076697
2226.214882409611 1889.402565769029
2226.8218015180973 1841.6513317241345
2227.4285742218217 1838.5235322298158
2228.0352005544864 1843.960400384734
2228.6416805497847 1456.939204747416
2229.248014241399 1638.7860356867127
2229.8542016629945 1474.4175708980326
2230.460242848223 1772.5152745709788
2231.0661378307304 1605.9429860855473
2231.671886644139 1439.2188914613312
2232.277489322065 1460.4597755724535
2232.8829458981127 1143.0204497380487
2233.48825640587 1725.6387139456372
2234.0934208789095 2425.477866783913
2234.6984393507955 2048.380515130415
2235.3033118550793 1933.1956876917109
2235.9080384252975 1708.5094137145902
2236.5126190949723 1514.205803536905
2237.1170538976166 1727.2596928857158
2237.721342866729 1430.384286639665
2238.32548603579 1529.6024164675496
2238.9294834382763 1867.6885157465397
2239.533335107646 1798.817291146849
2240.1370410773434 1672.609890011648
2240.740601380803 1622.5362820653606
2241.3440160514474 1791.3092269658075
2241.9472851226783 1928.0366288953642
2242.550408627896 1822.2078167125067
2243.1533866004793 2024.0565680188708
2243.756219073799 1698.5510542990912
2244.3589060812064 1722.1721959344966
2244.961447656049 1533.214896190903
2245.5638438316564 1630.698507352232
2246.166094641343 1938.4944069429137
2246.7682001184166 1542.0109388450815
2247.3701602961664 1897.8258539414412
2247.971975207871 1822.5445190585465
2248.5736448867974 1758.2188755715615
2249.175169366197 1693.6978125238838
2249.7765486793123 1860.343662197929
2250.3777828593684 1820.1472875916631
2250.9788719395783 1919.8531601476272
2251.579815953146 1727.2978059346551
2252.1806149332606 1485.1649799539707
2252.781268913097 1857.8741751003195
2253.381777925817 1591.5567849481877
2253.9821420045737 1972.2458963118868
2254.5823611825035 1843.3340785290936
2255.1824354927303 1673.880805087633
2255.782364968365 1553.6834381232234
2256.38214964251 1433.3681224783993
2256.9817895482483 1531.936041071621
2257.5812847186553 1755.3075445727814
2258.180635186791 1408.1653585603074
2258.779840985704 1646.943382227478
2259.37890214843 1636.340325341112
2259.97781870799 1771.1087009261464
2260.5765906973957 1906.1325985807302
2261.175218149645 1743.34960150491
2261.773701097718 1612.7220299070061
2262.3720395745895 1481.8256476817282
2262.970233613216 1617.6885974568736
2263.568283246548 1600.782049163841
2264.1661885075137 1618.634435219101
2264.763949429038 1681.9507375712674
2265.3615660440246 1643.6657039156955
2265.959038385374 1605.3348172378096
2266.5563664859637 1968.1397909155523
2267.153550378669 1990.9498696772903
2267.7505900963424 2013.9276662681227
2268.3474856718312 1648.6362518493047
2268.9442371379664 1595.3549669483596
2269.5408445275643 1528.3111540540099
2270.1373078734377 1602.5156731607099
2270.7336272083758 1676.8823939763784
2271.32980256516 1553.0930597912566
2271.925833976562 1868.9344400567516
2272.5217214753357 2091.7796592466993
2273.117465094223 1574.7119754768905
2273.7130648659586 1613.1563341562846
2274.308520823257 1648.5890879054175
2274.903832998827 1927.4756538746303
2275.4990014253563 1466.7614115646747
2276.094026135528 1786.0937755123864
2276.6889071620117 1461.7754614075516
2277.2836445374614 1895.9730271843187
2277.878238294519 1800.035418722222
2278.472688465812 1679.8586868752136
2279.066995083962 1559.443883600612
2279.6611581815705 1711.0197977707335
2280.255177791232 1975.3759510217224
2280.8490539455233 1761.0356734789577
2281.442786677013 2046.2564713420682
2282.0363760182554 1956.3388329318327
2282.6298220017943 1702.8365900638807
2283.223124660155 2038.312251891051
2283.816284025859 1583.2138409746797
2284.4093001314086 1592.0735146141756
2285.002173009292 1600.9876281074164
2285.5949026919952 1944.3581037701333
2286.1874892119777 1733.3211799995702
2286.7799326016993 1782.3518554473085
2287.3722328936 1601.913602529311
2287.964390120109 1718.3316891267891
2288.556404313642 1834.8455540687253
2289.1482755066027 2214.63559121287
2289.7400037313873 1913.5893271223417
2290.3315890203703 1552.0417352721392
2290.9230314059205 1954.527568131507
2291.5143309203904 1597.2462395405364
2292.1054875961236 1612.8851594529121
2292.6965014654506 2317.6456082952495
2293.287372560684 1692.1048879176178
2293.878100914131 1685.9467903957423
2294.468686558086 1679.8298281420819
2295.059129524827 1764.394863190409
2295.649429846617 2038.6212569549855
2296.239587555716 1663.0056143016257
2296.8296026843636 1854.581849334693
2297.419475264791 2276.4328136321915
2298.0092053292137 2200.947381608303
2298.598792909839 2125.1901196462313
2299.1882380388597 1731.3275025482642
2299.777540748455 1777.4144405343238
2300.3667010707904 1823.4496605740508
2300.9557190380256 2028.266711068619
2301.544594682302 2347.2021115982548
2302.1333280357503 2156.5232667499063
2302.721919130485 1965.6773651214457
2303.3103679986198 2082.643140541609
2303.898674672242 2196.7421617093614
2304.486839183437 1660.6891692884637
2305.0748615642697 1634.8536381289746
2305.6627418468015 1683.3501128503717
2306.2504800630704 1798.2959718599166
2306.8380762451143 1732.4283309974148
2307.425530424949 1776.5166068685758
2308.012842634582 1820.6922380586716
2308.6000129060103 2231.6960176985267
2309.187041271214 1844.3355469256155
2309.773927762164 2287.252963864071
2310.3606724108213 1972.4252372197493
2310.9472752491274 1444.9386248452802
2311.5337363090184 2130.703644659281
2312.120055622414 1790.1225839087424
2312.706233221221 1664.711769107463
2313.2922691373424 1409.527631597982
2313.8781634026564 1541.6798379496436
2314.463916049037 1674.1312721173024
2315.049527108342 1838.9439047335024
2315.6349966124235 2155.58340597137
2316.2203245931123 2106.9910465431303
2316.8055110822315 1937.767097916366
2317.3905561115935 1768.1232513527116
2317.9754597129977 1710.5519376266643
2318.560221918229 1676.8738494091363
2319.1448427590603 1643.1558584070754
2319.729322267256 1406.1183655310238
2320.313660474563 1731.8878570874986
2320.8978574127195 1821.4844096167676
2321.481913113452 1911.4089409942148
2322.0658276084705 1628.7704778362756
2322.6496009294806 1853.2877182683283
2323.233233108165 1869.3107935468129
2323.8167241762058 1721.146516153854
2324.4000741652617 1835.9107734438007
2324.983283106987 2088.6091455056703
2325.5663510330232 2183.636767541931
2326.1492779749933 2071.5173152493567
2326.7320639645204 1958.9045695492848
2327.3147090332004 1623.1709936393308
2327.897213212629 1778.8093519848142
2328.4795765343843 1934.5266320574349
2329.0617990300307 1511.4741294924781
2329.643880731124 2205.847297833946
2330.22582166921 1638.6907822984351
2330.807621875816 1463.7774244394914
2331.3892813824623 1288.7099297347074
2331.9708002206517 1566.443062719908
2332.5521784218818 1626.5741025956065
2333.133416017634 1686.900202937158
2333.7145130393765 1615.5016003848611
2334.295469518571 2159.0226508260616
2334.876285486658 2195.4908504425025
2335.456960975076 2149.26035851333
2336.037496015242 2102.963755720713
2336.6178906385667 1811.0252287387277
2337.198144876451 1878.2475488259374
2337.778258760278 1835.8558598064872
2338.3582323214214 1906.7045355608188
2338.938065591243 1977.6700090118884
2339.517758601087 1986.7690817416146
2340.0973113822965 1918.2680151306784
2340.676723966193 1775.3811468786994
2341.255996384094 1847.9931696828128
2341.835128667295 2046.9167649340495
2342.4141208470883 1933.0730194751413
2342.992972954751 1763.5812250307717
2343.5716850215467 1909.2649428152909
2344.1502570787306 989.628615338704
2344.7286891575386 1449.1343375273505
2345.3069812892045 2178.850471531859
2345.885133504944 2151.0054333002504
2346.4631458359618 1656.319062957115
2347.04101831345 1350.7618704361678
2347.6187509685915 1654.9631327946088
2348.196343832553 1582.695127867626
2348.7737969364935 1759.9578449822384
2349.351110311558 1647.5312342116745
2349.9282839888765 1494.8093286024716
2350.5053179995757 1515.1022634446697
2351.0822123747585 1533.7507574969177
2351.658967145526 1464.923218363921
2352.2355823429643 1396.0655869877867
2352.812057998144 1901.02042562639
2353.3883941421263 1990.713155691304
2353.9645908059647 1651.6148100051455
2354.540648020693 1669.216648523762
2355.116565817336 1508.9116171980631
2355.6923442269126 1613.7813045157568
2356.2679832804224 1718.8715301359512
2356.8434830088518 1814.4200269289493
2357.41884344318 1740.191396027058
2357.994064614377 1958.0461830979427
