#exp_cfg={"servo_angle": 0.0, "laser_lim": 100.0, "servo_angle_to": 18.0, "laser_wup": 0.0, "bt_dev": "EnSpectr-25AE3", "laser_wdn_max": 0.0, "frames": 10.0, "servo_used": 0, "servo_calib_use": 0, "laser_wdn_min": 0.0, "servo_pix_from": 90.0, "cooler_tout": 300.0, "servo_angle_from": 0.0, "servo_calib": "[-1.9174921013161362e-09, 3.9322238269163779e-05, -0.27385609119055809, 653.59552119713567]", "laser_autoctl": 0, "servo_pix_to": 3682.0, "laser_pw": 100.0, "cooler_on": 0, "laser_volt": 4.0, "cooler_autoctl": 0, "cooler_curr": 70.0, "cooler_startup": 10.0, "laser_fixed_pw": 0, "gain": 1.3, "offset": 2.53059635486, "servo_calib_degree": 3.0, "laser_curr": 55.0, "shutter": 8200.0, "servo_calib_step": 1.0, "laser_fixed_curr": 0, "exp": 2000.0, "ccd_volt": 4.7, "bt_addr": "00:06:66:62:5A:E3", "servo_delay": 500.0, "laser_autooff": 1}
#proc_cfg={"flat_auto_wnd": 200.0, "flat_auto_fr": 200.0, "flat_auto_shift": 5.0, "yconv": 1, "flatten": 1, "flatten_strength": 100.0, "xfrom": 300.0, "auto_max_frame": 2000.0, "auto_signal": 48000.0, "flat_auto_tol": 0.1, "autoclip": 1, "xrel_range": 0.0, "flat_auto_to": 4000.0, "intensity_adj": 1.0, "xrel": 7852.0, "rmhot": 1, "flat_auto_slit": 4.999999999999997, "auto_ini_exp": 300.0, "auto_off": 0, "xto": 2860.0, "flat_auto_ref": "", "flat_auto_rank": 1, "autobackg": 0, "xrel_adj": 0.0, "auto_black_lvl": 1, "base_wnd": 100.0, "sub_baseline": 0, "xconv": 2, "auto_max_exp": 1000.0, "auto_total_exp": 10000.0, "auto_exp": 0, "rmripple": 0, "black_lvl": 8286.896875, "shutter_clip_adj": 0.0, "auto_bckg": 0, "flat_auto_thr": 0.9, "subbackg": 1}
316.8218498245369 15135.643681706491
317.89969571804795 14984.677363879795
318.977263876126 15018.36166408142
320.05455438786703 14962.351038157256
321.1315673423287 14910.203792047967
322.2083028285215 14930.320718230505
323.2847609354267 14843.86115122872
324.3609417519747 14824.953311396486
325.43684536705587 14725.47221686324
326.5124718695279 14785.964679522756
327.58782134820103 14735.594355616475
328.66289389184385 14768.737898475989
329.7376895891921 14533.846870250298
330.8122085289342 14606.914183163131
331.88645079971866 14645.284415202634
332.9604164901575 14570.023999935793
334.03410568881554 14480.575293194497
335.1075184842266 14635.153377891518
336.18065496487543 14527.601700262449
337.2535152192122 14555.358720498518
338.32609933564163 14571.642895081808
339.39840740253203 14480.920274432496
340.4704395082099 14440.721001296159
341.5421957409617 14382.692522052606
342.6136761890357 14533.302926208871
343.6848809406365 14363.397636662816
344.75581008392874 14337.38604220773
345.82646370703696 14335.667052689396
346.8968418980512 14272.192374149201
347.96694474501055 14339.88059578006
349.0367723359268 14251.698105719017
350.106324758759 14250.272568622648
351.1756021014353 14198.698149824235
352.2446044518383 14112.05248775843
353.31333189781435 14346.46445335914
354.38178452716966 14143.847040544459
355.449962427665 14181.015047522564
356.51786568702846 14159.94841251717
357.58549439294256 14199.66592740367
358.6528486330535 14238.12096523056
359.71992849496564 14117.443589727787
360.7867340662433 14110.774247519326
361.8532654344144 14173.225586995115
362.9195226869597 14246.85530509885
363.9855059113288 14085.227902312388
365.05121519492604 13984.600054481194
366.11665062511565 14116.02538519208
367.1818122892273 14091.130470920154
368.2467002745434 14142.520219152797
369.31131466831175 14159.752716567324
370.375655557742 14152.552649470328
371.4397230299983 14144.725036898895
372.5035171722102 14197.064066173862
373.5670380714637 14083.28206759178
374.6302858148101 14209.528722047282
375.6932604892554 14202.181524963866
376.7559621817709 14255.432862126705
377.81839097928605 14043.676436527836
378.8805469686886 14123.459606937113
379.94243023683157 14219.341096563056
381.0040408705263 14164.205833146389
382.0653789565458 14028.949228572616
383.1264445816196 14026.32190622125
384.1872378324406 14011.283607120637
385.2477587956637 14050.426723023667
386.3080075579037 13925.18363242514
387.3679842057336 13868.565260105082
388.4276888256918 13948.909441107306
389.48712150426945 13967.398947503772
390.54628232792857 13829.995518768814
391.6051713830857 13806.45419755021
392.66378875611736 13894.244387061777
393.7221345333637 13818.27270942667
394.7802088011249 13750.481542731019
395.838011645661 13746.157657549376
396.89554315319765 13756.444094944502
397.9528034099112 13690.18950097929
399.00979250194723 13564.45843862453
400.06651051541485 13628.527103499242
401.1229575363741 13755.523919085832
402.17913365085224 13621.957654161408
403.23503894483656 13609.802053267525
404.2906735042761 13606.529800540258
405.3460374150818 13489.737809370956
406.401130763119 13512.41199638609
407.455953634224 13464.273584688624
408.5105061141876 13522.726166519846
409.56478828876243 13371.144307467654
410.6188002436629 13380.96284752429
411.6725420645689 13350.059792468874
412.72601383711117 13408.178787192166
413.77921564689314 13513.176160432437
414.8321475794728 13397.163613962144
415.88480972036814 13241.632525804516
416.93720215506437 13384.138024580903
417.9893249690049 13279.550194558713
419.04117824759123 13220.422556541725
420.09276207619223 13221.865377345423
421.144076540133 13215.783290360403
422.1951217247042 13215.777612523607
423.24589771515275 13220.768629181364
424.2964045966928 13234.37571224561
425.34664245449494 13259.839193049716
426.3966113736933 13162.805866171646
427.4463114393875 13160.035880351754
428.49574273662984 13198.52008643805
429.5449053504417 13032.547633536311
430.5937993658026 13122.63000729054
431.6424248676558 13082.006602941728
432.6907819409007 12992.67161973215
433.73887067040596 13054.335504317103
434.7866911409965 13067.976150200731
435.8342434374608 13035.833083259715
436.88152764455117 12928.184798332164
437.9285438469724 12998.556881700551
438.9752921294057 12840.470657240683
440.02177257648145 12961.032718205757
441.06798527279716 12822.766484246447
442.1139303029122 13055.228472282808
443.1596077513459 13099.937780537946
444.2050177025794 12875.650368152163
445.25016024105753 12880.482693960283
446.2950354511886 12853.628288766595
447.33964341733736 12929.581867012836
448.383984223834 12872.601738569567
449.4280579549686 12813.796215540788
450.471864694995 12808.741858247335
451.5154045281306 12881.357713520121
452.5586775385509 12828.341012636705
453.60168381039693 12756.296503857222
454.64442342776783 12899.571336185834
455.6868964747264 12882.188445827065
456.7291030353008 12779.889106749451
457.77104319347563 12882.630532921517
458.8127170332027 12831.992422615662
459.854124638392 12831.01691968254
460.895266092919 12923.935266225188
461.93614148061897 12892.350016835851
462.97675088529104 12913.580014519272
464.01709439069236 12846.354494854186
465.0571720805492 12874.263160834615
466.0969840385442 12906.73952390011
467.1365303483253 13066.388824181737
468.17581109350067 12865.32653259963
469.2148263576437 12932.775062355437
470.2535762242878 12891.30206992319
471.29206077693016 13081.67078219993
472.33028009902773 12985.658303635222
473.3682342740012 12895.347424828196
474.40592338523857 12914.846868055229
475.4433475160804 12984.774257529887
476.4805067498364 12940.155046203936
477.51740116978 12862.257226123169
478.5540308591426 12917.088123973703
479.59039590112116 13062.268615057003
480.6264963788726 12988.494878045592
481.6623323755193 13078.717149065913
482.6979039741436 12989.180394770872
483.7332112577915 13136.617613312465
484.76825430947247 13301.947661492033
485.80303321215797 13152.074517716634
486.837548048783 13184.201325243257
487.8717989022425 13327.31140521208
488.90578585539697 13331.509136078166
489.9395089910686 13404.571980374525
490.97296839203955 13355.759983269043
492.00616414106116 13192.740159189972
493.0390963208429 13247.089373417883
494.0717650140559 13261.496910407013
495.10417030333883 13152.146642678481
496.1363122712901 13127.213240596979
497.16819100046814 13066.553097214868
498.1998065734024 12948.545943736526
499.2311590725767 12934.114372095604
500.26224858044407 12874.33466195096
501.2930751794156 12776.271518509706
502.3236389518679 12821.230354695614
503.35393998014115 12693.195949555975
504.38397834653733 12728.606880088004
505.4137541333221 12688.451294531023
506.4432674227228 12625.854616112265
507.4725182969323 12598.030619917958
508.5015068381035 12556.420619450952
509.53023312835467 12621.207531625838
510.55869724976765 12474.681806066132
511.58689928438434 12456.453465761759
512.6148393142121 12460.570544211301
513.6425174212218 12508.89197593869
514.6699336873462 12553.735950832006
515.6970881944835 12524.401226815487
516.7239810244901 12429.886909755003
517.7506122591931 12431.20459830028
518.7769819803761 12411.411393851482
519.8030902697901 12502.746628595083
520.8289372091476 12487.049194422474
521.8545228801249 12527.082006913352
522.8798473643619 12443.43765867197
523.9049107434621 12453.145378273359
524.9297130989908 12551.161392496306
525.9542545124805 12421.233928371565
526.9785350654201 12437.007852985154
528.0025548392696 12453.895817991883
529.0263139154504 12329.590020141844
530.0498123753423 12466.37521180129
531.073050300296 12337.382423666659
532.0960277716204 12303.071535106897
533.1187448705896 12368.317093605048
534.1412016784416 12376.918387440277
535.1633982763833 12327.560168497295
536.1853347455726 12301.636458565701
537.2070111671401 12257.489527813408
538.2284276221817 12215.860183003457
539.2495841917516 12113.925093144953
540.2704809568677 12018.37123260264
541.2911179985167 12109.744202373022
542.3114953976419 11938.706709095357
543.3316132351592 12023.91051902325
544.3514715919409 11915.923768539578
545.3710705488247 11865.638975185379
546.3904101866156 11908.357616179352
547.4094905860784 11888.170861929284
548.4283118279418 11810.940994977369
549.4468739929034 11865.29450245979
550.4651771616191 11752.439759439567
551.4832214147063 11694.406171754094
552.501006832761 11731.17116026945
553.5185334963226 11669.730021179483
554.5358014859103 11722.028213587799
555.5528108820035 11743.23269682662
556.5695617650363 11621.746065859532
557.5860542154242 11689.396745653527
558.6022883135283 11593.773604957869
559.6182641396881 11591.119574512948
560.6339817741991 11498.8400261153
561.6494412973225 11645.568113468305
562.6646427892883 11682.737236314055
563.6795863302796 11533.55967014179
564.694272000459 11553.480351154327
565.7086998799423 11684.73912882958
566.7228700488104 11505.100471160154
567.7367825871115 11484.198906954805
568.7504375748576 11539.78696208333
569.7638350920224 11573.530955886676
570.7769752185486 11438.241313090197
571.7898580343353 11553.928751158292
572.802483619258 11427.968841313666
573.8148520531431 11605.54997326002
574.8269634157932 11627.361553696017
575.8388177869692 11501.043272757268
576.8504152463938 11565.085658620943
577.8617558737587 11700.754555996024
578.8728397487175 11428.757432307593
579.883666950891 11493.73429304757
580.8942375598654 11626.0181775128
581.9045516551851 11655.76922268316
582.9146093163617 11800.228663599484
583.924410622878 11589.451450787825
584.9339556541727 11567.168753972808
585.9432444896538 11785.313363628928
586.9522772086875 11664.54547705485
587.9610538906127 11666.429257316138
588.9695746147318 11686.80317360762
589.9778394603054 11653.173744508915
590.985848506567 11629.562312764641
591.9936018327098 11638.52212464005
593.0010995178891 11451.87112981829
594.0083416412344 11592.292426603533
595.0153282818283 11405.376817814715
596.0220595187293 11406.923258155399
597.0285354309508 11338.5521250664
598.0347560974806 11363.85257658189
599.0407215972609 11289.803438903627
600.0464320092051 11254.466939981472
601.0518874121954 11339.07804912362
602.0570878850685 11329.629499309329
603.062033506636 11302.722196919402
604.0667243556636 11321.735069512666
605.0711605108936 11202.079352824043
606.0753420510264 11427.058678677298
607.0792690547278 11273.508756154064
608.082941600629 11161.650759592465
609.0863597673306 11266.125372823257
610.0895236333909 11248.212320370996
611.0924332773357 11374.34672396776
612.0950887776617 11302.255168271191
613.0974902128219 11305.46645435899
614.0996376612384 11456.49403986534
615.1015312013005 11461.334939965744
616.1031709113595 11509.467442542216
617.1045568697336 11438.257002171402
618.1056891547069 11534.685853536299
619.1065678445229 11610.73285432525
620.1071930173985 11807.258536976366
621.1075647515099 11739.500733721467
622.1076831250048 11746.260022897804
623.1075482159849 11912.57185815065
624.1071601025305 11922.613296162961
625.1065188626781 11929.57886220467
626.105624574433 12182.247995336096
627.1044773157682 12189.290913922066
628.1030771646128 12170.875341746205
629.1014241988742 12330.37257275366
630.0995184964158 12387.78573001604
631.0973601350688 12434.380465963664
632.0949491926294 12542.31667527674
633.0922857468631 12308.029889292424
634.089369875499 12454.11285815253
635.0862016562278 12486.568582483607
636.0827811667077 12203.399073407805
637.0791084845641 12282.4721348198
638.0751836873878 12137.037517022563
639.0710068527369 12141.041058606246
640.0665780581294 11957.685949107206
641.0618973810506 11865.53088224206
642.0569648989604 11967.03640190545
643.0517806892676 11715.489876168078
644.0463448293649 11755.036565627739
645.040657396592 11577.421937824016
646.0347184682723 11580.586924219366
647.0285281216875 11460.538788757238
648.0220864340772 11480.058569387478
649.0153934826558 11364.819662842645
650.0084493446047 11311.904088918742
651.0012540970674 11204.423579752895
651.9938078171526 11117.240662270831
652.9861105819346 11098.645750892629
653.9781624684565 11168.015264757121
654.9699635537254 10891.039609260868
655.9615139147136 10996.782517476557
656.9528136283589 10764.986063311877
657.9438627715699 10936.20932144078
658.9346614212154 10821.512581126093
659.925209654135 10593.821538739625
660.9155075471263 10734.99304862859
661.9055551769616 10622.026763068689
662.895352620375 10790.986646373738
663.8848999540678 10511.103849052914
664.8741972547068 10531.050833666257
665.863244598926 10513.012432817568
666.8520420633213 10605.000702478663
667.8405897244611 10441.619571244197
668.8288876588758 10319.469552491017
669.8169359430613 10463.249988957392
670.8047346534822 10405.013512591298
671.7922838665672 10283.701298409187
672.7795836587156 10428.549712784947
673.766634106285 10558.239308369266
674.7534352856092 10312.3131467806
675.7399872729766 10357.991162243557
676.7262901446538 10360.334583429258
677.712343976862 10370.204574299536
678.6981488457986 10421.246047733986
679.6837048276229 10265.240363659457
680.6690119984596 10386.505057944905
681.6540704344043 10348.726247777406
682.6388802115107 10336.19683100165
683.6234414058108 10348.349783655844
684.6077540932874 10246.84388847051
685.591818349907 10315.561072656887
686.575634251587 10228.862401236265
687.5592018742263 10218.332412151927
688.5425212936734 10140.263641013607
689.5255925857564 10344.349875594642
690.5084158262707 10190.69546964283
691.4909910909646 10150.585208588614
692.4733184555644 10044.790311327013
693.4553979957618 10200.473515264599
694.4372297872123 10120.331648635512
695.4188139055404 10057.79122301927
696.4001504263324 9892.244686001532
697.3812394251509 10069.453398244957
698.3620809775111 9883.670442151619
699.3426751589104 9947.300008473334
700.3230220448004 9863.973646764549
701.3031217106054 9921.76215270458
702.2829742317172 10112.632066506387
703.2625796834873 9822.851875319759
704.2419381412474 9811.612863701916
705.22104968028 9876.99206961139
706.1999143758458 9848.0452162529
707.178532303169 9822.248073983277
708.1569035374378 9864.707274442224
709.1350281538107 9866.539844768226
710.1129062274158 9853.828856596238
711.0905378333373 9964.932652763744
712.0679230466376 10014.689810919379
713.0450619423427 10053.039728383163
714.0219545954424 10170.293948001394
714.9986010808989 9951.070216570495
715.9750014736292 10042.379165771123
716.9511558485392 10189.478244484313
717.9270642804786 10235.554881315078
718.9027268442787 10246.037724183083
719.8781436147328 10150.667226886259
720.8533146666014 10139.8138736185
721.828240074612 10199.846314906794
722.8029199134635 10120.740036008998
723.7773542578125 10154.59659309209
724.751543182294 10042.549224227225
725.7254867615029 10101.87707984076
726.6991850700015 9799.342739824755
727.6726381823228 9912.88977464685
728.6458461729599 9918.927214467514
729.6188091163858 9847.769063961865
730.5915270870246 9800.463451793508
731.5640001592856 9668.355460014745
732.536228407529 9767.839060260707
733.5082119060917 9757.574141314637
734.4799507292755 9568.714278292171
735.4514449513481 9661.704233929458
736.4226946465496 9745.591690865038
737.3936998890786 9750.252957174323
738.3644607531078 9535.54899668845
739.3349773127793 9596.836683945816
740.3052496421951 9640.461851370244
741.27527781543 9476.519588174733
742.2450619065221 9443.949978360773
743.2146019894826 9454.355221267662
744.183898138288 9499.810208917594
745.1529504268801 9459.838014675544
746.1217589291682 9225.046764280078
747.0903237190341 9277.570665973371
748.058644870318 9314.654369784295
749.0267224568397 9270.89172511759
749.994556552374 9160.104759465718
750.9621472306771 9201.446429450054
751.9294945654583 9188.120268387513
752.8965986304011 9199.26576400964
753.8634594991636 9129.309338764977
754.8300772453586 9200.338838906006
755.7964519425768 9166.474612467686
756.762583664371 9251.181541396074
757.7284724842611 9171.62551984762
758.6941184757416 9081.936807741844
759.6595217122667 9124.824574216165
760.6246822672638 9157.75285381478
761.5896002141235 9017.966601522086
762.5542756262093 9095.152994300552
763.5187085768503 9104.239238206044
764.4828991393406 8999.418202398574
765.4468473869474 8942.576011716166
766.4105533929032 9032.899103922626
767.3740172304078 9015.755357686328
768.3372389726283 9105.297547263475
769.3002186926988 8899.588873497903
770.2629564637282 8955.84411625323
771.2254523587872 8943.79939333333
772.1877064509154 8846.663106029791
773.1497188131179 8730.724218433146
774.1114895183728 8750.082200456116
775.0730186396268 8729.860800427094
776.0343062497905 8789.827035877115
776.9953524217381 8690.792828864996
777.9561572283274 8695.930684635558
778.9167207423689 8765.055980557574
779.8770430366476 8585.070172780426
780.8371241839159 8689.9665854393
781.7969642568951 8623.141630163404
782.7565633282757 8826.18105746891
783.7159214707099 8535.473555699591
784.6750387568281 8624.595276279451
785.6339152592227 8508.671619867917
786.5925510504512 8516.284247132357
787.5509462030477 8628.281015486953
788.5091007895098 8558.441900670525
789.4670148823006 8529.068273990273
790.4246885538596 8513.394432943136
791.3821218765861 8587.38335655202
792.3393149228505 8479.819522806027
793.2962677649975 8564.293775476197
794.2529804753303 8596.389626498483
795.20945312613 8531.63527889476
796.1656857896378 8392.697489716451
797.1216785380675 8405.428871940392
798.0774314435985 8523.988545260076
799.0329445783846 8643.89692467029
799.9882180145414 8562.716728977643
800.9432518241574 8538.955978917595
801.89804607929 8645.325160609647
802.852600851962 8712.953916905548
803.8069162141637 8623.407946527717
804.760992237856 8647.186745836198
805.714828994971 8785.690583364454
806.6684265574077 8768.272326402646
807.6217849970271 8643.694667655378
808.574904385674 8641.270435855378
809.527784795142 8763.737188175852
810.4804262972102 8778.472742280954
811.4328289636178 8612.986496276746
812.3849928660748 8486.375309590376
813.3369180762638 8528.796550458605
814.2886046658241 8574.871296818257
815.2400527063783 8410.273992088612
816.1912622695108 8392.495398907742
817.1422334267718 8459.24863628347
818.0929662496856 8367.772508228732
819.0434608097457 8188.975714419762
819.9937171784059 8236.477450643999
820.9437354271013 8141.593889373778
821.8935156272255 8317.881818876393
822.8430578501484 8152.335755675665
823.7923621672016 7985.121938014742
824.7414286496896 8057.6761281791405
825.6902573688876 8122.717359151682
826.6388483960363 8044.928389083089
827.5872018023492 7980.188170410965
828.5353176590033 8101.431536451573
829.4831960371503 7946.966116864768
830.4308370079016 7905.0920374422985
831.3782406423525 7953.193220728019
832.3254070115545 7963.6773036895875
833.2723361865319 7885.198246523655
834.2190282382799 7837.622092196945
835.1654832377644 7851.653038874969
836.1117012559116 7805.449524471483
837.0576823636256 7910.194193205114
838.003426631778 7825.986552890819
838.9489341312074 7763.302185231587
839.8942049327197 7869.896543166105
840.8392391070975 7923.198813786759
841.7840367250865 7756.698277019374
842.7285978573982 7700.387382668062
843.672922574724 7854.007930159979
844.6170109477152 7792.318170884575
845.560863046996 7732.070960212342
846.5044789431595 7755.640377802947
847.4478587067697 7704.3601109969
848.3910024083561 7850.593107711796
849.333910118421 7768.006584313397
850.2765819074339 7667.484369402651
851.2190178458332 7752.418203353603
852.161218004032 7796.655615989401
853.1031824524016 7719.940526291532
854.0449112612987 7812.537551547245
854.9864045010327 7828.826562206098
855.9276622418947 7701.3724056055025
856.8686845541379 7692.148395864945
857.8094715079915 7703.152841927156
858.7500231736467 7828.933819318003
859.690339621271 7706.675052385933
860.6304209209939 7773.640859104635
861.5702671429244 7637.7072277405405
862.5098783571284 7715.836714472052
863.4492546336569 7696.519271457386
864.3883960425155 7625.5098664182615
865.3273026536863 7639.607924323022
866.2659745371238 7600.420550658813
867.2044117627465 7742.791789272253
868.1426144004472 7613.735796472191
869.0805825200823 7704.992281110422
870.0183161914847 7659.654607602391
870.9558154844526 7814.558061612278
871.8930804687552 7721.872538710595
872.8301112141307 7558.509094825667
873.7669077902865 7804.502816288346
874.7034702669062 7924.577754328146
875.6397987136315 7821.335755672442
876.5758932000863 7723.985515366311
877.5117537958522 7922.936893382651
878.4473805704911 7749.269349351196
879.3827735935283 7758.636213682958
880.3179329344603 7895.551445589299
881.2528586627541 7887.728064877128
882.1875508478479 7940.602864429966
883.1220095591489 7814.473330655603
884.0562348660296 7795.992788106106
884.9902268378391 7898.317720756892
885.9239855438955 7764.687278753767
886.8575110534839 7689.090667907403
887.7908034358588 7793.553310976649
888.7238627602474 7740.828744209533
889.6566890958475 7689.9720139806595
890.5892825118208 7546.4326655339
891.5216430773125 7638.419989438825
892.4537708614189 7703.72906762031
893.3856659332196 7503.4072174882385
894.3173283617652 7476.8477971097645
895.2487582160684 7525.034873744096
896.179955565116 7528.974985409599
897.110920477864 7413.0039191235655
898.0416530232451 7443.813407428897
898.9721532701478 7399.194252748348
899.9024212874428 7515.541853688208
900.8324571439662 7342.7736937186955
901.7622609085302 7337.027705377601
902.6918326499072 7306.163033955594
903.6211724368477 7341.04563441211
904.5502803380696 7444.9927887494505
905.4791564222614 7456.733775261423
906.4078007580792 7319.897955913041
907.3362134141571 7346.501411823398
908.2643944590909 7414.814106020536
909.1923439614493 7250.6994491936875
910.1200619897754 7250.671326437659
911.0475486125779 7454.699176467695
911.9748038983344 7298.501070168606
912.9018279155007 7254.783868655852
913.8286207324982 7112.588703766813
914.7551824177117 7236.15996024802
915.6815130395116 7241.153697413955
916.6076126662283 7070.17152591493
917.533481366163 7183.5703138270055
918.4591192075914 7166.838193844907
919.3845262587565 7411.6010662385
920.3097025878706 7111.1504310282135
921.2346482631237 7079.856758517237
922.1593633526682 7070.636876069572
923.0838479246304 7178.428345604121
924.0081020471061 7248.068022144976
924.9321257881656 6921.09906816402
925.8559192158464 7008.461725697644
926.7794823981512 6983.708759532853
927.7028154030686 6933.563544896929
928.6259182985414 6877.575387446527
929.5487911524906 7059.030098430334
930.4714340328119 7121.422931343273
931.3938470073608 6849.46782874591
932.3160301439748 6823.549252168892
933.2379835104548 6957.217119748944
934.1597071745709 7021.686493914507
935.0812012040769 6943.318529375918
936.002465666681 6977.606266376201
936.9235006300696 7003.653941176529
937.8443061619055 6948.6766500006825
938.7648823298077 6806.281760281449
939.6852292013809 6786.2127949942715
940.6053468441951 6994.286495070875
941.5252353257874 6797.084151663393
942.4448947136698 6826.152944492271
943.364325075323 6826.4819202752215
944.2835264782043 6899.441634270242
945.2024989897309 6825.203586739556
946.1212426773054 6799.435875885397
947.0397576082851 6895.166523415253
947.9580438500125 7040.192416117801
948.8761014697939 6954.071344355709
949.7939305349064 6954.12916697263
950.7115311125999 6788.505958890043
951.6289032700952 6821.087910932666
952.5460470745875 6945.8942383800095
953.4629625932339 6759.455792808205
954.3796498931715 6807.129640520415
955.2961090415029 6852.5196914934295
956.2123401053068 6843.153573829668
957.1283431516276 6825.347871846085
958.0441182474842 6787.331302412848
958.9596654598663 6927.32887485947
959.8749848557309 6843.616929613044
960.7900765020167 6764.427112364427
961.7049404656209 6732.448818095858
962.6195768134185 6825.110691423052
963.5339856122537 6883.979282422694
964.4481669289453 6859.053556060998
965.3621208302793 6771.944531571884
966.2758473830145 6755.816924258445
967.1893466538822 6932.728679209252
968.1026187095813 6751.548116018833
969.0156636167867 6681.993713430418
969.9284814421426 6923.770671310342
970.8410722522622 6805.866479306035
971.753436113735 6683.221521591369
972.6655730931161 6702.3976511685005
973.5774832569368 6820.390488234392
974.4891666716958 6693.062218312414
975.4006234038698 6560.736685055087
976.3118535198955 6617.869010472154
977.2228570861935 6756.001638280398
978.1336341691494 6826.412904139077
979.0441848351202 6596.203102868794
979.9545091504333 6737.161776002722
980.864607181391 6792.3721344874475
981.7744789942699 6753.184736718392
982.6841246553086 6775.161382555819
983.5935442307236 6667.0134312399
984.5027377867027 6752.043177982346
985.4117053894024 6803.04732615474
986.3204471049557 6626.346050240203
987.2289629994648 6751.896977930778
988.1372531390007 6868.576914451258
989.0453175896091 6808.469924741687
989.9531564173067 6727.570887253208
990.860769688079 6607.771460920597
991.7681574678918 6704.52310325704
992.6753198226706 6800.552733627514
993.582256818323 6684.523403740108
994.4889685207218 6694.182214269899
995.3954549957143 6897.102633807738
996.301716309119 6903.7791656454865
997.2077525267232 6753.563299865558
998.1135637142943 6756.076155092365
999.0191499375615 6900.342888699721
999.924511262232 6869.693099149273
1000.8296477539861 6821.496293092084
1001.7345594784656 6808.77718841794
1002.6392465012996 6789.385585259617
1003.5437088880753 6838.702988402467
1004.4479467043584 6750.742800224145
1005.3519600156869 6582.946503443879
1006.2557488875718 6766.1230745686335
1007.1593133854858 6748.7798115856585
1008.0626535748888 6574.251626148804
1008.9657695212009 6535.418045549769
1009.8686612898182 6762.655769197794
1010.7713289461135 6738.115234652049
1011.6737725554212 6720.201959807341
1012.5759921830577 6580.2753536302625
1013.4779878943027 6657.975843257189
1014.379759754418 6726.836655186543
1015.2813078286254 6567.570716840921
1016.18263218213 6422.869161055894
1017.0837328801026 6476.093636213683
1017.9846099876886 6519.627982799762
1018.8852635700023 6438.980850233161
1019.7856936921362 6339.024803683236
1020.6859004191447 6593.451025628628
1021.5858838160675 6368.890769780766
1022.4856439479063 6336.933730024912
1023.3851808796389 6296.627856450296
1024.2844946762143 6476.920466603453
1025.183585402554 6506.366295388651
1026.082453123554 6206.302521984953
1026.9810979040776 6379.988422899563
1027.8795198089647 6220.7893117091935
1028.777718903024 6362.353280585731
1029.6756952510368 6257.784988975227
1030.5734489177648 6277.955857592418
1031.4709799679313 6242.432097127273
1032.3682884662358 6376.302781181952
1033.2653744773506 6043.980948056692
1034.1622380659192 6117.929237185328
1035.058879296559 6310.483921379235
1035.9552982338591 6356.625973540036
1036.8514949423825 6253.556201496964
1037.7474694866614 6243.867836329478
1038.6432219312028 6151.856213165793
1039.5387523404825 6374.4611912191785
1040.4340607789582 6198.257910883764
1041.3291473110476 6258.837251647324
1042.2240120011465 6432.887588916033
1043.1186549136273 6422.499610411387
1044.0130761128294 6249.645997336442
1044.9072756630649 6328.499342377812
1045.8012536286205 6536.871991682518
1046.6950100737577 6449.673880935819
1047.588545062701 6553.952589076476
1048.481858659663 6463.646081901704
1049.3749509288118 6634.750289522548
1050.2678219343034 6526.000955102757
1051.1604717402515 6495.88171922911
1052.0529004107575 6386.6170274208525
1052.9451080098825 6484.626333768468
1053.8370946016694 6480.896995165744
1054.7288602501267 6549.675258871792
1055.6204050192446 6463.7433919331925
1056.511728972977 6457.9187858859705
1057.402832175254 6419.8186642222345
1058.2937146899785 6320.826003213924
1059.1843765810263 6230.252369586003
1060.0748179122456 6420.288999987922
1060.9650387474576 6264.315676558579
1061.855039150456 6329.850710891196
1062.7448191850071 6314.955599469105
1063.6343789148505 6345.603909212613
1064.5237184037014 6410.952823031994
1065.412837715241 6336.354531098623
1066.3017369131267 6159.854326063863
1067.190416060992 6183.5228613610025
1068.0788752224398 6083.218548544774
1068.9671144610438 6074.8462149752395
1069.8551338403558 6192.751936448144
1070.7429334239023 6194.446436443112
1071.6305132751695 6092.021472569211
1072.517873457633 6185.399927389006
1073.4050140347335 6042.8206475369425
1074.2919350698776 6075.564772960403
1075.1786366264623 6102.383658026185
1076.0651187678395 6053.264595967703
1076.95138155735 5966.925521377658
1077.8374250582929 6000.846650333854
1078.7232493339507 6068.4297776308385
1079.608854447577 5943.101044751311
1080.4942404623907 5888.3648399556605
1081.3794074415982 6073.255484380252
1082.2643554483657 5984.265400549682
1083.149084545841 5935.955055099037
1084.033594797138 5887.305318038167
1084.9178862653516 5893.792523226128
1085.8019590135427 6104.211447806106
1086.6858131047484 5743.350975089776
1087.5694486019802 5945.993936077976
1088.4528655682225 5977.773153713163
1089.3360640664287 6051.085273892585
1090.2190441595321 5858.0358896886755
1091.1018059104317 5898.932040285014
1091.98434938201 6071.6179781703995
1092.866674637111 6076.8505093253425
1093.748781738559 5897.407157638195
1094.6306707491512 5771.110704140502
1095.5123417316554 6025.952677406351
1096.3937947488157 5834.215707077832
1097.2750298633455 5835.797918070055
1098.156047137938 5812.896175083945
1099.0368466352556 5942.009236848984
1099.9174284179317 6044.8002166015085
1100.7977925485757 5770.30899511597
1101.6779390897755 5762.683715187009
1102.5578681040806 5782.913049535024
1103.4375796540226 5818.268333683029
1104.3170738021054 5754.747091893315
1105.1963506108077 5684.205723475002
1106.0754101425773 5707.725377604508
1106.9542524598382 5755.64137982993
1107.8328776249855 5677.883127026687
1108.7112857003904 5689.33222886487
1109.5894767483987 5705.232278158123
1110.4674508313292 5851.371947198967
1111.3452080114657 5724.418778877763
1112.2227483510815 5774.0935486280805
1113.1000719124077 5786.166682456349
1113.9771787576592 5945.370462259829
1114.854068949022 5725.242180511237
1115.7307425486542 5753.1379371454905
1116.6071996186893 5865.054581640929
1117.483440221229 6055.585982745247
1118.3594644183577 5772.54725704146
1119.235272272128 5862.581345520115
1120.1108638445658 5883.620970431545
1120.9862391976712 6107.014244759953
1121.8613983934229 6008.404674380796
1122.7363414937627 6026.851356618052
1123.6110685606182 6005.543346634078
1124.485579655884 6202.07326234148
1125.359874841426 6155.061198214964
1126.2339541790916 6055.439718766828
1127.1078177306936 6347.708390672394
1127.9814655580267 6125.105518615553
1128.854897722851 6154.818458281645
1129.7281142869106 6231.770762997036
1130.6011153119125 6120.707157226202
1131.473900859548 6295.689158113438
1132.3464709914697 6200.641853736896
1133.2188257693178 6122.702598873375
1134.0909652546961 6042.540491049911
1134.96288950919 6014.589117864154
1135.8345985943506 6176.134204145427
1136.7060925717087 5934.39236703836
1137.57737150277 5972.568697388718
1138.4484354490069 6027.916371830189
1139.3192844718778 5893.261427746868
1140.1899186327992 5700.558960763376
1141.060337993178 5943.533433742426
1141.930542614382 5754.008971942147
1142.8005325577597 5700.568885782736
1143.670307884635 5601.119065175517
1144.5398686563003 5796.5534350647595
1145.409214934025 5695.27831709296
1146.2783467790541 5553.937807888064
1147.1472642526023 5569.242287491537
1148.0159674158622 5688.525062076866
1148.8844563300026 5492.228759007968
1149.7527310561618 5466.44602424858
1150.6207916554504 5409.375782469944
1151.4886381889592 5364.128356853123
1152.3562707177498 5485.841561643702
1153.2236893028585 5395.780706489269
1154.090894005296 5295.55195667306
1154.9578848860474 5388.171079626822
1155.8246620060709 5392.388850728071
1156.6912254262988 5182.34162668729
1157.5575752076438 5263.787536267957
1158.42371141098 5399.021610606507
1159.2896340971656 5357.026905394402
1160.1553433270346 5317.778280959875
1161.0208391613887 5351.210161091451
1161.8861216610057 5375.638560972539
1162.75119088664 5341.951730866189
1163.6160468990201 5227.35265464637
1164.4806897588442 5247.9796741203545
1165.3451195267917 5309.52363911581
1166.2093362635114 5292.031706011445
1167.0733400296285 5301.54303331925
1167.9371308857444 5209.21593012623
1168.8007088924278 5212.366459008954
1169.6640741102328 5274.197555933291
1170.5272265996773 5094.345159407787
1171.390166421259 5082.444794821076
1172.252893635452 5171.743830113743
1173.1154083026995 5372.134867027175
1173.977710483421 5282.819657880225
1174.8398002380145 5084.737559356838
1175.7016776268483 5272.5626545669975
1176.563342710264 5219.384594538134
1177.4247955485826 5102.106413048218
1178.2860362020947 5213.755032530377
1179.147064731069 5010.973767552089
1180.0078811957483 5202.431651764237
1180.8684856563486 5130.234531829361
1181.7288781730604 5155.290824425965
1182.589058806052 5298.435232161684
1183.4490276154593 5358.438035337231
1184.3087846614017 5233.819130639443
1185.1683300039676 5202.582141382292
1186.027663703222 5432.536632654459
1186.8867858192025 5224.867451280845
1187.7456964119228 5307.286644174763
1188.6043955413716 5348.778919036367
1189.4628832675116 5429.923123349106
1190.3211596502842 5458.992875534093
1191.179224749596 5392.843009327245
1192.0370786253388 5337.396773415595
1192.8947213373758 5537.919863613801
1193.7521529455407 5571.8730688104715
1194.6093735096438 5337.7700491169835
1195.466383089477 5359.730717622775
1196.3231817447977 5464.460933864049
1197.1797695353398 5642.385989179404
1198.0361465208189 5345.761887000408
1198.8923127609214 5347.561973500757
1199.7482683153048 5557.653007025465
1200.6040132436028 5610.667848948693
1201.459547605431 5484.9421898855335
1202.3148714603722 5567.569456081263
1203.1699848679855 5409.629838955452
1204.0248878878065 5561.97057148461
1204.8795805793507 5289.032248861676
1205.7340630020935 5356.616583952046
1206.5883352155033 5572.486853939036
1207.4423972790064 5587.500091748591
1208.2962492520237 5278.084826068038
1209.1498911939307 5315.618753084197
1210.0033231640937 5392.399781530332
1210.8565452218427 5480.765208186905
1211.7095574264913 5162.153228342191
1212.5623598373222 5241.310431674373
1213.4149525135963 5303.548061949187
1214.2673355145507 5351.015126507622
1215.1195088993936 5176.969053874468
1215.9714727273113 5273.936062426337
1216.8232270574663 5369.162635583097
1217.6747719489904 5102.641011222335
1218.5261074609934 5135.1711218108085
1219.3772336525653 5285.158269669031
1220.2281505827668 5324.916867620163
1221.0788583106296 5373.638966177726
1221.9293568951707 5090.669298192946
1222.7796463953746 5081.217811739794
1223.629726870202 5237.4222044291
1224.4795983785934 5269.779519660046
1225.3292609794553 5157.702259184886
1226.1787147316809 5101.040029546013
1227.0279596941327 5237.2165757130115
1227.8769959256424 5141.083620965275
1228.7258234850306 5215.530797658783
1229.5744424310833 5023.619789085775
1230.422852822563 5281.195529909527
1231.2710547182105 5354.585415284158
1232.119048176739 5206.183935358767
1232.9668332568417 5049.038848908548
1233.8144100171812 5249.705930457129
1234.6617785163999 5250.058411765689
1235.508938813111 5055.554087599468
1236.3558909659114 5063.714022602499
1237.2026350333617 5308.442063579235
1238.049171074008 5289.6356197374425
1238.8954991463652 5136.037955395271
1239.741619308932 5229.067831947314
1240.587531620169 5260.385072482144
1241.4332361385277 5290.4047624850955
1242.2787329224248 5008.111792934518
1243.1240220302534 4976.052232293794
1243.9691035203869 4994.229293729901
1244.813977451171 5148.001803836645
1245.6586438809263 5103.555601760993
1246.5031028679496 4850.337730755624
1247.3473544705157 5108.033373606566
1248.1913987468706 5094.542855798048
1249.0352357552383 4912.173455624465
1249.8788655538228 4988.874108355711
1250.7222882007918 5045.782184870633
1251.565503754302 5100.843957688772
1252.4085122724755 4761.618414911247
1253.2513138134182 5043.565600960352
1254.0939084352049 4994.690784477433
1254.9362961958905 4929.963432500395
1255.7784771535007 4858.04351185351
1256.6204513660432 4978.086281566264
1257.4622188915 5189.5954041993045
1258.3037797878242 4894.189805831842
1259.1451341129468 4764.216687062562
1259.9862819247755 4951.092075183096
1260.8272232811978 4952.043681585723
1261.6679582400666 5068.365682769558
1262.5084868592203 4820.478461926081
1263.34880919647 4821.2214214027035
1264.1889253095997 4873.284580791152
1265.0288352563712 5008.5781033208195
1265.8685390945266 4839.928097236146
1266.7080368817751 4923.433358506472
1267.5473286758115 5066.078002293359
1268.386414534294 4881.698600393315
1269.2252945148703 4717.397016635123
1270.0639686751547 4706.278346594319
1270.9024370727402 4749.37422750282
1271.7406997651997 4712.213682942448
1272.5787568100714 4639.088036223551
1273.4166082648808 4693.64547211332
1274.2542541871244 4825.744784504101
1275.091694634275 4923.293249929029
1275.9289296637817 4580.8528615452915
1276.7659593330663 4865.590580131539
1277.6027836995308 4762.917521533362
1278.4394028205552 4982.069035331673
1279.2758167534867 4728.693434642615
1280.112025555658 4725.868528454146
1280.9480292843746 4815.660408583574
1281.7838279969128 4569.926843448575
1282.6194217505326 4676.703639087782
1283.4548106024686 4650.339533081334
1284.289994609926 4655.613090489759
1285.1249738300921 4761.87086247154
1285.959748320127 4606.834411683519
1286.7943181371702 4731.475913721824
1287.6286833383328 4676.981387721866
1288.4628439807038 4770.220855996643
1289.2968001213521 4640.23052385274
1290.1305518173194 4694.33196184223
1290.9640991256183 4788.230577455132
1291.7974421032523 4558.430247320122
1292.630580807183 4564.198903360173
1293.463515294361 4728.435394684364
1294.29624562171 4821.000851105572
1295.12877184613 4686.369223696023
1295.961094024493 4674.394594393005
1296.79321221365 4781.464154170721
1297.6251264704333 4743.333081811248
1298.4568368516466 5042.716307045657
1299.2883434140658 4782.800487276617
1300.1196462144526 4615.1546931752755
1300.9507453095375 4832.9260024472915
1301.7816407560313 4760.978613901234
1302.6123326106172 4694.391415572259
1303.4428209299622 4589.857545567271
1304.2731057707024 4963.965817855012
1305.1031871894502 4710.823791623632
1305.933065242798 4861.0235067053245
1306.7627399873181 4797.060349628377
1307.5922114795467 5080.49081399264
1308.4214797760123 5037.9454779037405
1309.2505449332057 4744.683957199609
1310.0794070076026 4932.681199700435
1310.9080660556538 5022.991788649817
1311.736522133786 5088.188768846021
1312.5647752983987 4846.761006012622
1313.3928256058734 4703.962201294894
1314.2206731125661 4957.534022251637
1315.048317874809 5016.002014439075
1315.8757599489109 4862.358740359704
1316.7029993911547 4934.996421484802
1317.5300362578055 4988.092102055925
1318.356870605101 4715.98730290264
1319.183502489257 4773.178121111263
1320.0099319664623 4820.936942250163
1320.836159092889 4950.437715962822
1321.66218392468 4968.799700942169
1322.4880065179532 4721.049337645452
1323.3136269288134 4733.439349834654
1324.1390452133292 4974.132536612882
1324.9642614275563 5002.213621101852
1325.7892756275214 4781.37779351427
1326.6140878692295 4704.793258454953
1327.4386982086617 5154.835612404627
1328.2631067017755 4775.390759391542
1329.0873134045069 4783.8960076596795
1329.911318372764 4718.013932641148
1330.735121662441 4909.167381118979
1331.558723329399 4685.621060772111
1332.3821234294774 4643.9985714845225
1333.2053220185007 4717.564883897786
1334.0283191522612 4714.736043609673
1334.851114886529 4812.005964408216
1335.6737092770582 4607.469174080398
1336.4961023795695 4687.992614136736
1337.3182942497697 4601.1119802436715
1338.1402849433325 4713.39389333418
1338.962074515921 4490.206989450214
1339.7836630231632 4481.701538138999
1340.6050505206676 4973.034264011179
1341.426237064028 4869.006462140611
1342.2472227088037 4572.158329791281
1343.0680075105338 4466.125818915343
1343.888591524741 4647.054115914005
1344.7089748069138 4766.1184852044635
1345.5291574125276 4617.9849734967665
1346.3491393970307 4491.908885217427
1347.168920815846 4632.368868352698
1347.9885017243778 4774.044190906276
1348.8078821780036 4578.042456714965
1349.6270622320844 4534.0792343939265
1350.4460419419447 4511.3363526021585
1351.2648213629054 4659.885987125342
1352.0834005502438 4371.307094987627
1352.90177955923 4390.637804180103
1353.7199584451064 4677.336559109842
1354.5379372630887 4571.720827919837
1355.355716068374 4478.6263030926575
1356.1732949161305 4375.068477211133
1356.9906738615155 4526.004925974978
1357.8078529596478 4484.465281059333
1358.6248322656375 4624.535278956348
1359.441611834567 4380.046762235126
1360.2581917214866 4619.335066548947
1361.0745719814367 4518.675117554662
1361.890752669433 4399.8990619740725
1362.7067338404577 4386.26741652094
1363.5225155494845 4604.184873239302
1364.3380978514506 4742.604715149784
1365.1534808012839 4318.055658565112
1365.9686644538815 4293.746733825253
1366.783648864117 4619.358461893471
1367.5984340868417 4692.547674665746
1368.413020176893 4493.053269475304
1369.2274071890715 4273.44550473767
1370.0415951781652 4554.822841241459
1370.8555841989346 4445.674603912901
1371.6693743061223 4223.971098024358
1372.48296555444 4190.259468728495
1373.2963579985844 4486.580936016371
1374.1095516932255 4511.457013741356
1374.9225466930166 4187.697405301249
1375.7353430525782 4432.22923374086
1376.5479408265164 4331.768835715906
1377.36034006941 4460.33253793551
1378.1725408358216 4415.420339579287
1378.9845431802805 4192.960648590768
1379.796347157304 4584.937330243841
1380.6079528213813 4491.854615173663
1381.4193602269788 4170.475057316654
1382.230569428546 4329.977430055006
1383.0415804805016 4360.428555551809
1383.852393437246 4468.162968450903
1384.6630083531563 4424.626940493912
1385.4734252825892 4251.000231135544
1386.2836442798798 4278.6964095976555
1387.0936653993322 4338.6170065871065
1387.9034886952395 4295.206976049018
1388.713114221864 4287.1841860161385
1389.5225420334482 4449.827640402813
1390.331772184214 4215.3753191917185
1391.1408047283585 4126.210458033978
1391.9496397200564 4235.387273407979
1392.758277213461 4357.011939259899
1393.5667172627054 4465.708977188518
1394.3749599218918 4195.826631383121
1395.1830052451114 4087.736313498963
1395.9908532864265 4160.022281730297
1396.7985040998774 4479.934953347826
1397.6059577394808 4097.517684039977
1398.4132142592352 4162.293252605157
1399.2202737131156 4127.620829055444
1400.027136155073 4323.77075192563
1400.8338016390353 4102.16468495825
1401.6402702189134 4140.333077450523
1402.446541948586 4271.201009644616
1403.2526168819204 4082.9809422192484
1404.058495072757 4041.54565693293
1404.8641765749107 4208.613714933046
1405.6696614421799 4205.214890358552
1406.4749497283356 4544.596263259018
1407.280041487129 4064.674503609543
1408.084936772295 3911.305863370098
1408.8896356375335 4332.495702723525
1409.6941381365323 4240.176363320679
1410.498444322955 4064.4666521981626
1411.3025542504402 4099.492928737111
1412.106467972606 4090.7955413866957
1412.9101855430508 4313.908669967708
1413.7137070153458 3913.677810872202
1414.5170324430437 4090.924112780548
1415.320161879672 4204.026225865944
1416.1230953787435 4404.32924683461
1416.925832993742 3947.1036616603988
1417.7283747781275 3898.1212083784594
1418.5307207853439 4231.445355018466
1419.3328710688093 4194.07683337212
1420.134825681922 3772.445290141278
1420.9365846780584 3961.498302195227
1421.7381481105713 4269.271688316841
1422.539516032788 4109.808578989311
1423.3406884980232 3856.270987686022
1424.1416655595604 3895.5872414203723
1424.942447270665 3984.0655777956044
1425.7430336845828 4159.1650423726
1426.5434248545298 3859.9728611892547
1427.3436208337116 4076.514729415637
1428.143621675301 4069.0687951334085
1428.9434274324558 4271.612345209959
1429.7430381583108 3905.45527600034
1430.5424539059713 3979.7404788725516
1431.3416747285337 4363.280458137283
1432.1407006790632 4142.418908522029
1432.9395318106053 3922.769934798802
1433.7381681761835 3904.420532068284
1434.5366098288014 4080.616409386893
1435.3348568214424 4091.5308155476496
1436.1329092070573 3923.6572759725204
1436.9307670385879 4006.668651136556
1437.7284303689503 4084.711174060654
1438.5258992510335 4232.129872397972
1439.3231737377118 4024.0682489879932
1440.1202538818306 3972.5612890667044
1440.9171397362225 4050.2395088051153
1441.7138313536925 4050.2036654326594
1442.5103287870243 3920.8347302588254
1443.3066320889775 3893.3450295529155
1444.1027413122956 4032.0100509403082
1444.8986565096966 3967.784306220291
1445.694377733882 3949.6308891845306
1446.4899050375207 3794.24212283283
1447.2852384732687 3937.272995175038
1448.0803780937622 4054.5200920916345
1448.8753239516063 3830.369831051304
1449.6700760993954 3746.62233969247
1450.464634589689 3836.48083958448
1451.2589994750397 4239.800104615684
1452.0531708079689 3758.0681445273367
1452.8471486409799 3758.5008064326153
1453.6409330265524 4093.194408066981
1454.4345240171442 3826.2603981224083
1455.2279216651987 3785.5883816826777
1456.0211260231263 3804.4756994965633
1456.8141371433194 4017.4096482429572
1457.6069550781594 4067.2960207477563
1458.3995798799897 3627.307080402449
1459.1920116011424 3688.0872484915003
1459.98425029393 3645.5795732233687
1460.7762960106338 3635.5112808116246
1461.5681488035225 3797.527829020125
1462.3598087248392 3832.8020469621065
1463.1512758268036 4064.333141389856
1463.942550161617 3692.3122836033863
1464.7336317814625 3659.2018223807927
1465.524520738496 3803.4640137563038
1466.3152170848552 3676.3667325454053
1467.1057208726506 3740.7616261781304
1467.8960321539817 3655.4787753891733
1468.6861509809169 3601.554717333842
1469.4760774055085 3673.2683062770348
1470.265811479785 3696.241797108589
1471.055353255755 3559.0782515204237
1471.844702785409 3613.4107774566864
1472.6338601207044 3535.2286487296733
1473.4228253135934 3784.5287383354907
1474.2115984159936 3522.8992777398753
1475.0001794798063 3391.6393882948223
1475.7885685569145 3713.693137207066
1476.576765699172 3669.279211896314
1477.3647709584238 3511.24909725554
1478.1525843864802 3747.667359115727
1478.9402060351367 3713.665348499521
1479.7276359561693 3677.046164881496
1480.514874201328 3437.7227762611087
1481.3019208223468 3363.9144222746036
1482.0887758709323 3337.2111577210608
1482.8754393987747 3789.8474487594685
1483.6619114575406 3359.3847282543843
1484.4481920988783 3487.152234638891
1485.2342813744108 3672.5898397374085
1486.0201793357446 3767.1193254742707
1486.8058860344572 3475.403315127159
1487.591401522117 3517.9428830011084
1488.3767258502594 3544.5855962653973
1489.1618590704056 3598.0291548644864
1489.9468012340494 3167.2052636244634
1490.7315523926754 3656.386833040508
1491.5161125977356 3694.4869408868835
1492.3004819006637 3643.238618569855
1493.084660352877 3371.384649555451
1493.8686480057622 3654.2064252542564
1494.6524449106964 3795.9349598491253
1495.4360511190262 3848.8614905578797
1496.219466682087 3616.9699198261674
1497.0026916511779 3632.199219135543
1497.7857260775945 3650.4334070733976
1498.5685700125996 3660.901651628936
1499.3512235074395 3356.5260879350076
1500.133686613337 3429.166976999614
1500.9159593814966 3500.761179109323
1501.698041863101 3965.351830475943
1502.4799341093094 3327.7333303763908
1503.2616361712662 3369.2060367580198
1504.043148100087 3550.399758401538
1504.8244699468742 3605.7782873877886
1505.6056017626997 3332.737998070124
1506.3865435986281 3330.5756252258107
1507.1672955056893 3546.3483610571916
1507.9478575348967 3401.4965530988725
1508.7282297372512 3650.5187437951727
1509.5084121637192 3453.3097852285186
1510.2884048652577 3509.3273421438216
1511.0682078927948 3441.426921391302
1511.8478212972423 3427.652689701189
1512.6272451294917 3318.7469859426956
1513.4064794404076 3488.7939396792135
1514.1855242808433 3602.1955106633154
1514.9643797016215 3446.770164710854
1515.743045753552 3558.184164408283
1516.5215224874191 3587.616225756467
1517.2998099539836 3231.29974625022
1518.077908203999 3450.4276181382365
1518.8558172881785 3303.8018281940067
1519.633537257234 3499.3398540627277
1520.4110681618404 3590.9943008589426
1521.1884100526604 3451.461932703346
1521.9655629803365 3367.3995369994664
1522.7425269954856 3600.075361292113
1523.5193021487103 3717.368203881192
1524.2958884905856 3290.116751188122
1525.0722860716687 3338.5447367675733
1525.848494942502 3388.8290583566754
1526.624515153595 3430.5276041647608
1527.4003467554485 3354.2800869534885
1528.175989798534 3528.7648208261344
1528.9514443333064 3485.6511897361765
1529.726710410203 3566.804792239117
1530.5017880796331 3285.154637464072
1531.276677391992 3377.2835138636437
1532.0513783976457 3699.5630574309325
1532.825891146953 3399.3333522194844
1533.6002156902414 3543.359568556533
1534.3743520778207 3395.2188647067987
1535.1483003599806 3499.198676910963
1535.9220605869923 3424.589096505687
1536.6956328091019 3470.1403482688816
1537.4690170765407 3330.7183113890233
1538.242213439511 3531.67387761984
1539.015221948208 3412.9235606453085
1539.78804265279 3263.6325127218124
1540.560675603405 3268.232124722805
1541.3331208501804 3627.9146559449596
1542.1053784432224 3657.399347622414
1542.8774484326168 3438.79565404215
1543.649330868422 3430.454325981563
1544.4210258006842 3498.780169654861
1545.1925332794308 3459.925289791994
1545.9638533546604 3411.2188673881938
1546.7349860763552 3265.7918664580075
1547.5059314944829 3641.5588306173267
1548.27668965898 3404.476364690034
1549.0472606197673 3456.027222584654
1549.817644426752 3267.374715652043
1550.5878411298072 3620.3491063028814
1551.3578507787988 3481.6617383508683
1552.1276734235635 3267.7978958920285
1552.8973091139233 3422.6068653890497
1553.6667578996767 3623.729777762414
1554.436019830604 3316.63004301579
1555.20509495646 3340.467836937988
1555.9739833269869 3367.990863277896
1556.7426849919011 3350.4332270823347
1557.511200000903 3728.261957154909
1558.2795284036674 3396.2333166030985
1559.0476702498509 3349.52215982213
1559.8156255890954 3529.8092687198355
1560.5833944710157 3764.3920179638276
1561.3509769452048 3306.616784901412
1562.1183730612447 3479.6267882948473
1562.8855828686865 3433.7483285796056
1563.6526064170703 3721.7492680800256
1564.4194437559127 3551.566116327079
1565.1860949347047 3400.282205443953
1565.9525600029283 3704.1824927465154
1566.7188390100328 3803.9893007730984
1567.4849320054564 3302.7099484934124
1568.250839038612 3437.8109772275775
1569.0165601588997 3484.4346616037737
1569.7820954156887 3580.336006387387
1570.5474448583373 3428.2486920546216
1571.31260853618 3381.875008474507
1572.0775864985299 3291.0156950478363
1572.8423787946813 3523.222135195071
1573.6069854739108 3340.4240754873617
1574.371406585471 3414.849877134203
1575.1356421785986 3581.389694378511
1575.899692302506 3356.4901674706425
1576.6635570063845 3463.277434945736
1577.4272363394157 3380.8700564908504
1578.190730350747 3364.599859762183
1578.9540390895163 3548.9923690028672
1579.7171626048384 3082.8706055299604
1580.480100945806 3298.244921741572
1581.2428541614918 3288.239172876403
1582.0054223009538 3457.8268083642783
1582.767805413223 3350.4252547227043
1583.5300035473156 3317.6225883712914
1584.292016752228 3640.195716933404
1585.0538450769309 3516.775795655735
1585.8154885703807 3277.268926882254
1586.5769472815136 3198.618650180782
1587.3382212592405 3411.595848238314
1588.099310552463 3509.4828498111237
1588.8602152100484 3403.4607112804306
1589.6209352808564 3447.048070499762
1590.3814708137234 3374.4134796135418
1591.14182185746 3430.554318636924
1591.9019884608679 3251.847621191564
1592.6619706727215 3241.4302497824915
1593.4217685417734 3449.039601085425
1594.1813821167616 3669.3942643028968
1594.9408114464022 3209.2416558216632
1595.7000565793933 3306.9064287518363
1596.459117564409 3438.3804077030923
1597.2179944501113 3321.5711785608605
1597.9766872851324 3236.459592736862
1598.735196118092 3537.1699323439184
1599.4935209975883 3409.3736459175425
1600.2516619721973 3654.055835872355
1601.0096190904787 3252.542604441266
1601.7673924009723 3266.691826884074
1602.524981952196 3229.016371198317
1603.2823877926476 3257.6783486036684
1604.0396099708087 3228.9733106535255
1604.7966485351371 3204.0402164015513
1605.5535035340745 3297.557495374979
1606.3101750160404 3515.1245581648486
1607.0666630294363 3226.9889912161884
1607.822967622642 3130.7429140506565
1608.5790888440224 3306.2337663589337
1609.3350267419137 3442.3254949519096
1610.0907813646445 3227.887087881997
1610.8463527605145 3195.0588802686716
1611.601740977805 3488.017917154346
1612.356946064785 3118.210934061817
1613.1119680696902 2931.669358231178
1613.8668070407512 3193.251372289684
1614.6214630261748 3201.7220065713914
1615.375936074137 3353.686301652331
1616.1302262328118 3244.15009401113
1616.8843335503425 3261.9156361795494
1617.638258074854 3118.52286713637
1618.391999854457 3319.3170425578346
1619.1455589372363 3269.8178889137666
1619.8989353712623 3188.8890897711312
1620.65212920458 3007.432766948179
1621.4051404852235 3162.316960939922
1622.1579692611976 3214.2543118500557
1622.9106155804966 3013.5701428565267
1623.663079491087 3196.288734101269
1624.4153610409248 3252.0635079108274
1625.1674602779385 3034.6842455218
1625.9193772500403 2932.976322273524
1626.6711120051277 3441.04500324619
1627.4226645910676 3280.5920591831245
1628.174035055721 2916.2393531249845
1628.9252234469168 3213.4784885805902
1629.676229812474 3105.939443452942
1630.4270542001905 3581.209863155104
1631.1776966578382 3141.154655529799
1631.9281572331747 3087.3654260723642
1632.678435973945 3298.86228349192
1633.4285329278573 3186.9553304644865
1634.1784481426203 2921.7693711316397
1634.9281816659113 3127.7029206909165
1635.677733545388 3314.1438104290137
1636.4271038286934 3057.9792970786502
1637.176292563452 3224.905611100573
1637.9252997972635 3118.1724670589465
1638.674125577716 3170.8410198322463
1639.4227699523672 3557.9758584703864
1640.171232968767 2827.45750348534
1640.9195146744423 3114.3965327947935
1641.6676151168977 3331.815763235941
1642.4155343436178 3319.86686952385
1643.1632724020765 3129.39597692629
1643.9108293397167 3080.1194038867775
1644.658205203974 3029.046990344053
1645.4054000422566 3010.3368434136764
1646.1524139019566 2991.356933706208
1646.8992468304423 2875.2480177711996
1647.6458988750728 3046.1389788722217
1648.3923700831765 3021.8120829279296
1649.1386605020743 3008.6898684417356
1649.8847701790564 3306.833477954745
1650.6306991614038 3125.638101268693
1651.3764474963682 3254.561358052691
1652.1220152311944 2807.62260917872
1652.867402413096 3280.117533899909
1653.6126090892776 3170.6941752671714
1654.3576353069184 3379.272578412215
1655.1024811131829 3100.96159580143
1655.8471465552066 3003.1603119150723
1656.5916316801213 3228.5681818823577
1657.3359365350298 3146.389609724457
1658.0800611670165 2974.869714356828
1658.824005623148 3246.416126444756
1659.5677699504722 2994.4552820406143
1660.3113541960192 3217.2242330009785
1661.054758406799 3041.173113321725
1661.7979826297997 2975.6414946396235
1662.5410269119966 2945.7252515836526
1663.283891300338 3156.5981724079343
1664.0265758417645 2890.1487816376575
1664.7690805831826 3007.877682347281
1665.5114055714948 3293.984713743591
1666.2535508535748 3487.72906719389
1666.9955164762814 2857.5848039539146
1667.7373024864555 3077.733373881586
1668.478908930916 3107.7973438417544
1669.220335856462 2943.803717708158
1669.9615833098778 2866.1383796193345
1670.7026513379296 3025.8085107248694
1671.44353998736 3124.5117253214953
1672.1842493048916 3072.521480973459
1672.9247793372379 2979.33742261249
1673.6651301310812 3048.875944682126
1674.4053017330934 2902.5246193881217
1675.1452941899242 3211.2505606169693
1675.885107548207 2585.851736576677
1676.6247418545518 2725.2876383575053
1677.3641971555535 2850.582715210265
1678.1034734977893 3134.4820977136364
1678.8425709278108 2898.089114627775
1679.5814894921605 2978.708900078874
1680.320229237359 3067.1686304967543
1681.0587902098978 3082.9137503955417
1681.7971724562685 2846.556594114113
1682.5353760229264 2797.168454953939
1683.2734009563173 3077.903346724615
1684.0112473028657 2730.6463537186487
1684.7489151089794 2902.0275903982647
1685.4864044210462 3038.3152991353354
1686.2237152854377 2624.8365902321793
1686.960847748498 3088.3842101711534
1687.6978018565642 2647.8263486394203
1688.434577655944 2682.7376800916786
1689.1711751929379 2699.6749877683837
1689.9075945138156 2893.8234771508805
1690.6438356648396 2698.1162928188587
1691.3798986922448 2515.8021181570766
1692.1157836422499 2802.551775082336
1692.851490561059 2657.5971808113854
1693.587019494853 2828.5947688453602
1694.3223704897991 2519.635851984412
1695.0575435920364 2376.5469085233162
1695.792538847696 2950.9981327285664
1696.527356302886 2565.2200758205445
1697.2619960036936 2380.7779642318274
1697.9964579961907 2514.3002375332117
1698.730742326432 2234.6241166383143
1699.4648490404488 2396.1296998160524
1700.1987781842563 2585.6934732616055
1700.9325298038548 2716.897861691156
1701.6661039452174 2784.5109746309763
1702.3995006543082 2467.8025412387096
1703.1327199770658 2570.779267564285
1703.865761959416 2424.931533363692
1704.598626647261 2815.0616633021405
1705.3313140864866 2467.0655630160204
1706.0638243229587 2507.492320252291
1706.7961574025303 2604.8017373240023
1707.528313371029 2556.892225840154
1708.260292274268 2335.992986054003
1708.9920941580403 2501.120048773767
1709.7237190681226 2497.6828427749283
1710.4551670502697 2503.6891708726216
1711.18643815022 2222.278070429894
1711.9175324136959 2313.1695277347126
1712.6484498863938 2404.216251626862
1713.379190614005 2203.9815188020357
1714.109754642188 2353.261166520123
1714.8401420165883 2317.97045631615
1715.570352782839 2902.1393580533286
1716.3003869865497 2553.483088819119
1717.0302446733076 2292.88065593182
1717.7599258886876 2382.1844753521445
1718.4894306782444 2748.4428502821615
1719.2187590875183 2182.4600235401795
1719.9479111620203 2582.7320721696497
1720.6768869472544 2280.435752159392
1721.4056864887025 2729.405859916446
1722.1343098318284 2738.512498299795
1722.8627570220742 2428.8668851454927
1723.591028104871 2247.782317833241
1724.3191231256242 2145.2115860984286
1725.0470421297232 2342.3690376628106
1725.7747851625427 2441.830675117923
1726.5023522694337 2472.7098350641145
1727.2297434957363 2346.002626621138
1727.9569588867635 2203.2204031821684
1728.6839984878152 2168.875617115019
1729.4108623441734 2134.5926043250493
1730.1375505011038 2466.6372772463856
1730.8640630038426 2256.9862456379747
1731.5903998976264 2243.9290663376128
1732.316561227657 2421.1526204923352
1733.0425470391274 2170.7824863233695
1733.7683573772065 2488.2910894633524
1734.4939922870508 2339.3489512139345
1735.2194518137949 2494.992629735172
1735.9447360025606 2384.3400719782585
1736.669844898439 2289.2774584426297
1737.3947785465189 2118.304765034214
1738.1195369918605 2136.224551801114
1738.8441202795093 2384.0596028540135
1739.5685284544943 2437.8098071314375
1740.292761561821 2382.797579502344
1741.0168196464838 2474.645678366497
1741.7407027534518 2452.3724190395797
1742.464410927687 2451.555763965586
1743.187944214118 2315.000632829261
1743.9113026576688 2249.793453248909
1744.634486303241 2248.4138895431124
1745.3574951957125 2201.049011168529
1746.0803293799509 2396.9713779097415
1746.8029889008048 2300.6221657295787
1747.5254738031017 2375.3757740447636
1748.2477841316504 2244.2065081718806
1748.969919931249 2265.781906839566
1749.6918812466665 2306.7282838578294
1750.4136681226646 2520.431643972599
1751.1352806039777 2357.9162193648544
1751.856718735331 2017.4558736895312
1752.5779825614281 2129.953033993814
1753.2990721269507 2395.1857563376725
1754.0199874765676 2393.2430224814134
1754.7407286549314 2063.918676355751
1755.4612957066693 2157.4110762745995
1756.1816886763954 2214.9774365083076
1756.9019076087097 2298.9737993297813
1757.6219525481865 2288.1848548713942
1758.3418235393856 2320.9443490141516
1759.061520626854 2254.071099625815
1759.7810438551096 2542.7007747629814
1760.5003932686614 2101.735261467874
1761.2195689119999 2434.4201916231596
1761.938570829594 2357.9338546692297
1762.657399065898 2304.2741739678927
1763.376053665348 2008.764402450644
1764.0945346723602 2073.838937447516
1764.812842131334 2414.509522515567
1765.5309760866512 2142.5453307523335
1766.2489365826787 2110.592986677896
1766.9667236637597 2239.602175674656
1767.684337374223 1964.684003949619
1768.401777758383 2018.8908927748423
1769.1190448605284 2053.5077280287396
1769.836138724937 1963.8964728457163
1770.5530593958665 2250.8277065143675
1771.2698069175603 2547.1450642086998
1771.9863813342326 2316.310535807219
1772.702782690094 2218.5340758796315
1773.4190110293293 2330.6821831274437
1774.1350663961111 2248.3219147961795
1774.8509488345844 2117.7444932546346
1775.5666583888924 2156.0779604997397
1776.2821951031437 2422.886245117147
1776.9975590214362 2198.256454541111
1777.7127501878585 2312.6106690917077
1778.4277686464684 2213.4124564249096
1779.1426144413108 2364.2239604650167
1779.8572876164162 2346.9996329741457
1780.571788215797 2018.403312624248
1781.2861162834415 2222.860595141481
1782.0002718633277 2092.3502123631433
1782.7142549994132 2351.2783198304423
1783.4280657356376 2247.1423684514402
1784.141704115922 2167.681952646007
1784.855170184177 2151.7106020626297
1785.5684639842839 2281.8113465109427
1786.2815855601148 1897.7822779856676
1786.9945349555237 2274.562735268288
1787.707312214343 1973.43336564335
1788.4199173803918 1995.7115996427797
1789.132350497468 2018.2017873075492
1789.8446116093583 2118.4543994171395
1790.556700759822 2092.2722158677193
1791.2686179926077 2090.528796705211
1791.9803633514493 2139.3242158512294
1792.6919368800554 1938.6537407166634
1793.4033386221236 2314.707485162651
1794.1145686213295 2337.631861486033
1794.8256269213307 2306.56422278981
1795.536513565774 2201.6921959016945
1796.247228598284 1926.0571748731825
1796.9577720624693 2024.0836027292219
1797.6681440019165 2216.765337413981
1798.3783444602013 2157.294334494888
1799.0883734808776 2317.4057419088026
1799.7982311074884 2176.9537697111027
1800.5079173835475 2158.1673199316783
1801.2174323525633 2339.752016666715
1801.9267760580187 2120.9382938021545
1802.635948543386 2135.59090601846
1803.3449498521113 1974.8797282682863
1804.0537800276325 2234.2682342560806
1804.7624391133668 2102.344729903364
1805.47092715271 1824.4670555026423
1806.1792441890484 1966.5894745242385
1806.8873902657433 2279.8473842593667
1807.5953654261448 2176.852266268635
1808.3031697135812 2040.5113126275614
1809.0108031713662 2028.672168670027
1809.71826584279 2028.4182788977312
1810.425557771141 1991.4593593679706
1811.1326789996747 2007.6577021214375
1811.839629571632 2023.7648061340528
1812.5464095302468 2075.63643128529
1813.2530189187182 2099.936925662121
1813.959457780249 2104.1687211867484
1814.6657261580076 2348.840506545818
1815.371824095153 2080.862033253562
1816.0777516348262 2323.2842904829695
1816.78350882015 1816.057359158509
1817.4890956942272 1906.4801934379525
1818.1945123001533 2088.2830868900155
1818.8997586809928 2051.7656541476777
1819.6048348798067 1958.2390416032474
1820.3097409396287 2121.0971926362336
1821.0144769034796 2477.7993129228225
1821.7190428143622 2211.246647180159
1822.423438715261 2178.547013824685
1823.1276646491478 2118.8269260856096
1823.8317206589727 2099.2845164943606
1824.5356067876692 2143.506865389999
1825.2393230781581 2082.6488047567163
1825.942869573335 1896.489095651589
1826.646246316086 1882.6041241579642
1827.3494533492758 2080.6448605012347
1828.052490715756 2077.780480844531
1828.7553584583547 2033.7378963917024
1829.458056619891 2148.794257324682
1830.1605852431585 2062.790228432127
1830.8629443709433 1831.1129306038933
1831.5651340460063 2031.5748757353867
1832.2671543110919 1938.1356537655763
1832.9690052089318 2155.941047487982
1833.6706867822395 1843.3229672553703
1834.3721990737104 2119.1103153595823
1835.0735421260233 2262.89855542686
1835.774715981841 1966.5218949790228
1836.4757206838058 2271.3955272942403
1837.1765562745459 1928.659802058007
1837.8772227966747 1837.7982646401592
1838.5777202927839 2090.366705978455
1839.2780488054523 1983.423567309499
1839.9782083772352 1858.278861930204
1840.6781990506806 1923.470649860225
1841.378020868313 1988.7661275671078
1842.0776738726418 2002.5817201038783
1842.777158106157 1813.6619976312184
1843.4764736113375 1858.5655938740717
1844.1756204306403 2119.963504094573
1844.8745986065078 2159.0598241394828
1845.5734081813607 1832.6688560368086
1846.2720491976124 1960.2355502937571
1846.970521697649 1971.2087368960806
1847.6688257238511 2088.1537503169325
1848.3669613185684 1966.2873158532766
1849.0649285241452 1778.1463288883162
1849.7627273829057 2054.3895434324286
1850.460357937156 2027.9726347038286
1851.1578202291857 1627.236933479986
1851.8551143012664 2018.4779381870019
1852.5522401956569 1995.8477027842978
1853.2491979545957 2157.036771717462
1853.9459876203055 1833.804073202081
1854.6426092349902 1849.2729999824096
1855.3390628408451 1943.463117704833
1856.0353484800362 2345.0962838765763
1856.7314661947203 2028.254639222608
1857.4274160270397 1767.1576068744064
1858.123198019115 2040.9512565213456
1858.8188122130487 1779.4793231117299
1859.5142586509319 1940.241849016595
1860.209537374838 2025.83169978591
1860.9046484268183 1841.7544741536617
1861.599591848917 2295.4295104831695
1862.294367683151 2062.5769456133594
1862.988975971528 1933.6696502842965
1863.6834167560355 2039.4542371899163
1864.3776900786452 2267.259883328866
1865.0717959813119 1921.2409454048677
1865.7657345059724 1801.4366325666524
1866.4595056945564 2020.0367704578002
1867.1531095889586 2138.6224304750417
1867.846546231076 2201.543000365535
1868.5398156627743 2264.6358039181673
1869.2329179259123 1946.1883560881265
1869.9258530623283 2184.427378620914
1870.618621113843 1785.5235065591544
1871.3112221222636 1856.303079254368
1872.0036561293764 1903.423180584173
1872.695923176956 1999.7934331021497
1873.3880233067594 2149.0659534026504
1874.0799565605212 1758.0806582509545
1874.7717229799673 1920.648035436773
1875.4633226068036 2308.326000757778
1876.1547554827175 2011.071658667497
1876.8460216493859 1980.91892848512
1877.5371211484617 1938.3434202819456
1878.2280540215852 2172.536942226399
1878.9188203103804 1781.2231992329307
1879.6094200564548 1989.9213776453678
1880.299853301396 1816.7946331104176
1880.9901200867826 2139.3609725672513
1881.6802204541673 1964.2616133915617
1882.3701544450942 2027.8988247310558
1883.059922101087 1703.0104972557608
1883.7495234636517 1799.415357072155
1884.4389585742792 1895.9236140271755
1885.1282274744517 1901.6510807504878
1885.8173302056166 1998.3220222116756
1886.506266809225 2095.12510266777
1887.195037326701 1750.1287039642466
1887.8836417994517 1946.1247663329923
1888.5720802688702 2260.466379031878
1889.260352776333 2089.4612915326716
1889.9484593632042 2186.8849400530335
1890.63640007082 1787.133703830987
1891.3241749405151 1819.9753147317176
1892.0117840135954 1999.212201580868
1892.6992273313572 1934.3990808998497
1893.3865049350788 1726.5025606410406
1894.0736168660223 2304.707103017742
1894.7605631654333 2039.9240342932965
1895.4473438745408 2168.475140738059
1896.133959034556 1781.2542783467543
1896.820408686679 1936.6769481743202
1897.506692872088 2293.5738619187764
1898.192811631945 1937.1313013650683
1898.8787650073991 1813.5186004950124
1899.5645530395832 2045.2935010265169
1900.2501757696118 2080.1593086634484
1900.9356332385796 1725.725330976126
1901.620925487574 2224.839918310644
1902.3060525576602 1990.9311959640931
1902.9910144898859 2056.4457054368227
1903.6758113252872 1733.0813283977266
1904.3604431048789 1957.0263426489776
1905.0449098696663 2051.2099150220683
1905.7292116606295 1870.1376278640212
1906.4133485187394 1737.054614214784
1907.0973204849488 1603.648216410685
1907.7811276001976 1766.4314282712207
1908.4647699053967 1923.084037207122
1909.1482474414588 1912.1614289869326
1909.8315602492694 1901.1245930183018
1910.5147083696957 2098.5069543835625
1911.1976918436012 1844.650550286481
1911.880510711815 1803.7758742257186
1912.5631650151681 1785.7847431843002
1913.2456547944657 1767.7181582867026
1913.927980090495 1842.7441167237198
1914.6101409440362 1822.8233698305728
1915.2921373958416 2178.765968856035
1915.9739694866603 1913.2735746102765
1916.655637257214 2292.0707965421375
1917.3371407482136 2005.9490047906238
1918.0184800003572 2156.5900795929365
1918.6996550543154 2057.1172379375143
1919.3806659507554 1939.7911598837595
1920.0615127303208 1896.4640611699458
1920.7421954336423 2174.3291030671553
1921.4227141013343 2284.2324433061867
1922.103068773993 1872.6397673418542
1922.783259492202 2237.370813146131
1923.4632862965227 1870.0776458769828
1924.1431492275078 1888.9422609625367
1924.8228483256917 1700.0990437189016
1925.5023836315922 1845.8964215499032
1926.1817551857057 2004.1201086961057
1926.8609630285227 1701.2165927387991
1927.5400072005123 1888.7144271060442
1928.218887742125 1870.7729456935915
1928.8976046938005 1772.3614266092009
1929.5761580959588 2009.5487207588806
1930.2545479890086 2012.7089533832793
1930.9327744133352 1620.3344939253
1931.6108374093164 1987.3123440867694
1932.2887370173066 2262.845450764451
1932.9664732776473 2085.3465888367346
1933.6440462306673 1907.364698291732
1934.3214559166754 1893.3746778341033
1934.9987023759659 2275.744065497006
1935.675785648813 2110.465169000009
1936.3527057754836 2264.8395492590485
1937.029462796223 2419.561695492882
1937.70605675126 1872.0179797031167
1938.3824876808085 1656.2546750179765
1939.058755625072 1821.9154563876102
1939.7348606242267 1901.2239508971875
1940.4108027184448 1853.7826950409483
1941.0865819478713 1753.1945499713754
1941.7621983526478 1652.3646930430582
1942.4376519728921 1708.8401252071653
1943.1129428487038 1910.1995013377411
1943.7880710201734 2035.1715968416108
1944.4630365273733 1989.3113038896176
1945.1378394103576 1743.2046513611324
1945.8124797091714 1675.634744761364
1946.4869574638324 1607.8720848690919
1947.161272714353 1753.1426090544269
1947.8354255007234 1912.160037078209
1948.5094158629272 1776.6454301872814
1949.1832438409183 1963.9795204867496
1949.8569094746435 2070.310910136948
1950.530412804037 2126.432620425688
1951.2037538690092 2012.9007691427673
1951.8769327094578 1809.8234843406194
1952.5499493652678 1750.1536322751072
1953.222803876306 2170.7046385541735
1953.895496282421 2047.800298680013
1954.5680266234522 2018.099912977498
1955.2403949392155 2023.3548831075627
1955.9126012695142 1699.9195963554344
1956.5846456541403 1805.4081015090728
1957.2565281328643 1883.714683043676
1957.9282487454457 1990.519947191577
1958.5998075316202 2069.201674303452
1959.27120453112 1695.9990770536817
1959.9424397836501 1850.122377274798
1960.613513328908 2058.4240047529997
1961.2844252065697 2134.6236291276427
1961.9551754563017 1684.712491150137
1962.6257641177453 1695.7697376729411
1963.29619123054 1511.1329959810848
1963.966456834296 1705.873211170263
1964.6365609686181 1632.0846236424695
1965.306503673086 1995.4090067070472
1965.976284987275 1726.4931374403782
1966.645904950734 1807.2201267078508
1967.315363603002 1624.6212952584556
1967.9846609836077 1778.2541679547346
1968.6537971320486 1859.865665722263
1969.3227720878222 1921.7057116799156
1969.9915858904042 1923.2988696307461
1970.660238579252 1971.3695103642287
1971.3287301938108 1813.009937334256
1971.997060773514 1765.4447269782409
1972.665230357772 1575.54641028316
1973.3332389859843 1804.4578569548212
1974.0010866975335 1604.7470192541286
1974.6687735317864 1742.0383322270907
1975.3362995280932 1959.9848605717375
1976.003664725793 1893.0443920831917
1976.6708691642052 1569.3165140610104
1977.3379128826364 1720.6332619342404
1978.004795920373 1977.5723171776415
1978.6715183166925 1705.238281796134
1979.3380801108524 2026.6806005704475
1980.0044813420973 1763.5829227954073
1980.6707220496555 1497.2620667895746
1981.3368022727373 1822.9629911436477
1982.0027220505417 1910.4164313754404
1982.66848142225 1474.9112099294628
1983.3340804270283 1510.3756574827896
1983.999519104027 1840.689297164295
1984.6647974923835 1863.62710574155
1985.329915631215 1965.9445823439285
1985.99487355963 1797.9371136590023
1986.6596713167146 2073.3479365585436
1987.3243089415428 1822.3624175753084
1987.9887864731754 1986.2458189920562
1988.6531039506553 1653.9504219073683
1989.3172614130071 1647.2850439027904
1989.9812588992481 1640.634084514361
1990.645096448372 1517.6603152665873
1991.3087740993633 1883.5597539627383
1991.9722918911848 1781.9178377517958
1992.635649862792 1859.6645164723202
1993.2988480531185 1903.0714870703825
1993.9618865010852 1818.0501159446915
1994.6247652455968 1732.9373817113737
1995.287484325545 1630.9269390957645
1995.9500437798033 1708.2420467736779
1996.6124436472292 1665.334355694103
1997.2746839666706 2003.6279094831934
1997.936764776954 1814.6823709396085
1998.598686116895 1834.283453072975
1999.2604480252903 2044.693691039124
1999.9220505409212 1994.6519245228271
2000.5834937025593 1558.8382549679059
2001.2447775489582 1871.2421706234763
2001.9059021188514 1894.63856087285
2002.5668674509616 1689.0222160767983
2003.2276735839987 1772.8717581742246
2003.8883205566508 2072.540142134326
2004.5488084075987 1763.9670949660674
2005.2091371755014 1831.3510050080731
2005.8693068990033 1534.687271789824
2006.5293176167397 1603.7532312074234
2007.1891693673224 1673.081643914237
2007.848862189354 1517.0334251920724
2008.5083961214223 1702.5025644247976
2009.1677712020955 1621.2736942265096
2009.8269874699254 1618.0415240062925
2010.4860449634598 1602.390670433474
2011.1449437212177 1586.7932515672837
2011.8036837817108 1995.618451815358
2012.4622651834325 1874.9899911151929
2013.1206879648653 1961.656103560625
2013.7789521644736 2043.383019400309
2014.4370578207036 1962.9086221531102
2015.0950049719922 1882.1634512655503
2015.7527936567585 1917.6731281522402
2016.4104239134067 1771.5468400656714
2017.067895780323 2243.7309873564964
2017.725209295886 2210.8635058898863
2018.3823644984514 2177.8506787533433
2019.0393614263648 1908.9054137736384
2019.6962001179545 1712.5928705368347
2020.3528806115355 2048.2622284955596
2021.0094029454067 1743.8971753972178
2021.6657671578487 1554.067784428908
2022.321973287133 1812.934294253578
2022.9780213715148 1672.0647343699852
2023.6339114492293 1580.2112179017402
2024.2896435585026 1738.4890125919305
2024.9452177375442 1709.0480725166526
2025.600634024544 2038.5277378460748
2026.2558924576842 1783.9462707233768
2026.9109930751292 1948.1785973559872
2027.565935915025 1726.1739226125435
2028.2207210155066 2053.6457438530347
2028.8753484146964 2234.327208598774
2029.529818150695 2154.717301935534
2030.1841302615903 2074.71022724133
2030.8382847854573 1669.3057755774637
2031.4922817603601 1785.414755172294
2032.1461212243357 1739.5219667786537
2032.7998032154192 1491.5281929946868
2033.4533277716218 1755.4286288556948
2034.1066949309443 1588.954143548447
2034.7599047313688 1548.5026262414403
2035.4129572108704 1813.8306366003594
2036.0658524074006 1750.2200983927382
2036.7185903589016 1826.5070828245764
2037.3711711032956 1813.6495567191844
2038.023594678496 1799.8051511099686
2038.675861122394 1672.2849987752015
2039.3279704728757 1642.5816241670407
2039.9799227678031 1612.9616634305019
2040.6317180450278 1797.9763348640925
2041.2833563423865 1714.7810536350457
2041.9348376977014 2086.1211453842666
2042.5861621487784 1920.5995488119363
2043.2373297334088 1945.1358022337474
2043.8883404893695 1815.5801677103882
2044.5391944544208 2127.864612024306
2045.1898916663158 1991.13534390022
2045.8404321627804 2090.0430149099766
2046.4908159815368 1673.9218819930713
2047.1410431602853 1704.0880194384404
2047.7911137367173 1571.6506293210837
2048.441027748504 1610.5686193582067
2049.090785233302 1649.4642432923745
2049.7403862287592 1669.2830741574176
2050.389830772503 1975.488091398792
2051.0391189021466 1714.6699676764686
2051.688250655294 1781.907884488694
2052.337226069527 1482.6623922649937
2052.986045182417 1867.4801503293318
2053.634708031521 1860.4569533826113
2054.283214654375 1853.5478824717563
2054.931565088511 1454.6114154061931
2055.579759371436 1433.2949460013756
2056.2277975406523 1745.290852894495
2056.8756796336384 1643.0819294575842
2057.5234056878617 1540.5247140746803
2058.1709757407752 1653.3391118371433
2058.8183898298194 2082.0214009322444
2059.465647992416 1927.263043993144
2060.1127502659747 2026.1055272696328
2060.759696687888 1953.2262974909147
2061.4064872955405 1880.3498953275462
2062.053122126292 2016.6534046609308
2062.699601217497 1777.302701961211
2063.345924606485 1537.9493029081002
2063.992092330587 1717.7024412948801
2064.638104427102 1870.4228919163913
2065.283960933324 1624.2541148248665
2065.92966188653 1785.6470897054483
2066.5752073239855 1990.9380978326571
2067.2205972829397 1886.6545008959006
2067.86583180062 1782.2922207441175
2068.5109109142522 1609.0223816060027
2069.15583466104 1528.381451380223
2069.8006030781708 1447.6670305464918
2070.445216202821 1718.3624273395733
2071.089674072153 1988.1508309988997
2071.7339767233116 1935.4550806145598
2072.3781241934303 1785.7485864234393
2073.0221165196253 1869.9388424660551
2073.6659537390024 1540.8528655874406
2074.3096358886505 1941.654651179818
2074.953163005637 1740.435741910455
2075.596535127028 1482.9560362545303
2076.2397522898664 1562.8986695872015
2076.882814531182 1774.689057887581
2077.5257218879924 1758.6348513217442
2078.1684743973 1450.0551304145993
2078.8110720960885 1483.0912492774146
2079.453515021336 1605.1374880702065
2080.095803209997 1727.2816785780146
2080.7379366990135 1751.204650605409
2081.37991552532 1969.505471107636
2082.0217397258275 1993.506732975619
2082.6634093374414 1878.8081144778832
2083.3049243970418 1764.0640342195577
2083.9462849415067 1808.9677704279202
2084.587491007689 1806.7762868513678
2085.2285426324324 1685.80608029948
2085.869439852564 1664.1080221223692
2086.510182704902 1559.1574046823666
2087.1507712262483 1639.228699095851
2087.791205453381 1425.1520461150224
2088.4314854230743 1898.2346536544542
2089.0716111720867 1769.8251792738715
2089.7115827371617 1472.8230343366035
2090.351400155023 1499.6660591827833
2090.991063462385 1526.6329973019365
2091.6305726959527 1453.5863193133732
2092.2699278924047 1522.686748531042
2092.9091290884153 1591.9902933343535
2093.548176320641 1553.9999011552459
2094.187069625721 1891.3611276405766
2094.8258090402887 1937.9278779304054
2095.464394600951 1984.5991973777582
2096.102826344313 1763.8420632907776
2096.741104306955 1627.7734548679823
2097.379228525453 1491.4053713227167
2098.017199036358 1308.225089883915
2098.6550158762147 1555.9996029400143
2099.2926790815527 1804.3022483530046
2099.9301886888825 1686.9482494293545
2100.5675447347076 1740.7729812090038
2101.2047472555114 1826.6605355107354
2101.841796287761 1674.5588160100604
2102.47869186792 1823.4392712811812
2103.1154340324265 1654.4100853736848
2103.752022817709 1886.8385952652047
2104.388458260184 1744.907879922308
2105.024740396251 1659.8708583709958
2105.660869262292 1596.135383281005
2106.296844894685 1628.4095756666115
2106.93266732978 1660.797855407461
2107.5683366039284 1547.8752794592804
2108.2038527534532 1679.1917447685587
2108.8392158146726 1872.0595775411305
2109.4744258238843 1648.557709311512
2110.1094828173755 1728.8554218789577
2110.744386831422 1952.72478182938
2111.3791379022787 1734.5772288227167
2112.01373606619 1982.036470597445
2112.648181359389 1828.6608293640431
2113.28247381809 1869.7936917514478
2113.916613478492 1810.3335528183609
2114.550600376786 1812.5409298400457
2115.1844345491445 1538.7807637384633
2115.818116031729 1658.495642671843
2116.451644860679 1722.3457851676426
2117.085021072133 1385.144667207052
2117.718244702204 1597.5596024997462
2118.3513157869984 1563.5700690523358
2118.984234362604 1468.3283106788617
2119.617000465092 1747.2271540904064
2120.249614130529 1968.9865192092868
2120.8820753949585 1775.7162962180544
2121.5143842944162 1484.0868562673897
2122.14654086492 1546.780914895158
2122.7785451424734 1881.272539724474
2123.4103971630702 1830.463815537519
2124.042096962681 1779.7383283873673
2124.6736445772767 1817.8292458118983
2125.305040042802 1636.3209738163664
2125.936283395191 1747.356512001244
2126.567374670365 1738.504008680581
2127.198313904233 1709.6368879027602
2127.8291011326855 1743.1696913610667
2128.4597363916037 1776.565502869896
2129.0902197168507 1569.2490741030642
2129.720551144279 1436.0977459708824
2130.3507307097225 1978.7457368125215
2130.980758449008 2048.542052426847
2131.6106343979427 1622.1423996431781
2132.2403585923203 1884.9536139201045
2132.8699310679276 1913.3531769718059
2133.499351860526 1780.6826547495348
2134.1286210058715 1709.0960152709692
2134.7577385397053 1863.075723790543
2135.3867044977487 2017.307130701752
2136.0155189157176 2142.4388321491797
2136.644181829308 2116.3648410080086
2137.2726932742025 1700.6724944580214
2137.901053286074 2045.6599433826814
2138.5292619005777 1609.343147430757
2139.1573191533535 1603.2182371552385
2139.7852250800315 1827.2208131529042
2140.4129797162295 1880.5049599699937
2141.0405830975433 1437.585935257403
2141.6680352595613 1437.6927203133523
2142.2953362378576 1437.816068703349
2142.9224860679915 1626.1953305123657
2143.549484785508 1544.3223130320046
2144.1763324259373 1649.6234905373706
2144.803029024799 1437.0539122101195
2145.429574617594 1579.1085945673774
2146.0559692398165 1530.2829507609492
2146.682212926942 1481.2546345989272
2147.308305714432 1619.5145609910733
2147.9342476377333 2010.9419740611397
2148.5600387322847 2085.923864810515
2149.185679033506 1877.0904599449022
2149.8111685768017 1715.2502139479602
2150.4365073975678 1348.039638605725
2151.061695531187 1510.0112091976337
2151.686733013021 1888.3131917731935
2152.311619878423 1772.6107421861416
2152.9363561627342 1678.453498212577
2153.560941901278 1571.2247714447715
2154.1853771293663 1886.8991030944908
2154.809661882293 1652.2270032836363
2155.433796195348 2087.472862859096
2156.0577801037944 2012.7789783312087
2156.681613642895 1937.808346039473
2157.3052968478896 1508.953680091881
2157.928829754006 1827.3155607893332
2158.552212396462 1942.6061261420236
2159.1754448104566 1781.2598756781372
2159.7985270311783 1493.6445465060374
2160.4214590938027 1152.960110300687
2161.0442410334927 1317.7296884418863
2161.6668728853874 1425.4029235811347
2162.289354684628 1533.3293065917194
2162.911686466332 1444.1621181691514
2163.533868265602 1783.450984592077
2164.1559001175337 1979.4022719093005
2164.7777820572046 1803.3102448535374
2165.399514119681 1807.3225717810012
2166.021096340013 1465.7352452269129
2166.6425287532384 1872.5726904982616
2167.263811394385 1400.4844097725188
2167.8849442984574 2037.444781227321
2168.505927500455 1540.1666806593823
2169.126761035366 1885.2645276698372
2169.7474449381552 1512.5006524156129
2170.367979243778 1230.5001220263036
2170.9883639871823 1912.3746462036966
2171.608599203293 1401.8733468087635
2172.2286849270276 2033.278273520882
2172.8486211932886 2129.415845290228
2173.4684080369625 1698.6717476343965
2174.0880454929265 1400.0151298563303
2174.7075335960417 1387.2277125528685
2175.3268723811543 1363.828988939579
2175.9460618831 1340.3913936563285
2176.565102136701 1733.2747333691157
2177.1839931767627 1658.543174948331
2177.802735038078 1583.6379353238021
2178.421327755432 1513.8550112053306
2179.0397713635866 1419.8651566412668
2179.658065897298 1492.414013283308
2180.276211391305 1618.5233505159053
2180.8942078803357 1708.7299265765644
2181.5120553991 1797.7329798249543
2182.129753982299 1742.0764361711
2182.7473036646206 1686.3037188817561
2183.3647044807367 1762.152906690148
2183.9819564653044 1423.8229601498053
2184.599059652968 1712.5105113555667
2185.216014078367 1885.9283987056483
2185.832819776113 1917.9284910388865
2186.4494767808137 1949.8948036451898
2187.065985127063 1597.3726476526695
2187.682344849436 1514.935662201352
2188.298555982501 1580.0174819004847
2188.9146185608097 1645.1108296969019
2189.530532618901 1831.153614129431
2190.1462981912937 1804.0875921693817
2190.761915312507 1801.5230606020366
2191.377384017036 1686.011489818801
2191.9927043393654 1549.924195529379
2192.6078763139667 1849.5247194440933
2193.2228999753006 1434.1736061951383
2193.837775357808 1644.7904197676623
2194.452502495922 1302.9957571220248
2195.0670814240602 1583.7646891830532
2195.6815121766285 1323.4650626086689
2196.2957947880186 1302.149684256212
2196.9099292926057 1280.7958085383802
2197.523915724758 1668.595429151958
2198.137754118825 1657.9754539720172
2198.7514445091456 2070.55418727129
2199.3649869300443 2101.2146242612084
2199.9783814158327 2132.0349183190324
2200.5916280008096 2180.289196179264
2201.2047267192593 1978.0281930192625
2201.8176776054515 1640.7717766744802
2202.430480693649 1545.667560124353
2203.0431360180955 1864.6497143067274
2203.6556436130195 1594.942922517082
2204.268003512645 1819.4422362590171
2204.8802157511727 1648.8877454226022
2205.492280362796 1953.231474294637
2206.1041973816937 1705.4988927247282
2206.715966842032 1580.41401499846
2207.3275887779655 1849.4330567987229
2207.93906322363 1735.1872550715125
2208.550390213153 1956.822580984818
2209.1615697806465 1768.5851150646195
2209.7726019602105 1404.8554630865376
2210.3834867859277 1367.7269521987942
2210.9942242918787 1592.996361886569
2211.6048145121167 1655.8861519707548
2212.2152574806914 2356.1245338236668
2212.825553231638 1530.0377442761874
2213.435701798975 2378.098791195924
2214.045703216707 1630.7916019351337
2214.655557518832 1273.6395883808668
2215.2652647393297 1447.7362975591234
2215.874824912169 1559.9356793730246
2216.4842380713 1672.565462965668
2217.09350425067 1432.7957663433624
2217.7026234842033 1819.1977659533939
2218.311595805819 1847.1571551906516
2218.9204212494133 1646.6267612823115
2219.52909984888 2153.1239303134344
2220.137631638092 2063.831958491168
2220.7460166509154 1974.2242850986179
2221.354254921198 1317.9769047760979
2221.9623464827764 1775.5956240913642
2222.5702913694713 1535.906447505756
2223.178089615096 1492.0430719002352
2223.7857412534486 1448.0984642016817
2224.39324631831 1436.4743915950514
2225.000604843457 1547.348707776459
2225.607816862641 1933.9766128036863
2226.214882409611 1832.987669743535
2226.8218015180973 1977.4175643894953
2227.4285742218217 1594.0197881451722
2228.0352005544864 1842.4228622835697
2228.6416805497847 1753.6661396770294
2229.248014241399 1664.7712065288167
2229.8542016629945 1432.2939428280165
2230.460242848223 1775.3250502670157
2231.0661378307304 1601.4991637273934
2231.671886644139 1427.5127605030389
2232.277489322065 1426.9538282219041
2232.8829458981127 1595.0496021583026
2233.48825640587 1763.3700135392853
2234.0934208789095 2106.5994000518194
2234.6984393507955 1995.8509348090706
2235.3033118550793 1829.6121110232154
2235.9080384252975 1578.5934097368263
2236.5126190949723 1391.4890762678563
2237.1170538976166 1437.8916464300787
2237.721342866729 1311.8557650595703
2238.32548603579 1424.1472869418926
2238.9294834382763 1624.4789300604702
2239.533335107646 1589.1262756938474
2240.1370410773434 1662.2500501973907
2240.740601380803 1518.214649363013
2241.3440160514474 1686.9049522549133
2241.9472851226783 1667.6873548409997
2242.550408627896 1739.706281703869
2243.1533866004793 1563.7006058275679
2243.756219073799 1387.4202824197232
2244.3589060812064 1468.3094814663198
2244.961447656049 1318.9967542417646
2245.5638438316564 1639.4746436653102
2246.166094641343 1746.0689699629384
2246.7682001184166 1426.4063972714014
2247.3701602961664 1393.721652062151
2247.971975207871 1852.128871876564
2248.5736448867974 2055.927847797432
2249.175169366197 1531.5570026240498
2249.7765486793123 1689.133270171015
2250.3777828593684 1650.2879707653806
2250.9788719395783 1693.2374635321034
2251.579815953146 1645.1831196067665
2252.1806149332606 1434.33510592264
2252.781268913097 1603.9423069845884
2253.381777925817 1425.6217692914797
2253.9821420045737 1680.6323165132605
2254.5823611825035 1820.8019466095607
2255.1824354927303 1598.9434853427642
2255.782364968365 1406.796880252933
2256.38214964251 1214.4281680841498
2256.9817895482483 1461.3394781017964
2257.5812847186553 1564.5581198284758
2258.180635186791 1317.9248337819358
2258.779840985704 1443.8479331865296
2259.37890214843 1503.803907865507
2259.97781870799 1603.054850662848
2260.5765906973957 1702.4964236977485
2261.175218149645 1605.9301917779756
2261.773701097718 1529.5560202870065
2262.3720395745895 1453.009221862873
2262.970233613216 1449.6600355162104
2263.568283246548 1467.4466325599246
2264.1661885075137 1407.9240667214121
2264.763949429038 1393.7598319506778
2265.3615660440246 1980.4218148437267
2265.959038385374 1339.5188546530906
2266.5563664859637 1858.6404095738405
2267.153550378669 1364.3347994661783
2267.7505900963424 1910.3395674316412
2268.3474856718312 1444.4132927238275
2268.9442371379664 1828.5588859521013
2269.5408445275643 1448.8427900510765
2270.1373078734377 1413.7091483789027
2270.7336272083758 1378.5044035772748
2271.32980256516 1278.8995907068377
2271.925833976562 1821.320106618767
2272.5217214753357 1935.174295981072
2273.117465094223 1568.4722608703314
2273.7130648659586 1331.709175308074
2274.308520823257 1291.4589080108542
2274.903832998827 1799.5228494790567
2275.4990014253563 1466.6650409068848
2276.094026135528 1869.340639212278
2276.6889071620117 1523.471268530367
2277.2836445374614 1736.6223889668393
2277.878238294519 1516.7609860208793
2278.472688465812 1400.2371296971487
2279.066995083962 1283.4901181112864
2279.6611581815705 1552.7320496538284
2280.255177791232 1848.0105697758215
2280.8490539455233 1746.9590377207192
2281.442786677013 2055.486972993421
2282.0363760182554 1987.362500047823
2282.6298220017943 1769.7156626327055
2283.223124660155 2033.5370893196864
2283.816284025859 1403.604728253803
2284.4093001314086 2086.593036362125
2285.002173009292 1478.8502259875677
2285.5949026919952 1793.8808426676812
2286.1874892119777 1433.6851899939895
2286.7799326016993 1628.392922327025
2287.3722328936 1278.0535861239186
2287.964390120109 1579.0048406779074
2288.556404313642 1880.411607036641
2289.1482755066027 2124.706650865185
2289.7400037313873 1687.9450880030836
2290.3315890203703 1419.3506512433428
2290.9230314059205 1399.941725022057
2291.5143309203904 1380.5448659131919
2292.1054875961236 1433.9724016990297
2292.6965014654506 2368.2315003949793
2293.287372560684 1430.4013854000243
2293.878100914131 2509.576832797239
2294.468686558086 1481.1221261964502
2295.059129524827 1637.0458762765643
2295.649429846617 1622.9152917967654
2296.239587555716 1608.7078632954917
2296.8296026843636 1570.4506550587982
2297.419475264791 1482.5163881446974
2298.0092053292137 1394.3263442139037
2298.598792909839 1824.2915185726615
2299.1882380388597 1679.9881378773243
2299.777540748455 1855.8297834990735
2300.3667010707904 1913.9407049518463
2300.9557190380256 1972.0150982097355
2301.544594682302 2170.5299061561054
2302.1333280357503 1386.3220460381194
2302.721919130485 1544.5612200185324
2303.3103679986198 2072.8951968708634
2303.898674672242 2151.5884705077724
2304.486839183437 1866.715274108675
2305.0748615642697 1581.5607138887583
2305.6627418468015 1801.0394000356332
2306.2504800630704 1471.8929358716439
2306.8380762451143 1562.520978348252
2307.425530424949 1559.46100640531
2308.012842634582 1556.3818636376234
2308.6000129060103 1970.3307823954406
2309.187041271214 2273.1303616507244
2309.773927762164 2096.038616085035
2310.3606724108213 1918.5855596919246
2310.9472752491274 1355.1649345428336
2311.5337363090184 1848.1946237791076
2312.120055622414 1706.6638900572566
2312.706233221221 1446.957323517036
2313.2922691373424 1129.2401332193365
2313.8781634026564 1309.443549511499
2314.463916049037 1490.067170393834
2315.049527108342 1935.8656631821777
2315.6349966124235 2226.2768277730856
2316.2203245931123 1989.8558607461648
2316.8055110822315 1409.5945777742695
2317.3905561115935 1460.7357881854014
2317.9754597129977 1219.2385849834727
2318.560221918229 1351.4129597280862
2319.1448427590603 1483.9168575009166
2319.729322267256 1474.0593163589097
2320.313660474563 1449.2980958057115
2320.8978574127195 1626.711613361218
2321.481913113452 1804.675765764368
2322.0658276084705 1428.4588204788183
2322.6496009294806 1674.4122471508138
2323.233233108165 1839.0897810532442
2323.8167241762058 1767.9555020823507
2324.4000741652617 1696.5501715528474
2324.983283106987 1967.5470931847353
2325.5663510330232 1842.0887289446011
2326.1492779749933 1694.2368044198029
2326.7320639645204 1791.9405050872706
2327.3147090332004 1245.211263047164
2327.897213212629 1414.9236191855484
2328.4795765343843 1584.7620210551274
2329.0617990300307 1482.6348481567607
2329.643880731124 2075.513307119491
2330.22582166921 1403.3378910891645
2330.807621875816 2002.2671379283322
2331.3892813824623 1017.3858480140083
2331.9708002206517 1271.1178576241225
2332.5521784218818 1403.986926065785
2333.133416017634 1537.1872786528006
2333.7145130393765 1497.9660941677641
2334.295469518571 1911.8786592810188
2334.876285486658 1946.3715011764252
2335.456960975076 1854.6174662662943
2336.037496015242 1762.690459542575
2336.6178906385667 1728.7739648065235
2337.198144876451 1720.513304845287
2337.778258760278 1787.7187842953267
2338.3582323214214 1672.1768722980185
2338.938065591243 1556.3244262399032
2339.517758601087 1950.514956739074
2340.0973113822965 1699.323546527452
2340.676723966193 1471.6861814452955
2341.255996384094 1809.8980056499918
2341.835128667295 2141.873479963447
2342.4141208470883 1796.278581701811
2342.992972954751 1768.6688949041113
2343.5716850215467 1356.098226976922
2344.1502570787306 1753.9768016924795
2344.7286891575386 1485.5038313145592
2345.3069812892045 2058.781163181435
2345.885133504944 1808.127772471348
2346.4631458359618 1558.7028869076712
2347.04101831345 1352.3953296474335
2347.6187509685915 1682.7492533412656
2348.196343832553 1409.880869279159
2348.7737969364935 1683.0442396814403
2349.351110311558 1420.357069197462
2349.9282839888765 1492.952286905143
2350.5053179995757 1256.135650017511
2351.0822123747585 1222.0777255348123
2351.658967145526 1876.4812436127984
2352.2355823429643 1224.1325488414884
2352.812057998144 1821.9392043664877
2353.3883941421263 1792.1029583250142
2353.9645908059647 1454.5596227321068
2354.540648020693 1528.2816019406525
2355.116565817336 1712.3393366845467
2355.6923442269126 1896.8215210156166
2356.2679832804224 1704.6322270671394
2356.8434830088518 1616.2924320273899
2357.41884344318 1635.6604483252038
2357.994064614377 1491.1223675514586
