#exp_cfg={"servo_angle": 0.0, "laser_lim": 100.0, "servo_angle_to": 18.0, "laser_wup": 0.0, "bt_dev": "EnSpectr-25AE3", "laser_wdn_max": 0.0, "frames": 10.0, "servo_used": 0, "servo_calib_use": 0, "laser_wdn_min": 0.0, "servo_pix_from": 90.0, "cooler_tout": 300.0, "servo_angle_from": 0.0, "servo_calib": "[-1.9174921013161362e-09, 3.9322238269163779e-05, -0.27385609119055809, 653.59552119713567]", "laser_autoctl": 0, "servo_pix_to": 3682.0, "laser_pw": 100.0, "cooler_on": 0, "laser_volt": 4.0, "cooler_autoctl": 0, "cooler_curr": 70.0, "cooler_startup": 10.0, "laser_fixed_pw": 0, "gain": 1.3, "offset": 2.53059635486, "servo_calib_degree": 3.0, "laser_curr": 55.0, "shutter": 8200.0, "servo_calib_step": 1.0, "laser_fixed_curr": 0, "exp": 2000.0, "ccd_volt": 4.7, "bt_addr": "00:06:66:62:5A:E3", "servo_delay": 500.0, "laser_autooff": 1}
#proc_cfg={"flat_auto_wnd": 200.0, "flat_auto_fr": 200.0, "flat_auto_shift": 5.0, "yconv": 1, "flatten": 1, "flatten_strength": 100.0, "xfrom": 300.0, "auto_max_frame": 2000.0, "auto_signal": 48000.0, "flat_auto_tol": 0.1, "autoclip": 1, "xrel_range": 0.0, "flat_auto_to": 4000.0, "intensity_adj": 1.0, "xrel": 7852.0, "rmhot": 1, "flat_auto_slit": 4.999999999999997, "auto_ini_exp": 300.0, "auto_off": 0, "xto": 2860.0, "flat_auto_ref": "", "flat_auto_rank": 1, "autobackg": 0, "xrel_adj": 0.0, "auto_black_lvl": 1, "base_wnd": 100.0, "sub_baseline": 0, "xconv": 2, "auto_max_exp": 1000.0, "auto_total_exp": 10000.0, "auto_exp": 0, "rmripple": 0, "black_lvl": 8282.625, "shutter_clip_adj": 0.0, "auto_bckg": 0, "flat_auto_thr": 0.9, "subbackg": 1}
316.8218498245369 17848.86866660344
317.89969571804795 17638.582400769978
318.977263876126 17687.34563890226
320.05455438786703 17481.93291682667
321.1315673423287 17369.035461772906
322.2083028285215 17371.090431703422
323.2847609354267 17203.882866706736
324.3609417519747 17254.31357511079
325.43684536705587 17037.860463178637
326.5124718695279 17136.3997929525
327.58782134820103 16994.350864807755
328.66289389184385 17043.85626026582
329.7376895891921 16827.977023945255
330.8122085289342 16810.10207454367
331.88645079971866 16824.060992280465
332.9604164901575 16701.849130502225
334.03410568881554 16693.271828638495
335.1075184842266 16829.977916850585
336.18065496487543 16598.864711031507
337.2535152192122 16677.08130722773
338.32609933564163 16575.45157012053
339.39840740253203 16556.953308620607
340.4704395082099 16451.404175830845
341.5421957409617 16385.40279491018
342.6136761890357 16514.09304907651
343.6848809406365 16316.949278726519
344.75581008392874 16262.147895361919
345.82646370703696 16242.133517046106
346.8968418980512 16215.017250415296
347.96694474501055 16183.566101807392
349.0367723359268 16205.16443335357
350.106324758759 16117.220878381695
351.1756021014353 16003.334152935218
352.2446044518383 15985.173928800534
353.31333189781435 16143.74838024858
354.38178452716966 16038.902048733571
355.449962427665 15951.005319739905
356.51786568702846 15925.80169660839
357.58549439294256 16064.799581637499
358.6528486330535 15973.695386481335
359.71992849496564 15950.49671254667
360.7867340662433 15933.48245433885
361.8532654344144 15965.54153383942
362.9195226869597 16012.118118182378
363.9855059113288 15915.998426259195
365.05121519492604 15807.602479936017
366.11665062511565 15960.87186253197
367.1818122892273 15926.155439508357
368.2467002745434 15956.799195693398
369.31131466831175 15907.482292543482
370.375655557742 15876.833561208376
371.4397230299983 15884.841971558595
372.5035171722102 15818.585326877534
373.5670380714637 15811.073029677471
374.6302858148101 15935.140219726405
375.6932604892554 15882.359587463749
376.7559621817709 15876.805567878802
377.81839097928605 15819.396123706558
378.8805469686886 15754.371913149653
379.94243023683157 15882.55851560464
381.0040408705263 15739.376464539815
382.0653789565458 15630.464844659373
383.1264445816196 15738.516606609823
384.1872378324406 15700.584955084469
385.2477587956637 15748.632837021834
386.3080075579037 15609.241246251258
387.3679842057336 15491.169416264383
388.4276888256918 15618.931068518641
389.48712150426945 15496.492430141287
390.54628232792857 15432.593884287486
391.6051713830857 15335.231502328814
392.66378875611736 15399.085524891498
393.7221345333637 15398.834848102148
394.7802088011249 15290.996421529495
395.838011645661 15366.488281782
396.89554315319765 15235.850366902272
397.9528034099112 15079.735506268062
399.00979250194723 15055.20945011538
400.06651051541485 15098.391668346021
401.1229575363741 15083.170246570537
402.17913365085224 14980.796489641856
403.23503894483656 15009.830381560949
404.2906735042761 14906.142435938655
405.3460374150818 14871.45112797051
406.401130763119 14813.389986055805
407.455953634224 14835.354769740352
408.5105061141876 14744.622381438423
409.56478828876243 14649.22315508055
410.6188002436629 14615.174464210437
411.6725420645689 14646.845619969108
412.72601383711117 14674.88593611532
413.77921564689314 14691.529051214191
414.8321475794728 14562.965069051474
415.88480972036814 14530.144381639819
416.93720215506437 14563.551295443389
417.9893249690049 14400.03339234628
419.04117824759123 14341.373871022899
420.09276207619223 14341.664815203743
421.144076540133 14399.846660336905
422.1951217247042 14313.998856698765
423.24589771515275 14255.52031900876
424.2964045966928 14173.313770811432
425.34664245449494 14272.834944778588
426.3966113736933 14164.711774430503
427.4463114393875 14124.65524235795
428.49574273662984 14211.081932743986
429.5449053504417 14048.755620086866
430.5937993658026 14131.619592313242
431.6424248676558 14071.256385271685
432.6907819409007 14013.175065588566
433.73887067040596 14056.743898123463
434.7866911409965 14021.77722062688
435.8342434374608 13950.205010803213
436.88152764455117 13880.969642409898
437.9285438469724 13908.554608861774
438.9752921294057 13810.014440610894
440.02177257648145 13753.27887598362
441.06798527279716 13787.021415825959
442.1139303029122 13917.474131938585
443.1596077513459 13865.527526188449
444.2050177025794 13857.062619942202
445.25016024105753 13901.049232524796
446.2950354511886 13773.960016479157
447.33964341733736 13769.579018159962
448.383984223834 13766.608762689531
449.4280579549686 13669.37019737126
450.471864694995 13726.590260284855
451.5154045281306 13754.801711191443
452.5586775385509 13722.127506476347
453.60168381039693 13677.89380146951
454.64442342776783 13826.278660876571
455.6868964747264 13707.56576541882
456.7291030353008 13662.356046908226
457.77104319347563 13687.05668256735
458.8127170332027 13619.028300963231
459.854124638392 13705.467804555354
460.895266092919 13848.351070862238
461.93614148061897 13812.342945361757
462.97675088529104 13831.301407343544
464.01709439069236 13748.05615257643
465.0571720805492 13763.794291945125
466.0969840385442 13789.167511404132
467.1365303483253 13888.065411508589
468.17581109350067 13713.728361246485
469.2148263576437 13716.215626596668
470.2535762242878 13796.439298343994
471.29206077693016 13873.30473553357
472.33028009902773 13820.0768965336
473.3682342740012 13868.970514186463
474.40592338523857 13873.102534561829
475.4433475160804 13935.876828656063
476.4805067498364 13920.051777750812
477.51740116978 13950.514902324674
478.5540308591426 14027.576369871289
479.59039590112116 14190.332039410952
480.6264963788726 14139.225902125614
481.6623323755193 14341.589254734019
482.6979039741436 14296.472138183035
483.7332112577915 14573.292904496124
484.76825430947247 14827.858163177705
485.80303321215797 14844.007352201981
486.837548048783 14916.975002539528
487.8717989022425 15168.91608236064
488.90578585539697 15110.10139083143
489.9395089910686 15327.796565869876
490.97296839203955 15261.944577791026
492.00616414106116 15106.139967197518
493.0390963208429 15175.126955290028
494.0717650140559 15117.023949209135
495.10417030333883 14947.705281082594
496.1363122712901 14935.493656048322
497.16819100046814 14698.055130633278
498.1998065734024 14423.720276468124
499.2311590725767 14382.869240330216
500.26224858044407 14176.004274098017
501.2930751794156 13971.009453481933
502.3236389518679 13930.791461396419
503.35393998014115 13664.88108046151
504.38397834653733 13704.892735781843
505.4137541333221 13586.075972558374
506.4432674227228 13340.890283834247
507.4725182969323 13434.470585685694
508.5015068381035 13299.103684137503
509.53023312835467 13367.849972129585
510.55869724976765 13237.943118884965
511.58689928438434 13135.187025270401
512.6148393142121 13093.884135015049
513.6425174212218 13254.69614849528
514.6699336873462 13123.380888103435
515.6970881944835 13240.258091185595
516.7239810244901 13032.284432243821
517.7506122591931 13073.441640765921
518.7769819803761 13052.912084589025
519.8030902697901 13161.482844710074
520.8289372091476 13043.929340153027
521.8545228801249 13178.667306005014
522.8798473643619 13081.831288225041
523.9049107434621 12996.459749564761
524.9297130989908 13109.76706406135
525.9542545124805 13054.121899495833
526.9785350654201 12956.742135684597
528.0025548392696 13026.646180351487
529.0263139154504 12888.016927755896
530.0498123753423 12966.36533174811
531.073050300296 12905.816088996298
532.0960277716204 12859.829658123423
533.1187448705896 12794.493702128031
534.1412016784416 12816.009295942786
535.1633982763833 12752.287370941824
536.1853347455726 12662.930995689265
537.2070111671401 12679.529477181048
538.2284276221817 12559.725914409693
539.2495841917516 12516.8971973416
540.2704809568677 12366.661333832584
541.2911179985167 12415.451629830688
542.3114953976419 12321.989929754473
543.3316132351592 12269.896538955256
544.3514715919409 12274.176783905097
545.3710705488247 12218.056412565482
546.3904101866156 12126.357397667653
547.4094905860784 12173.679258102977
548.4283118279418 12119.586915560414
549.4468739929034 12129.129865325218
550.4651771616191 12134.469807496202
551.4832214147063 11915.251025539623
552.501006832761 11958.742059635126
553.5185334963226 11950.585793131875
554.5358014859103 12072.31335110603
555.5528108820035 12001.966733571811
556.5695617650363 11912.045267654452
557.5860542154242 11958.527364184236
558.6022883135283 11980.354966398703
559.6182641396881 11905.325331177988
560.6339817741991 11977.849497176523
561.6494412973225 12015.520706044583
562.6646427892883 12012.326989501455
563.6795863302796 11798.33543317756
564.694272000459 11882.64034230623
565.7086998799423 12055.96024742143
566.7228700488104 11951.070116398276
567.7367825871115 11899.199556186688
568.7504375748576 11935.372262708766
569.7638350920224 11935.009157696997
570.7769752185486 11942.568198577592
571.7898580343353 11968.003146848394
572.802483619258 11872.387971863638
573.8148520531431 12044.241700024699
574.8269634157932 12041.489101733536
575.8388177869692 12020.711639788886
576.8504152463938 11986.582341655578
577.8617558737587 12217.022983981773
578.8728397487175 12043.74276082301
579.883666950891 12147.495865481327
580.8942375598654 12294.249470594
581.9045516551851 12371.343095497305
582.9146093163617 12614.96046948346
583.924410622878 12514.290774091081
584.9339556541727 12500.111769026395
585.9432444896538 12670.633753429729
586.9522772086875 12474.713219680278
587.9610538906127 12650.104174541668
588.9695746147318 12461.410302534347
589.9778394603054 12552.058298595162
590.985848506567 12428.525137885328
591.9936018327098 12416.467521358525
593.0010995178891 12125.947084286203
594.0083416412344 12273.940682389612
595.0153282818283 12000.761308934774
596.0220595187293 12003.386219437369
597.0285354309508 11956.141624095835
598.0347560974806 11937.48547313522
599.0407215972609 11841.576483035828
600.0464320092051 11826.324530806647
601.0518874121954 11774.557588192796
602.0570878850685 11693.309061822158
603.062033506636 11798.163785913393
604.0667243556636 11690.483260632718
605.0711605108936 11632.680423974021
606.0753420510264 11944.917359879104
607.0792690547278 11773.53280631573
608.082941600629 11720.725103438304
609.0863597673306 11758.631798084156
610.0895236333909 11896.35941974438
611.0924332773357 12101.99958160462
612.0950887776617 11943.128231290155
613.0974902128219 12069.907172177149
614.0996376612384 12291.125468438331
615.1015312013005 12335.546348392361
616.1031709113595 12514.564913084449
617.1045568697336 12443.448341896506
618.1056891547069 12603.50234858549
619.1065678445229 12840.651455332882
620.1071930173985 13114.669135431384
621.1075647515099 13103.234773625183
622.1076831250048 13263.963097741278
623.1075482159849 13450.038538646244
624.1071601025305 13637.577445323981
625.1065188626781 13761.198951021837
626.105624574433 14051.663514437609
627.1044773157682 14164.903699266555
628.1030771646128 14249.991021471124
629.1014241988742 14455.386538179268
630.0995184964158 14570.47936678667
631.0973601350688 14611.710888240676
632.0949491926294 14843.26330736005
633.0922857468631 14663.948409805487
634.089369875499 14728.522746669387
635.0862016562278 14693.611940596951
636.0827811667077 14397.08278543816
637.0791084845641 14394.381549603791
638.0751836873878 14218.061102073547
639.0710068527369 14196.685016880389
640.0665780581294 13909.31014231509
641.0618973810506 13791.368786751214
642.0569648989604 13689.650141687565
643.0517806892676 13289.318245692291
644.0463448293649 13283.524129074343
645.040657396592 13052.467339775005
646.0347184682723 12773.33056974524
647.0285281216875 12577.014006628298
648.0220864340772 12461.220937478938
649.0153934826558 12231.14802604308
650.0084493446047 12183.218203158034
651.0012540970674 12089.103054484036
651.9938078171526 11965.35218884418
652.9861105819346 11797.942017763333
653.9781624684565 11968.9880648722
654.9699635537254 11557.976538232422
655.9615139147136 11633.850858036529
656.9528136283589 11448.547983067654
657.9438627715699 11578.188920860284
658.9346614212154 11412.88218990662
659.925209654135 11148.556052855189
660.9155075471263 11348.667997333154
661.9055551769616 11222.854985905858
662.895352620375 11321.687293324077
663.8848999540678 11173.068282495547
664.8741972547068 10992.13704759442
665.863244598926 11064.19707210911
666.8520420633213 11058.917261666731
667.8405897244611 10901.904460294943
668.8288876588758 10868.469047205259
669.8169359430613 10962.494749020558
670.8047346534822 11062.201363233133
671.7922838665672 10770.025531816476
672.7795836587156 10838.348140808837
673.766634106285 11054.167464245129
674.7534352856092 10763.86463706611
675.7399872729766 10788.921656126584
676.7262901446538 10804.853490860702
677.712343976862 10749.668930579284
678.6981488457986 10870.208602888457
679.6837048276229 10686.68326147972
680.6690119984596 10682.745470318803
681.6540704344043 10675.02159408975
682.6388802115107 10662.925905819193
683.6234414058108 10646.945571051374
684.6077540932874 10540.098321394795
685.591818349907 10641.427643711924
686.575634251587 10584.07339809746
687.5592018742263 10603.744783930913
688.5425212936734 10362.5146739499
689.5255925857564 10630.389883345899
690.5084158262707 10497.018741922875
691.4909910909646 10422.028579978423
692.4733184555644 10424.601466126283
693.4553979957618 10520.82498551556
694.4372297872123 10349.653353470174
695.4188139055404 10363.004844344838
696.4001504263324 10244.65785911012
697.3812394251509 10363.646015093595
698.3620809775111 10246.15287806893
699.3426751589104 10276.995193653687
700.3230220448004 10195.224747332068
701.3031217106054 10179.9507543001
702.2829742317172 10483.638525810135
703.2625796834873 10103.251392075328
704.2419381412474 10109.94954917954
705.22104968028 10251.67248531846
706.1999143758458 10208.759986192072
707.178532303169 10233.558963227433
708.1569035374378 10215.832736334629
709.1350281538107 10401.526133627558
710.1129062274158 10262.822766524767
711.0905378333373 10483.265466659006
712.0679230466376 10500.388002548952
713.0450619423427 10635.678896123276
714.0219545954424 10813.375991176823
714.9986010808989 10671.176540915043
715.9750014736292 10783.086115231932
716.9511558485392 11053.042297091597
717.9270642804786 11186.849070815266
718.9027268442787 11289.129936256548
719.8781436147328 11319.382592335875
720.8533146666014 11264.730053374878
721.828240074612 11317.161284045878
722.8029199134635 11293.157509382983
723.7773542578125 11199.813808152177
724.751543182294 11080.07576025262
725.7254867615029 11085.466854576161
726.6991850700015 10806.193471223232
727.6726381823228 10826.456435173011
728.6458461729599 10837.082590294649
729.6188091163858 10686.289001049881
730.5915270870246 10609.857827763164
731.5640001592856 10517.632659369692
732.536228407529 10603.793313803822
733.5082119060917 10480.135688321112
734.4799507292755 10457.313826586224
735.4514449513481 10513.656268916835
736.4226946465496 10479.935004593191
737.3936998890786 10553.18301011692
738.3644607531078 10445.230910365888
739.3349773127793 10387.04208804103
740.3052496421951 10306.227665586695
741.27527781543 10266.557282950447
742.2450619065221 10119.969091932793
743.2146019894826 10071.817120678243
744.183898138288 10152.228404755975
745.1529504268801 10018.508623569312
746.1217589291682 9861.556151451845
747.0903237190341 9917.120894698617
748.058644870318 9843.935317172582
749.0267224568397 9783.655514645458
749.994556552374 9660.328705031518
750.9621472306771 9700.281707067492
751.9294945654583 9687.562146723863
752.8965986304011 9758.4445252315
753.8634594991636 9533.705480910028
754.8300772453586 9627.11099184549
755.7964519425768 9582.574487804543
756.762583664371 9703.507173718392
757.7284724842611 9759.570768369276
758.6941184757416 9581.499429412292
759.6595217122667 9620.663935048702
760.6246822672638 9649.291800986804
761.5896002141235 9472.297675314994
762.5542756262093 9582.436860114216
763.5187085768503 9638.993025343621
764.4828991393406 9527.63104696621
765.4468473869474 9586.44626201184
766.4105533929032 9561.102170991371
767.3740172304078 9453.053834349903
768.3372389726283 9629.4891164802
769.3002186926988 9385.024625740576
770.2629564637282 9425.139006817319
771.2254523587872 9407.98519239217
772.1877064509154 9347.682500597999
773.1497188131179 9157.54755584191
774.1114895183728 9182.84081421483
775.0730186396268 9109.5604752143
776.0343062497905 9064.617070269465
776.9953524217381 9063.89484624173
777.9561572283274 9098.688423050313
778.9167207423689 9102.80866204506
779.8770430366476 8980.681830324073
780.8371241839159 9003.395145324424
781.7969642568951 9039.209008787602
782.7565633282757 9197.002564209635
783.7159214707099 8949.929380973595
784.6750387568281 9062.692656992409
785.6339152592227 8995.512729782564
786.5925510504512 8952.107139975342
787.5509462030477 8955.071920079523
788.5091007895098 9000.808564889836
789.4670148823006 8935.053189066773
790.4246885538596 9027.781481852206
791.3821218765861 9009.087781547005
792.3393149228505 8865.957720689705
793.2962677649975 9054.342514279233
794.2529804753303 9050.880599543296
795.20945312613 9054.28484201762
796.1656857896378 8945.823850309931
797.1216785380675 8917.306946436674
798.0774314435985 9078.902582177203
799.0329445783846 9213.575474456708
799.9882180145414 9150.164455670236
800.9432518241574 9146.882035319519
801.89804607929 9278.232173255963
802.852600851962 9385.51877355632
803.8069162141637 9385.062500477407
804.760992237856 9492.619706626992
805.714828994971 9553.376832602795
806.6684265574077 9660.856447084434
807.6217849970271 9531.031582901487
808.574904385674 9483.99898985931
809.527784795142 9630.297425837665
810.4804262972102 9687.825797717933
811.4328289636178 9450.630333512589
812.3849928660748 9273.017480086139
813.3369180762638 9248.455090571992
814.2886046658241 9291.949184618887
815.2400527063783 9157.940969989186
816.1912622695108 9044.139866704643
817.1422334267718 9082.348660917327
818.0929662496856 8924.840133070858
819.0434608097457 8756.362259668074
819.9937171784059 8736.476747102939
820.9437354271013 8630.68207042424
821.8935156272255 8697.96656208678
822.8430578501484 8591.974351554765
823.7923621672016 8399.842963000152
824.7414286496896 8462.618562488515
825.6902573688876 8500.594881674939
826.6388483960363 8412.115081072847
827.5872018023492 8320.894275220428
828.5353176590033 8414.419847374988
829.4831960371503 8206.048250070755
830.4308370079016 8214.301035453114
831.3782406423525 8329.980850226386
832.3254070115545 8334.37074028279
833.2723361865319 8225.075014981088
834.2190282382799 8176.2643898195065
835.1654832377644 8241.955360775695
836.1117012559116 8134.61376484371
837.0576823636256 8290.218284845401
838.003426631778 8082.839523498158
838.9489341312074 7978.069736239731
839.8942049327197 8244.968998814758
840.8392391070975 8231.927576313758
841.7840367250865 8114.710098009682
842.7285978573982 8127.815316069871
843.672922574724 8196.10445930811
844.6170109477152 8057.5527619409495
845.560863046996 8115.997188966173
846.5044789431595 8060.735169771411
847.4478587067697 7998.623797998347
848.3910024083561 8205.031842513854
849.333910118421 8107.2993166509605
850.2765819074339 8008.692290191795
851.2190178458332 8150.304222776031
852.161218004032 8162.563992684816
853.1031824524016 8157.943043712914
854.0449112612987 8073.395695686422
854.9864045010327 8248.99481483937
855.9276622418947 8076.63238377053
856.8686845541379 8113.841865888778
857.8094715079915 8107.131131139509
858.7500231736467 8228.034783493531
859.690339621271 8138.599327426333
860.6304209209939 8214.252877825038
861.5702671429244 8071.28516481495
862.5098783571284 8221.503761926719
863.4492546336569 8212.568166902489
864.3883960425155 8149.743793683677
865.3273026536863 8133.433787878117
866.2659745371238 8099.873307842247
867.2044117627465 8329.062119986951
868.1426144004472 8207.016487387373
869.0805825200823 8350.433748587933
870.0183161914847 8358.968116765534
870.9558154844526 8436.29982184104
871.8930804687552 8464.538520813212
872.8301112141307 8342.209337982064
873.7669077902865 8473.649102392978
874.7034702669062 8710.83925171094
875.6397987136315 8545.58428581749
876.5758932000863 8597.610550173385
877.5117537958522 8740.550955427043
878.4473805704911 8600.009610564503
879.3827735935283 8686.885802230434
880.3179329344603 8773.105169096636
881.2528586627541 8744.42205216909
882.1875508478479 8868.830118282025
883.1220095591489 8747.918843658337
884.0562348660296 8644.635520211781
884.9902268378391 8813.410890289173
885.9239855438955 8636.782422198294
886.8575110534839 8535.876295322287
887.7908034358588 8646.982317965105
888.7238627602474 8645.201954480955
889.6566890958475 8594.47225481357
890.5892825118208 8334.41602548744
891.5216430773125 8394.00899917218
892.4537708614189 8432.066751484988
893.3856659332196 8185.654916513495
894.3173283617652 8202.513997221398
895.2487582160684 8228.929089929861
896.179955565116 8137.389303830547
897.110920477864 7997.342901373636
898.0416530232451 8035.280028168454
898.9721532701478 7942.210373880725
899.9024212874428 8041.309872764806
900.8324571439662 7825.238527141223
901.7622609085302 7852.055458722415
902.6918326499072 7703.499566621079
903.6211724368477 7848.566257689886
904.5502803380696 7890.144728843641
905.4791564222614 7881.562595846042
906.4078007580792 7695.611448258185
907.3362134141571 7724.367373409828
908.2643944590909 7865.152066233006
909.1923439614493 7621.396339219291
910.1200619897754 7666.060622921209
911.0475486125779 7896.150384472564
911.9748038983344 7602.848493111192
912.9018279155007 7603.864927560984
913.8286207324982 7540.576983222485
914.7551824177117 7598.096166222751
915.6815130395116 7564.240796969463
916.6076126662283 7488.472119920455
917.533481366163 7516.679213891543
918.4591192075914 7584.826087093017
919.3845262587565 7645.116446170166
920.3097025878706 7590.878502838862
921.2346482631237 7457.363303276068
922.1593633526682 7502.327470650585
923.0838479246304 7595.623359008127
924.0081020471061 7734.142117785928
924.9321257881656 7374.490919345097
925.8559192158464 7482.501808477505
926.7794823981512 7350.347713450547
927.7028154030686 7428.137355201939
928.6259182985414 7303.159126392112
929.5487911524906 7560.971171669208
930.4714340328119 7539.262956388526
931.3938470073608 7328.165486278299
932.3160301439748 7322.166819007611
933.2379835104548 7411.93691972088
934.1597071745709 7490.00120754955
935.0812012040769 7417.895569146545
936.002465666681 7524.2476185217865
936.9235006300696 7445.788802169553
937.8443061619055 7486.905699189268
938.7648823298077 7226.2596389638875
939.6852292013809 7341.607247740007
940.6053468441951 7385.902887413118
941.5252353257874 7234.47015570909
942.4448947136698 7377.4492820872765
943.364325075323 7305.913781039492
944.2835264782043 7313.624851171262
945.2024989897309 7299.332046181403
946.1212426773054 7332.634936489412
947.0397576082851 7433.436737066475
947.9580438500125 7515.699399886366
948.8761014697939 7525.379928867356
949.7939305349064 7468.362271562289
950.7115311125999 7303.344314287865
951.6289032700952 7289.256148803535
952.5460470745875 7549.033292550947
953.4629625932339 7320.363743400427
954.3796498931715 7498.576921911564
955.2961090415029 7455.5846048592575
956.2123401053068 7413.066579899727
957.1283431516276 7358.901694125397
958.0441182474842 7344.1100485115585
958.9596654598663 7445.181750079109
959.8749848557309 7323.1493447477405
960.7900765020167 7321.064070482154
961.7049404656209 7257.291711640491
962.6195768134185 7362.440207715868
963.5339856122537 7378.0264397806
964.4481669289453 7421.764559589047
965.3621208302793 7304.863511436235
966.2758473830145 7242.227582426351
967.1893466538822 7513.288429890201
968.1026187095813 7251.120299461468
969.0156636167867 7338.791968200296
969.9284814421426 7407.591044104673
970.8410722522622 7260.707039893032
971.753436113735 7235.2712047658715
972.6655730931161 7264.23900799209
973.5774832569368 7340.379189972654
974.4891666716958 7291.998453481348
975.4006234038698 7160.092617471756
976.3118535198955 7183.023127135659
977.2228570861935 7425.8722426284
978.1336341691494 7342.995189196581
979.0441848351202 7192.736916984584
979.9545091504333 7419.729052456403
980.864607181391 7319.576290068767
981.7744789942699 7332.778839595661
982.6841246553086 7359.060696772642
983.5935442307236 7429.043273867741
984.5027377867027 7370.989088998782
985.4117053894024 7324.855898498502
986.3204471049557 7260.002362721469
987.2289629994648 7473.227568582127
988.1372531390007 7570.351848983829
989.0453175896091 7461.32933708796
989.9531564173067 7415.305554437827
990.860769688079 7390.6635754475665
991.7681574678918 7418.300505631923
992.6753198226706 7508.966279293776
993.582256818323 7391.837161805757
994.4889685207218 7451.233649258071
995.3954549957143 7603.298054815192
996.301716309119 7553.673365880168
997.2077525267232 7538.839076869922
998.1135637142943 7467.878270313084
999.0191499375615 7656.03721936277
999.924511262232 7640.403293806028
1000.8296477539861 7635.168763600421
1001.7345594784656 7519.361074836573
1002.6392465012996 7497.808914581108
1003.5437088880753 7620.35621219998
1004.4479467043584 7667.247236730951
1005.3519600156869 7382.111114703473
1006.2557488875718 7585.997308620752
1007.1593133854858 7615.036997817029
1008.0626535748888 7472.593486110321
1008.9657695212009 7348.135456677097
1009.8686612898182 7599.927697574016
1010.7713289461135 7607.999459555186
1011.6737725554212 7455.182594253446
1012.5759921830577 7507.342701714309
1013.4779878943027 7412.770327538489
1014.379759754418 7566.817490349813
1015.2813078286254 7351.43566174648
1016.18263218213 7208.1845820738945
1017.0837328801026 7306.40250182311
1017.9846099876886 7395.7956484975775
1018.8852635700023 7240.818364411786
1019.7856936921362 7100.12198892279
1020.6859004191447 7375.500009198857
1021.5858838160675 7126.632079102865
1022.4856439479063 7158.095600178165
1023.3851808796389 7055.019021971906
1024.2844946762143 7302.943731151734
1025.183585402554 7051.212624048689
1026.082453123554 6926.950367488226
1026.9810979040776 7058.483889723325
1027.8795198089647 6953.333246350876
1028.777718903024 7096.570324674411
1029.6756952510368 6982.861931621965
1030.5734489177648 7022.981171890072
1031.4709799679313 6911.016316886281
1032.3682884662358 7157.2397105725595
1033.2653744773506 6846.494632135096
1034.1622380659192 6911.3150282260995
1035.058879296559 7041.014109586387
1035.9552982338591 7107.658641826472
1036.8514949423825 6937.790117132378
1037.7474694866614 6885.652189790907
1038.6432219312028 6852.665038575717
1039.5387523404825 7176.0340579911035
1040.4340607789582 6994.802549118465
1041.3291473110476 6976.3587339476
1042.2240120011465 7188.411441831205
1043.1186549136273 7178.051484663338
1044.0130761128294 7108.610755800083
1044.9072756630649 7156.664695630236
1045.8012536286205 7182.913461965765
1046.6950100737577 7219.458367902112
1047.588545062701 7248.861678355929
1048.481858659663 7349.809015881689
1049.3749509288118 7429.194933118952
1050.2678219343034 7223.581147726933
1051.1604717402515 7333.522495964493
1052.0529004107575 7197.39541244853
1052.9451080098825 7300.711666589475
1053.8370946016694 7275.014083450183
1054.7288602501267 7338.298988064336
1055.6204050192446 7261.46036432438
1056.511728972977 7359.418773105097
1057.402832175254 7278.821880943693
1058.2937146899785 7141.857061827084
1059.1843765810263 7178.7047984689925
1060.0748179122456 7282.0623967782985
1060.9650387474576 7160.545413522862
1061.855039150456 7205.305179239927
1062.7448191850071 7140.993340215308
1063.6343789148505 7150.39876689019
1064.5237184037014 7310.941039388371
1065.412837715241 7160.860944470334
1066.3017369131267 7107.058734560819
1067.190416060992 7008.996613664516
1068.0788752224398 7000.747449146636
1068.9671144610438 6977.457641216621
1069.8551338403558 7175.016932334506
1070.7429334239023 7195.143150697675
1071.6305132751695 7037.11322265388
1072.517873457633 7178.881492105058
1073.4050140347335 7003.276030459727
1074.2919350698776 7081.837544188388
1075.1786366264623 7066.770176453449
1076.0651187678395 7047.2650547023195
1076.95138155735 6829.622917754228
1077.8374250582929 6844.942517535591
1078.7232493339507 6968.660192962003
1079.608854447577 6859.053344439213
1080.4942404623907 6854.7750265974
1081.3794074415982 6951.00641247181
1082.2643554483657 6929.759186847897
1083.149084545841 6899.720591067367
1084.033594797138 6781.060071872559
1084.9178862653516 6762.811012575139
1085.8019590135427 6960.196049984962
1086.6858131047484 6655.611907789826
1087.5694486019802 6869.9108592947405
1088.4528655682225 6818.405548971072
1089.3360640664287 7005.76947628669
1090.2190441595321 6860.128113773671
1091.1018059104317 6865.531035069371
1091.98434938201 6949.954142011869
1092.866674637111 6960.890236854556
1093.748781738559 6921.493206795611
1094.6306707491512 6763.99314407195
1095.5123417316554 6906.3621576697915
1096.3937947488157 6834.5714275292685
1097.2750298633455 6774.994600247404
1098.156047137938 6675.465010287927
1099.0368466352556 6837.140145435708
1099.9174284179317 6942.095183652351
1100.7977925485757 6686.875898710956
1101.6779390897755 6658.857845341004
1102.5578681040806 6779.964451954996
1103.4375796540226 6708.558286298573
1104.3170738021054 6695.487518721525
1105.1963506108077 6444.0122241312765
1106.0754101425773 6546.692059814669
1106.9542524598382 6748.735578913287
1107.8328776249855 6614.006672907341
1108.7112857003904 6560.3393657326815
1109.5894767483987 6524.224906923831
1110.4674508313292 6727.117882350307
1111.3452080114657 6646.600358854276
1112.2227483510815 6773.040146596696
1113.1000719124077 6785.488957485063
1113.9771787576592 6868.406841868185
1114.854068949022 6779.160201589822
1115.7307425486542 6988.870741229142
1116.6071996186893 6947.188717997886
1117.483440221229 7273.4023356287635
1118.3594644183577 6996.810785999731
1119.235272272128 7095.342552084248
1120.1108638445658 7280.076983643831
1120.9862391976712 7550.963489945284
1121.8613983934229 7477.921514636359
1122.7363414937627 7437.7667414359
1123.6110685606182 7453.892887094633
1124.485579655884 7764.152429203609
1125.359874841426 7616.444151621657
1126.2339541790916 7647.96682002075
1127.1078177306936 7901.296386701343
1127.9814655580267 7688.997293095485
1128.854897722851 7810.159818360642
1129.7281142869106 7721.200362657939
1130.6011153119125 7851.0653468232285
1131.473900859548 8004.453745374851
1132.3464709914697 7850.491737328417
1133.2188257693178 7861.3318119155865
1134.0909652546961 7709.294585939293
1134.96288950919 7623.885696272775
1135.8345985943506 7745.784989490989
1136.7060925717087 7482.280163968627
1137.57737150277 7557.00304612027
1138.4484354490069 7635.346855660218
1139.3192844718778 7375.417445578326
1140.1899186327992 7202.492639893481
1141.060337993178 7456.148807395484
1141.930542614382 7169.3678940448135
1142.8005325577597 7088.814072903531
1143.670307884635 6879.0701309432525
1144.5398686563003 7025.647199201587
1145.409214934025 6943.9027456277345
1146.2783467790541 6689.026133631291
1147.1472642526023 6814.316156347707
1148.0159674158622 6818.007124388828
1148.8844563300026 6578.89551204354
1149.7527310561618 6491.54832824044
1150.6207916554504 6500.945909615439
1151.4886381889592 6409.561045125965
1152.3562707177498 6570.598575585561
1153.2236893028585 6421.892618509381
1154.090894005296 6281.557884814687
1154.9578848860474 6311.907587853341
1155.8246620060709 6315.355592429295
1156.6912254262988 6096.02715083518
1157.5575752076438 6235.795947113607
1158.42371141098 6393.266809409406
1159.2896340971656 6308.424623725321
1160.1553433270346 6188.406024211488
1161.0208391613887 6303.846047992615
1161.8861216610057 6245.791374327927
1162.75119088664 6257.6310215398025
1163.6160468990201 6102.802225840039
1164.4806897588442 6072.90926842848
1165.3451195267917 6187.47404930891
1166.2093362635114 6242.8388216790045
1167.0733400296285 6142.188824925486
1167.9371308857444 6052.394275563554
1168.8007088924278 6087.276664588104
1169.6640741102328 6119.77257430536
1170.5272265996773 6027.159954588445
1171.390166421259 5856.152421992987
1172.252893635452 6211.660304845927
1173.1154083026995 6361.082144229766
1173.977710483421 6288.556880130012
1174.8398002380145 5999.288440332699
1175.7016776268483 6184.949444760252
1176.563342710264 6125.324173158509
1177.4247955485826 6022.426248902134
1178.2860362020947 6227.042685137172
1179.147064731069 6024.860530709414
1180.0078811957483 6184.259451568488
1180.8684856563486 6202.643682608151
1181.7288781730604 6189.011983974626
1182.589058806052 6173.027650960941
1183.4490276154593 6464.651864542156
1184.3087846614017 6123.908267824162
1185.1683300039676 6309.862166893319
1186.027663703222 6457.658097485435
1186.8867858192025 6313.072427067695
1187.7456964119228 6367.039995694429
1188.6043955413716 6485.700479818772
1189.4628832675116 6591.814235980737
1190.3211596502842 6708.629608115427
1191.179224749596 6656.860556053371
1192.0370786253388 6473.709055449186
1192.8947213373758 6753.185840647153
1193.7521529455407 6893.054450851079
1194.6093735096438 6624.943067940566
1195.466383089477 6591.3080141859855
1196.3231817447977 6622.338283840359
1197.1797695353398 6901.320203597458
1198.0361465208189 6572.065079231221
1198.8923127609214 6619.881767571069
1199.7482683153048 6877.360200848119
1200.6040132436028 6908.2705555300445
1201.459547605431 6585.34758876404
1202.3148714603722 6790.984570030336
1203.1699848679855 6780.091206076334
1204.0248878878065 6843.494566701685
1204.8795805793507 6428.229771778172
1205.7340630020935 6678.091737917876
1206.5883352155033 6726.6815437740715
1207.4423972790064 6656.572199885215
1208.2962492520237 6569.546205192276
1209.1498911939307 6498.073686421742
1210.0033231640937 6520.145473908725
1210.8565452218427 6579.199450215216
1211.7095574264913 6191.507757590109
1212.5623598373222 6288.192247866196
1213.4149525135963 6101.282683295661
1214.2673355145507 6390.901657958565
1215.1195088993936 6234.827936480962
1215.9714727273113 6153.696584742529
1216.8232270574663 6403.25809946646
1217.6747719489904 5969.95880117395
1218.5261074609934 6041.885485847851
1219.3772336525653 6286.68876996523
1220.2281505827668 6226.768398426208
1221.0788583106296 6285.6508151972175
1221.9293568951707 5971.775419860067
1222.7796463953746 5946.699191184708
1223.629726870202 6119.311034843973
1224.4795983785934 6150.887853518898
1225.3292609794553 6096.818432888436
1226.1787147316809 5868.243059321042
1227.0279596941327 6006.683569566249
1227.8769959256424 5886.988453200799
1228.7258234850306 6082.088449142858
1229.5744424310833 5779.600719363596
1230.422852822563 6044.610533485881
1231.2710547182105 6186.040130444371
1232.119048176739 6050.917471295117
1232.9668332568417 5750.016463264492
1233.8144100171812 5977.881280523961
1234.6617785163999 6005.6912368335925
1235.508938813111 5639.0095706507145
1236.3558909659114 5805.088500579288
1237.2026350333617 6003.52359677102
1238.049171074008 6005.496238005509
1238.8954991463652 5838.401132720584
1239.741619308932 5801.51558862665
1240.587531620169 5552.005937461414
1241.4332361385277 5937.893454444831
1242.2787329224248 5793.067557716027
1243.1240220302534 5729.926511868748
1243.9691035203869 5704.8393824676095
1244.813977451171 6045.945260188578
1245.6586438809263 5920.050049197281
1246.5031028679496 5633.225597846822
1247.3473544705157 5935.02418345385
1248.1913987468706 5847.296991861622
1249.0352357552383 5625.567739853008
1249.8788655538228 5713.695724645122
1250.7222882007918 5972.349707227716
1251.565503754302 5935.922524834961
1252.4085122724755 5557.969164540555
1253.2513138134182 5894.696313933102
1254.0939084352049 5880.23798352287
1254.9362961958905 5829.974678012321
1255.7784771535007 5770.755300871764
1256.6204513660432 5929.845219359754
1257.4622188915 6057.448801393376
1258.3037797878242 5777.1547704715285
1259.1451341129468 5784.714649514332
1259.9862819247755 5899.229315213281
1260.8272232811978 5855.970141498692
1261.6679582400666 6078.218361580569
1262.5084868592203 5639.996750311417
1263.34880919647 5695.735387477432
1264.1889253095997 5938.081155801262
1265.0288352563712 5958.885500068265
1265.8685390945266 5822.322243382325
1266.7080368817751 5853.2529412044205
1267.5473286758115 6046.565038401323
1268.386414534294 5981.646837231239
1269.2252945148703 5574.579113826847
1270.0639686751547 5740.449204861026
1270.9024370727402 5732.624525920457
1271.7406997651997 5661.70902598532
1272.5787568100714 5569.647524099851
1273.4166082648808 5746.042855694183
1274.2542541871244 5775.548900992247
1275.091694634275 6041.95114331988
1275.9289296637817 5550.33340713168
1276.7659593330663 5811.042955906434
1277.6027836995308 5760.128355933635
1278.4394028205552 5924.628358662818
1279.2758167534867 5725.928696572431
1280.112025555658 5710.4661381911355
1280.9480292843746 5760.8912188266195
1281.7838279969128 5563.142371215371
1282.6194217505326 5659.6479451766
1283.4548106024686 5514.961618552371
1284.289994609926 5710.022039638089
1285.1249738300921 5723.6606042923795
1285.959748320127 5589.5492991291
1286.7943181371702 5615.007959631977
1287.6286833383328 5614.192924340033
1288.4628439807038 5705.427520202065
1289.2968001213521 5525.903701529223
1290.1305518173194 5518.594800912853
1290.9640991256183 5672.691168655556
1291.7974421032523 5574.437969908049
1292.630580807183 5586.08173400951
1293.463515294361 5715.3324081464625
1294.29624562171 5795.9980528788565
1295.12877184613 5568.56008226267
1295.961094024493 5564.308840471878
1296.79321221365 5766.568985236345
1297.6251264704333 5757.533911220997
1298.4568368516466 6000.428666326035
1299.2883434140658 5775.585147926844
1300.1196462144526 5625.226360152192
1300.9507453095375 5809.196972507513
1301.7816407560313 5835.059612483343
1302.6123326106172 5812.264993605595
1303.4428209299622 5654.040672866626
1304.2731057707024 6027.172273650804
1305.1031871894502 5728.156992151869
1305.933065242798 5934.227168803828
1306.7627399873181 5808.795583227726
1307.5922114795467 6227.681275341737
1308.4214797760123 6327.318123704563
1309.2505449332057 5881.356460029845
1310.0794070076026 6043.227856154483
1310.9080660556538 6205.698766404051
1311.736522133786 6221.596871705953
1312.5647752983987 5932.272625768616
1313.3928256058734 5765.626995374695
1314.2206731125661 6117.113835689264
1315.048317874809 6040.918456199175
1315.8757599489109 6023.107128193064
1316.7029993911547 5980.062647212473
1317.5300362578055 6175.27184143543
1318.356870605101 5881.320480299523
1319.183502489257 5978.83540991313
1320.0099319664623 6038.670114037618
1320.836159092889 6200.049865235456
1321.66218392468 6199.699484699189
1322.4880065179532 5920.0560592634965
1323.3136269288134 6052.332922556749
1324.1390452133292 6298.823138403624
1324.9642614275563 6318.4869073297505
1325.7892756275214 6094.817586172913
1326.6140878692295 5923.137717192513
1327.4386982086617 6547.701848913096
1328.2631067017755 6224.085809331833
1329.0873134045069 6195.456835119536
1329.911318372764 6092.816380449745
1330.735121662441 6049.577322103448
1331.558723329399 6049.011055739534
1332.3821234294774 5921.148612684357
1333.2053220185007 6125.192557205068
1334.0283191522612 5983.164475935291
1334.851114886529 6115.58438863768
1335.6737092770582 5946.257408027585
1336.4961023795695 6011.698904526262
1337.3182942497697 5909.241333713109
1338.1402849433325 5978.172438520866
1338.962074515921 5789.37272967951
1339.7836630231632 5700.408438411583
1340.6050505206676 6317.486139450351
1341.426237064028 6134.494569268052
1342.2472227088037 5786.458805716896
1343.0680075105338 5826.6387865908855
1343.888591524741 5961.544906159534
1344.7089748069138 6090.4304077515835
1345.5291574125276 5936.585739168034
1346.3491393970307 5828.121732143681
1347.168920815846 6031.884702602218
1347.9885017243778 5968.959130601273
1348.8078821780036 5893.396035113631
1349.6270622320844 6008.520516022685
1350.4460419419447 5723.468261727498
1351.2648213629054 5948.9326169482065
1352.0834005502438 5664.400061951526
1352.90177955923 5759.25837235891
1353.7199584451064 5925.861739553997
1354.5379372630887 5915.232555808519
1355.355716068374 5803.859730654698
1356.1732949161305 5731.748828451811
1356.9906738615155 5858.717394360421
1357.8078529596478 5765.956364202725
1358.6248322656375 5906.171680799469
1359.441611834567 5725.93554949777
1360.2581917214866 5964.969598257603
1361.0745719814367 5798.8156632491755
1361.890752669433 5686.049233339816
1362.7067338404577 5591.422456879477
1363.5225155494845 5916.565737764259
1364.3380978514506 6006.013930813803
1365.1534808012839 5590.523133598786
1365.9686644538815 5377.874210658206
1366.783648864117 5898.234414268636
1367.5984340868417 5887.12638677118
1368.413020176893 5881.651833104383
1369.2274071890715 5497.98473665663
1370.0415951781652 5887.533585316569
1370.8555841989346 5694.746671296818
1371.6693743061223 5557.328300580344
1372.48296555444 5401.988929690476
1373.2963579985844 5780.471431543715
1374.1095516932255 5674.994995362489
1374.9225466930166 5404.1264917547705
1375.7353430525782 5687.216839891738
1376.5479408265164 5597.618440115656
1377.36034006941 5721.047774384795
1378.1725408358216 5744.74536697197
1378.9845431802805 5340.757519344271
1379.796347157304 5879.471680263316
1380.6079528213813 5625.499300301248
1381.4193602269788 5391.565676045992
1382.230569428546 5485.870745103226
1383.0415804805016 5849.487809397386
1383.852393437246 5709.664023669518
1384.6630083531563 5619.614120776405
1385.4734252825892 5409.0789128640445
1386.2836442798798 5520.214782383244
1387.0936653993322 5564.690172825892
1387.9034886952395 5447.680472938559
1388.713114221864 5567.306272592635
1389.5225420334482 5635.245376002748
1390.331772184214 5414.831560389078
1391.1408047283585 5302.499379064024
1391.9496397200564 5394.939791863352
1392.758277213461 5628.766885234433
1393.5667172627054 5670.510731239725
1394.3749599218918 5472.393222153631
1395.1830052451114 5306.436112991811
1395.9908532864265 5312.147976872654
1396.7985040998774 5574.077266907309
1397.6059577394808 5359.7068649608955
1398.4132142592352 5364.881559107254
1399.2202737131156 5316.596454979609
1400.027136155073 5608.552987988532
1400.8338016390353 5287.900372855885
1401.6402702189134 5268.760257849359
1402.446541948586 5401.490973383346
1403.2526168819204 5247.831088125989
1404.058495072757 5241.671893297717
1404.8641765749107 5268.491881102549
1405.6696614421799 5316.787790730219
1406.4749497283356 5707.968219219019
1407.280041487129 5263.016877332425
1408.084936772295 5049.093139327546
1408.8896356375335 5438.00199769687
1409.6941381365323 5298.006669008855
1410.498444322955 5024.1613823447915
1411.3025542504402 5209.150715719116
1412.106467972606 5213.582889074174
1412.9101855430508 5201.681758653574
1413.7137070153458 4915.569436586737
1414.5170324430437 5070.162657836901
1415.320161879672 5248.122511681713
1416.1230953787435 5412.493983254777
1416.925832993742 4999.793390614466
1417.7283747781275 4831.894706612373
1418.5307207853439 5146.669919612322
1419.3328710688093 5143.266828588333
1420.134825681922 4847.033828449034
1420.9365846780584 4891.855161862134
1421.7381481105713 5284.8354519837285
1422.539516032788 5083.64916813835
1423.3406884980232 4863.9495653412805
1424.1416655595604 4748.558871721286
1424.942447270665 4849.689908230224
1425.7430336845828 5072.044513768934
1426.5434248545298 4737.558250645886
1427.3436208337116 5043.914493638909
1428.143621675301 5045.883109822647
1428.9434274324558 5109.97827545925
1429.7430381583108 4785.630923748736
1430.5424539059713 4910.8011199811035
1431.3416747285337 5175.089502270968
1432.1407006790632 4995.603849766501
1432.9395318106053 5042.666392916117
1433.7381681761835 4697.43163427813
1434.5366098288014 5069.707123955264
1435.3348568214424 5026.265780924077
1436.1329092070573 4802.766847491992
1436.9307670385879 5000.951561835579
1437.7284303689503 5057.849891915451
1438.5258992510335 5142.698251204352
1439.3231737377118 4927.600654545984
1440.1202538818306 4783.275036792097
1440.9171397362225 4861.830386038011
1441.7138313536925 4860.422359047572
1442.5103287870243 4729.124956288646
1443.3066320889775 4697.991310777735
1444.1027413122956 5059.842443309259
1444.8986565096966 4835.999681131342
1445.694377733882 4772.3767084095225
1446.4899050375207 4620.106979882339
1447.2852384732687 4674.415703757561
1448.0803780937622 4782.562774633588
1448.8753239516063 4562.482121154426
1449.6700760993954 4465.523994071476
1450.464634589689 4650.3572179070525
1451.2589994750397 5013.389796476737
1452.0531708079689 4631.398916605124
1452.8471486409799 4544.768775226275
1453.6409330265524 4994.348901778783
1454.4345240171442 4607.871271200238
1455.2279216651987 4564.28017155904
1456.0211260231263 4618.436699128404
1456.8141371433194 4715.573496275163
1457.6069550781594 4766.5520917726935
1458.3995798799897 4471.478783056586
1459.1920116011424 4471.964018594647
1459.98425029393 4440.50358032838
1460.7762960106338 4550.173851386415
1461.5681488035225 4598.277759789222
1462.3598087248392 4667.875116161561
1463.1512758268036 4872.605822077179
1463.942550161617 4516.282606651329
1464.7336317814625 4520.464940705011
1465.524520738496 4548.581854782568
1466.3152170848552 4396.288274127025
1467.1057208726506 4587.390225313145
1467.8960321539817 4409.680077231133
1468.6861509809169 4336.910690000686
1469.4760774055085 4417.238055380252
1470.265811479785 4475.153284240334
1471.055353255755 4251.034764551306
1471.844702785409 4276.357383674515
1472.6338601207044 4280.583228352961
1473.4228253135934 4586.568476383118
1474.2115984159936 4182.101205026722
1475.0001794798063 4026.5597453592045
1475.7885685569145 4457.791216996504
1476.576765699172 4336.842049425142
1477.3647709584238 4215.802291993393
1478.1525843864802 4573.502585736617
1478.9402060351367 4442.787258231019
1479.7276359561693 4485.6711309219545
1480.514874201328 4283.992754771307
1481.3019208223468 4106.685506375308
1482.0887758709323 4034.2621786585596
1482.8754393987747 4418.071217939379
1483.6619114575406 4066.5769272460866
1484.4481920988783 4243.230124203723
1485.2342813744108 4331.984213034611
1486.0201793357446 4558.996708917946
1486.8058860344572 4223.89814599805
1487.591401522117 4230.139204018373
1488.3767258502594 4225.7929625970155
1489.1618590704056 4290.38185726653
1489.9468012340494 3857.0540463426723
1490.7315523926754 4349.074973046636
1491.5161125977356 4345.971706534815
1492.3004819006637 4242.139394433072
1493.084660352877 4012.361470623907
1493.8686480057622 4421.36359212114
1494.6524449106964 4591.578377978603
1495.4360511190262 4489.772603252188
1496.219466682087 4415.324419307505
1497.0026916511779 4331.217641417481
1497.7857260775945 4305.00985904864
1498.5685700125996 4451.061432872592
1499.3512235074395 4044.779489413605
1500.133686613337 4139.3855930671725
1500.9159593814966 4183.2408620009855
1501.698041863101 4786.795667299147
1502.4799341093094 4098.1270569854005
1503.2616361712662 4054.28506244686
1504.043148100087 4362.842714278473
1504.8244699468742 4364.778694717646
1505.6056017626997 4114.7157495001475
1506.3865435986281 4009.656109867922
1507.1672955056893 4358.247999660539
1507.9478575348967 4184.654190381183
1508.7282297372512 4481.049449290591
1509.5084121637192 4192.091663727554
1510.2884048652577 4279.712738330532
1511.0682078927948 4077.2756286105637
1511.8478212972423 4140.433952002445
1512.6272451294917 4103.0214769094755
1513.4064794404076 4272.881308869396
1514.1855242808433 4275.420725309771
1514.9643797016215 4222.404598680425
1515.743045753552 4301.88164197293
1516.5215224874191 4271.377339814293
1517.2998099539836 3967.11278380399
1518.077908203999 4087.959051879168
1518.8558172881785 4068.4766054317297
1519.633537257234 4297.459649556443
1520.4110681618404 4285.338892325863
1521.1884100526604 4244.673303782163
1521.9655629803365 4095.2257361771335
1522.7425269954856 4418.401169020164
1523.5193021487103 4557.147909905426
1524.2958884905856 4060.6940064155906
1525.0722860716687 4127.474859015094
1525.848494942502 4178.332545399339
1526.624515153595 4219.362834672181
1527.4003467554485 4216.169588271039
1528.175989798534 4339.6040916226475
1528.9514443333064 4210.291934409108
1529.726710410203 4509.887204212191
1530.5017880796331 3965.173753652497
1531.276677391992 4181.657344571992
1532.0513783976457 4438.434678843119
1532.825891146953 4123.217946454818
1533.6002156902414 4244.81313443495
1534.3743520778207 4189.150166911549
1535.1483003599806 4199.602630883312
1535.9220605869923 4295.556033146204
1536.6956328091019 4362.719739612465
1537.4690170765407 4235.699168801738
1538.242213439511 4328.847370969508
1539.015221948208 4299.47779852756
1539.78804265279 4235.390223418425
1540.560675603405 4049.9879968498653
1541.3331208501804 4409.054464842202
1542.1053784432224 4439.746571455605
1542.8774484326168 4284.604750069365
1543.649330868422 4402.736505164036
1544.4210258006842 4268.3426123993195
1545.1925332794308 4277.43996854047
1545.9638533546604 4310.529203157136
1546.7349860763552 4160.195391012743
1547.5059314944829 4670.0157880310235
1548.27668965898 4366.257866353235
1549.0472606197673 4300.258379608768
1549.817644426752 4171.407866287714
1550.5878411298072 4523.993770306831
1551.3578507787988 4387.410081022367
1552.1276734235635 4107.685391104147
1552.8973091139233 4276.497029788274
1553.6667578996767 4496.063201120427
1554.436019830604 4245.928492862091
1555.20509495646 4233.9749913559435
1555.9739833269869 4188.9413522916875
1556.7426849919011 4138.509969576406
1557.511200000903 4537.798922604191
1558.2795284036674 4383.678482856858
1559.0476702498509 4296.375148334424
1559.8156255890954 4551.453243804319
1560.5833944710157 4608.3545947475495
1561.3509769452048 4288.372224032514
1562.1183730612447 4315.337899744839
1562.8855828686865 4247.938946100259
1563.6526064170703 4646.266063602958
1564.4194437559127 4462.377337220706
1565.1860949347047 4258.4594928931565
1565.9525600029283 4631.635586294241
1566.7188390100328 4757.994371969706
1567.4849320054564 4262.791210369045
1568.250839038612 4359.0672674334555
1569.0165601588997 4267.331186553963
1569.7820954156887 4499.940521859757
1570.5474448583373 4319.003209055711
1571.31260853618 4292.557514706467
1572.0775864985299 4134.16282800259
1572.8423787946813 4445.5176922540495
1573.6069854739108 4203.523655808072
1574.371406585471 4388.299099240361
1575.1356421785986 4537.696213061717
1575.899692302506 4311.230173481925
1576.6635570063845 4370.625640788383
1577.4272363394157 4325.633859497166
1578.190730350747 4208.799855896753
1578.9540390895163 4423.547079697534
1579.7171626048384 3991.081790654778
1580.480100945806 4098.850247247527
1581.2428541614918 4210.964960371866
1582.0054223009538 4325.351815436651
1582.767805413223 4186.042101647783
1583.5300035473156 4228.350522398247
1584.292016752228 4446.903137110394
1585.0538450769309 4456.131092305893
1585.8154885703807 4165.456717800493
1586.5769472815136 3987.107152855545
1587.3382212592405 4315.25931391723
1588.099310552463 4502.905178359955
1588.8602152100484 4314.8346372695505
1589.6209352808564 4497.575442742037
1590.3814708137234 4244.270684172951
1591.14182185746 4589.648107230345
1591.9019884608679 4295.893241258734
1592.6619706727215 3981.9664721877643
1593.4217685417734 4416.020797937139
1594.1813821167616 4498.5400011159245
1594.9408114464022 4088.368476071925
1595.7000565793933 4232.112538603591
1596.459117564409 4401.138479579909
1597.2179944501113 4229.418012079901
1597.9766872851324 4160.111360503261
1598.735196118092 4468.746415349828
1599.4935209975883 4364.168795472919
1600.2516619721973 4451.220027475756
1601.0096190904787 4177.090412360098
1601.7673924009723 4271.061693097279
1602.524981952196 4070.7942380156537
1603.2823877926476 4240.497846560631
1604.0396099708087 4104.742724532576
1604.7966485351371 4042.4868720455256
1605.5535035340745 4207.9008266734945
1606.3101750160404 4602.13982065203
1607.0666630294363 4120.4665475654865
1607.822967622642 4075.5043037461774
1608.5790888440224 4177.361279795007
1609.3350267419137 4412.1782555673435
1610.0907813646445 4278.44793809568
1610.8463527605145 4213.255726161917
1611.601740977805 4348.612366496496
1612.356946064785 4215.432844967016
1613.1119680696902 3948.1990747341542
1613.8668070407512 4183.314649364092
1614.6214630261748 4085.562319761113
1615.375936074137 4295.492427921311
1616.1302262328118 4178.894549033395
1616.8843335503425 4264.033814786031
1617.638258074854 4028.978040289438
1618.391999854457 4136.026016996569
1619.1455589372363 4276.070638116854
1619.8989353712623 4228.360064473219
1620.65212920458 3849.1225752491787
1621.4051404852235 3993.0306993871054
1622.1579692611976 4143.075468635336
1622.9106155804966 3830.0478240862008
1623.663079491087 4088.3233019454783
1624.4153610409248 4301.472559608624
1625.1674602779385 3921.1140491979363
1625.9193772500403 3885.189240936944
1626.6711120051277 4275.058343838085
1627.4226645910676 4072.609408610667
1628.174035055721 3854.4564833591626
1628.9252234469168 4134.605320875489
1629.676229812474 3863.400865042705
1630.4270542001905 4360.09702993405
1631.1776966578382 3972.0738540500906
1631.9281572331747 4024.7810689399494
1632.678435973945 4163.488415320266
1633.4285329278573 4078.062858520497
1634.1784481426203 3676.6913572350686
1634.9281816659113 3822.549275741677
1635.677733545388 4136.340258492958
1636.4271038286934 3841.8906414531266
1637.176292563452 4105.026763914997
1637.9252997972635 4021.564635472709
1638.674125577716 4070.9198347333213
1639.4227699523672 4432.202525098962
1640.171232968767 3710.783620811336
1640.9195146744423 4061.0612423102334
1641.6676151168977 4195.643697367534
1642.4155343436178 4147.395256895294
1643.1632724020765 3856.496431473702
1643.9108293397167 3920.0072116057468
1644.658205203974 3904.615073593393
1645.4054000422566 4560.940165737111
1646.1524139019566 3824.341750867946
1646.8992468304423 3685.794125638128
1647.6458988750728 3891.5049902582673
1648.3923700831765 3902.0428666208995
1649.1386605020743 3881.7250296703264
1649.8847701790564 4190.706300651311
1650.6306991614038 4064.7084832781957
1651.3764474963682 4136.863922801049
1652.1220152311944 3741.8949551113465
1652.867402413096 4035.6378092150235
1653.6126090892776 3950.497494666186
1654.3576353069184 4237.602517139734
1655.1024811131829 4054.6757768847615
1655.8471465552066 3871.533535371071
1656.5916316801213 4112.48707397795
1657.3359365350298 4027.1119205748837
1658.0800611670165 3888.7639358352253
1658.824005623148 4026.524358791767
1659.5677699504722 3795.893770326665
1660.3113541960192 4077.2304602109043
1661.054758406799 3842.675680358604
1661.7979826297997 3738.146607231572
1662.5410269119966 3738.783131839168
1663.283891300338 4033.1006579440646
1664.0265758417645 3812.8585133544425
1664.7690805831826 3908.329359398185
1665.5114055714948 4060.346293976164
1666.2535508535748 4355.38102972077
1666.9955164762814 3537.5846838491016
1667.7373024864555 3885.2489200435098
1668.478908930916 3910.261692890308
1669.220335856462 3735.47000404989
1669.9615833098778 3807.5567536474978
1670.7026513379296 3729.606868256692
1671.44353998736 3825.20212433323
1672.1842493048916 3827.089999597881
1672.9247793372379 3736.6081371837513
1673.6651301310812 3915.1822888606234
1674.4053017330934 3726.80788331494
1675.1452941899242 3909.171816702218
1675.885107548207 3303.093326079922
1676.6247418545518 3409.6190488201237
1677.3641971555535 3559.9694972966913
1678.1034734977893 3759.1635256871787
1678.8425709278108 3682.71244543426
1679.5814894921605 3898.330199447344
1680.320229237359 3829.2528193322823
1681.0587902098978 3769.235016549217
1681.7971724562685 3541.2404344762485
1682.5353760229264 3560.7326233866684
1683.2734009563173 3728.747856659034
1684.0112473028657 3437.4411333843445
1684.7489151089794 3651.8635519115514
1685.4864044210462 3653.5720027507887
1686.2237152854377 3174.028720748408
1686.960847748498 3808.722348816487
1687.6978018565642 3359.3434212875663
1688.434577655944 3358.641742515722
1689.1711751929379 3244.9136873381613
1689.9075945138156 3485.301594527116
1690.6438356648396 3443.4578052953884
1691.3798986922448 2986.8985308367146
1692.1157836422499 3268.953748982051
1692.851490561059 3122.907749208232
1693.587019494853 3355.46798545744
1694.3223704897991 3022.040308330301
1695.0575435920364 3061.6989184663134
1695.792538847696 3513.0930151530547
1696.527356302886 3161.925178275606
1697.2619960036936 2873.9733763367267
1697.9964579961907 2970.4402162753076
1698.730742326432 2652.950214393595
1699.4648490404488 2758.3103475742364
1700.1987781842563 2931.960233733797
1700.9325298038548 3172.561689190163
1701.6661039452174 3282.2443164874885
1702.3995006543082 3111.8682320669127
1703.1327199770658 3276.953090183025
1703.865761959416 2916.3196629584404
1704.598626647261 3259.029854311245
1705.3313140864866 2919.4950750478197
1706.0638243229587 2873.3936726558604
1706.7961574025303 3070.552139065896
1707.528313371029 3029.688775437276
1708.260292274268 2674.03832461399
1708.9920941580403 2862.335975443959
1709.7237190681226 3023.335647217169
1710.4551670502697 2797.299465467205
1711.18643815022 2557.5241676454575
1711.9175324136959 3143.51195534634
1712.6484498863938 2746.5174149696236
1713.379190614005 2611.035889636127
1714.109754642188 2801.4306925454844
1714.8401420165883 2767.9788625140172
1715.570352782839 3262.5658181750496
1716.3003869865497 2876.2789983330395
1717.0302446733076 2639.8085690301114
1717.7599258886876 2776.396095591159
1718.4894306782444 3140.018187048363
1719.2187590875183 2557.1961815763375
1719.9479111620203 2985.444487597582
1720.6768869472544 2575.011324499598
1721.4056864887025 3057.179785175002
1722.1343098318284 3124.2752180561893
1722.8627570220742 2786.462696843584
1723.591028104871 2603.433683378484
1724.3191231256242 2431.2836256429337
1725.0470421297232 2702.350315444989
1725.7747851625427 2942.0196291566767
1726.5023522694337 2935.563545793378
1727.2297434957363 2755.6243749022683
1727.9569588867635 2616.0621986000237
1728.6839984878152 2893.358026256723
1729.4108623441734 2354.7149512221117
1730.1375505011038 2791.8417557692374
1730.8640630038426 2601.3307106069487
1731.5903998976264 2628.6701426933405
1732.316561227657 2745.7330855326395
1733.0425470391274 2479.8183154366357
1733.7683573772065 2652.0050590218843
1734.4939922870508 2568.5972662414556
1735.2194518137949 2731.3568496738812
1735.9447360025606 2745.091738590271
1736.669844898439 2634.400887902129
1737.3947785465189 2411.1162028718527
1738.1195369918605 2428.5324314845025
1738.8441202795093 2733.927407596891
1739.5685284544943 2647.960055433228
1740.292761561821 2771.4235363367193
1741.0168196464838 2703.4471318296564
1741.7407027534518 2678.2456750634587
1742.464410927687 2574.049685042627
1743.187944214118 2565.7064496792123
1743.9113026576688 2533.6869342424575
1744.634486303241 2668.52377454115
1745.3574951957125 2672.259503700383
1746.0803293799509 2787.7834973256954
1746.8029889008048 2551.5868725627597
1747.5254738031017 2591.1130863963726
1748.2477841316504 2464.0195760259294
1748.969919931249 2631.8615584188883
1749.6918812466665 2520.0214870094746
1750.4136681226646 2760.2653560768977
1751.1352806039777 2501.8859575046054
1751.856718735331 2190.2850623016384
1752.5779825614281 2323.1658676187803
1753.2990721269507 2606.501375690313
1754.0199874765676 2665.5220383556484
1754.7407286549314 2357.5464354615656
1755.4612957066693 2484.901815787295
1756.1816886763954 2434.234772386034
1756.9019076087097 2597.367984635596
1757.6219525481865 2606.359053865113
1758.3418235393856 2577.4844532704215
1759.061520626854 2574.1862978094123
1759.7810438551096 2807.337929527135
1760.5003932686614 2339.8394916535162
1761.2195689119999 2771.4462499234564
1761.938570829594 2597.0471686339815
1762.657399065898 2549.014066644081
1763.376053665348 2373.842542414545
1764.0945346723602 2344.0555671402817
1764.812842131334 2710.1095642481832
1765.5309760866512 2291.9462729917987
1766.2489365826787 2290.8634665089644
1766.9667236637597 2455.5411003109957
1767.684337374223 2165.8357459329563
1768.401777758383 2218.670538219369
1769.1190448605284 2315.222028458094
1769.836138724937 2303.5321852444763
1770.5530593958665 2474.269852711693
1771.2698069175603 2699.3852515612216
1771.9863813342326 2607.8178218028174
1772.702782690094 2380.6559984406053
1773.4190110293293 2696.8689478828956
1774.1350663961111 2589.334595355208
1774.8509488345844 2317.8149222215407
1775.5666583888924 2498.4313806101077
1776.2821951031437 2718.337034071348
1776.9975590214362 2369.1714311144306
1777.7127501878585 2602.068328687815
1778.4277686464684 2539.1159467456027
1779.1426144413108 2748.686454809221
1779.8572876164162 2698.9067096626377
1780.571788215797 2224.523600198773
1781.2861162834415 2495.877838983165
1782.0002718633277 2394.597010141255
1782.7142549994132 2513.7235056364198
1783.4280657356376 2512.9046946927215
1784.141704115922 2434.48909053187
1784.855170184177 2424.3894495533423
1785.5684639842839 2514.2998816944337
1786.2815855601148 2049.5846468598243
1786.9945349555237 2487.156651074951
1787.707312214343 2217.7656207869863
1788.4199173803918 2216.7426231902527
1789.132350497468 2215.910635879538
1789.8446116093583 2399.988042743996
1790.556700759822 2236.7455249683526
1791.2686179926077 2282.3568216443223
1791.9803633514493 2388.391877241177
1792.6919368800554 2123.5738346122876
1793.4033386221236 2455.744265997022
1794.1145686213295 2521.3200850269673
1794.8256269213307 2744.078654922065
1795.536513565774 2493.87928883622
1796.247228598284 2075.0707770369945
1796.9577720624693 2376.7939819168882
1797.6681440019165 2358.692543005981
1798.3783444602013 2424.366869388873
1799.0883734808776 2392.9324969899944
1799.7982311074884 2448.6417197760534
1800.5079173835475 2443.277328620921
1801.2174323525633 2533.4805746236443
1801.9267760580187 2349.4923510155572
1802.635948543386 2538.6709706076213
1803.3449498521113 2195.4650749027383
1804.0537800276325 2395.413983809166
1804.7624391133668 2370.396658445945
1805.47092715271 2060.3765745850897
1806.1792441890484 2187.7304013393996
1806.8873902657433 2528.5146434735743
1807.5953654261448 2398.299184929928
1808.3031697135812 2030.334457815098
1809.0108031713662 2370.152933275703
1809.71826584279 2345.178273643956
1810.425557771141 2353.3820583559163
1811.1326789996747 2317.3210585049737
1811.839629571632 2281.091468055296
1812.5464095302468 2293.0656926236343
1813.2530189187182 2329.978433198342
1813.959457780249 2309.270270846043
1814.6657261580076 2454.669049508092
1815.371824095153 2342.9340221878774
1816.0777516348262 2497.727775189782
1816.78350882015 1904.4696466479695
1817.4890956942272 2133.791896650945
1818.1945123001533 2242.904853912706
1818.8997586809928 2368.927602573434
1819.6048348798067 2188.441443712831
1820.3097409396287 2321.2451874950734
1821.0144769034796 2706.566025462125
1821.7190428143622 2451.026066835015
1822.423438715261 2411.706056510351
1823.1276646491478 2216.0270813235416
1823.8317206589727 2309.071220370907
1824.5356067876692 2323.9397419788434
1825.2393230781581 2286.6539485784383
1825.942869573335 2032.4516923868534
1826.646246316086 2040.4555431707345
1827.3494533492758 2420.174650554484
1828.052490715756 2263.462758463712
1828.7553584583547 2291.8267288542875
1829.458056619891 2343.8379308249614
1830.1605852431585 2257.0565224242046
1830.8629443709433 2070.930980790208
1831.5651340460063 2288.3456342850054
1832.2671543110919 2192.5004820032746
1832.9690052089318 2374.1761128098783
1833.6706867822395 2076.0393930295622
1834.3721990737104 2401.820227658532
1835.0735421260233 2472.3097816136715
1835.774715981841 2222.682167635553
1836.4757206838058 2611.742165897643
1837.1765562745459 2138.012002946765
1837.8772227966747 2073.0279427967316
1838.5777202927839 2152.3318891031886
1839.2780488054523 2197.5016214927523
1839.9782083772352 2084.873446090264
1840.6781990506806 2151.925356649322
1841.378020868313 2219.0641162276697
1842.0776738726418 2360.0951659247958
1842.777158106157 2145.921119061382
1843.4764736113375 2155.832315783729
1844.1756204306403 2389.8075329414796
1844.8745986065078 2356.2876198619333
1845.5734081813607 2032.503860510889
1846.2720491976124 2088.151106119369
1846.970521697649 2127.6032299718113
1847.6688257238511 2281.6063918337563
1848.3669613185684 2220.9074586788365
1849.0649285241452 1950.5504082235425
1849.7627273829057 2313.7552126701785
1850.460357937156 2225.1089615747223
1851.1578202291857 1902.651104640988
1851.8551143012664 2273.9964614096507
1852.5522401956569 2166.9618731990636
1853.2491979545957 2478.8460149095995
1853.9459876203055 2083.3568862870266
1854.6426092349902 2002.4321604690274
1855.3390628408451 2146.71658708079
1856.0353484800362 2494.997819117819
1856.7314661947203 2353.5351608187416
1857.4274160270397 2079.7300552620563
1858.123198019115 2255.190876807091
1858.8188122130487 1944.5594439098393
1859.5142586509319 2161.748688460166
1860.209537374838 2161.6997544205688
1860.9046484268183 2085.290463612266
1861.599591848917 2368.1332130394235
1862.294367683151 2065.8347605694444
1862.988975971528 2139.495953014982
1863.6834167560355 2249.777883161351
1864.3776900786452 2437.68391084671
1865.0717959813119 2075.2320854327836
1865.7657345059724 1994.7727036016652
1866.4595056945564 2325.19903505521
1867.1531095889586 2227.470194192942
1867.846546231076 1971.4862083061005
1868.5398156627743 2328.266674504035
1869.2329179259123 2077.280180922603
1869.9258530623283 2090.897460526995
1870.618621113843 2104.494218004388
1871.3112221222636 1922.7817995822436
1872.0036561293764 1995.4242548641748
1872.695923176956 2227.22372217291
1873.3880233067594 2295.741862529515
1874.0799565605212 2009.6201597225038
1874.7717229799673 2088.690285362325
1875.4633226068036 2399.797227542956
1876.1547554827175 2398.208605601597
1876.8460216493859 2118.45897946684
1877.5371211484617 2068.041358523147
1878.2280540215852 2327.9906148781365
1878.9188203103804 1966.012311996962
1879.6094200564548 2053.485465169698
1880.299853301396 2047.0870811906595
1880.9901200867826 2320.141106074321
1881.6802204541673 2197.564504271577
1882.3701544450942 2234.7150707477185
1883.059922101087 1926.869984999983
1883.7495234636517 2352.6709272206267
1884.4389585742792 2007.8970285169362
1885.1282274744517 2037.7577736182125
1885.8173302056166 2097.516455953185
1886.506266809225 2157.358197729845
1887.195037326701 1957.0437705809422
1887.8836417994517 2039.7147668602108
1888.5720802688702 2403.2997345683416
1889.260352776333 2304.8777435034403
1889.9484593632042 2372.917071613783
1890.63640007082 2096.0887767094064
1891.3241749405151 1975.8114367927083
1892.0117840135954 2177.618117142175
1892.6992273313572 2114.7505902276
1893.3865049350788 1999.6139900169305
1894.0736168660223 2096.614756177516
1894.7605631654333 2193.6936577154547
1895.4473438745408 1940.2442446038579
1896.133959034556 2086.293298516125
1896.820408686679 2232.432034700606
1897.506692872088 2312.3093519701265
1898.192811631945 2160.9570068657276
1898.8787650073991 2140.527094830198
1899.5645530395832 2277.529486051447
1900.2501757696118 2272.7257954788843
1900.9356332385796 1955.5729458356568
1901.620925487574 2074.1262355055833
1902.3060525576602 2193.046978640369
1902.9910144898859 2287.8221013669436
1903.6758113252872 2008.337761551554
1904.3604431048789 2258.973725923133
1905.0449098696663 2311.576158712368
1905.7292116606295 2155.421555853277
1906.4133485187394 2103.9278542401703
1907.0973204849488 1814.5959206536838
1907.7811276001976 1839.4154810664181
1908.4647699053967 2103.3284338227177
1909.1482474414588 1494.6874653523428
1909.8315602492694 1916.4992691077703
1910.5147083696957 2359.1910480958063
1911.1976918436012 2157.0440949874783
1911.880510711815 1985.7465679109584
1912.5631650151681 1926.4511921591425
1913.2456547944657 1867.0158711304116
1913.927980090495 2019.5774641356988
1914.6101409440362 2015.4705886146792
1915.2921373958416 2124.0471795886624
1915.9739694866603 2011.0080457705153
1916.655637257214 2397.2779502004737
1917.3371407482136 2112.161618281484
1918.0184800003572 2476.8568192860484
1918.6996550543154 2230.2286330696656
1919.3806659507554 2293.9034885418187
1920.0615127303208 2156.1249200545526
1920.7421954336423 2281.829503475078
1921.4227141013343 2244.9722889324103
1922.103068773993 2049.984744222337
1922.783259492202 2332.951657072338
1923.4632862965227 2041.1053709797402
1924.1431492275078 2059.145557349534
1924.8228483256917 1953.3635327753232
1925.5023836315922 2116.132813071214
1926.1817551857057 2289.9646300936
1926.8609630285227 1947.1249728690655
1927.5400072005123 2174.5663275299767
1928.218887742125 1925.7492350909083
1928.8976046938005 1936.0450780972049
1929.5761580959588 2215.596176423289
1930.2545479890086 1985.2525220373914
1930.9327744133352 1861.6196681394274
1931.6108374093164 2046.3524859261865
1932.2887370173066 1859.9076527930215
1932.9664732776473 2285.0456827336466
1933.6440462306673 2134.6693673453397
1934.3214559166754 1980.095030617494
1934.9987023759659 2352.1482266232733
1935.675785648813 2186.001719325218
1936.3527057754836 2334.2917053000647
1937.029462796223 1823.258114374034
1937.70605675126 1991.5021714095747
1938.3824876808085 1891.9197574606794
1939.058755625072 2057.8460979583033
1939.7348606242267 1922.9134083242902
1940.4108027184448 2095.9824614726863
1941.0865819478713 2217.846350304447
1941.7621983526478 1859.7249519709876
1942.4376519728921 1817.7863902394643
1943.1129428487038 2011.5973854558101
1943.7880710201734 2259.5486204594404
1944.4630365273733 2254.28855452395
1945.1378394103576 1784.327327047665
1945.8124797091714 1734.1312060589269
1946.4869574638324 1683.7747796701503
1947.161272714353 1911.1214099391248
1947.8354255007234 2125.3263802578394
1948.5094158629272 1991.937814437646
1949.1832438409183 2218.160781581054
1949.8569094746435 2235.640465148323
1950.530412804037 2348.11899040199
1951.2037538690092 2267.7643306726345
1951.8769327094578 1988.2149096921942
1952.5499493652678 2019.0623481817722
1953.222803876306 2346.4761019364682
1953.895496282421 2111.788355656024
1954.5680266234522 2165.8889821588996
1955.2403949392155 2202.429008046189
1955.9126012695142 1750.3851022814426
1956.5846456541403 2080.3390112683164
1957.2565281328643 1952.7970370529881
1957.9282487454457 2171.0377248844225
1958.5998075316202 2123.71385403347
1959.27120453112 1990.2959851631015
1959.9424397836501 1977.1893721873755
1960.613513328908 2135.6080135018847
1961.2844252065697 2236.392066600054
1961.9551754563017 1918.1021381269068
1962.6257641177453 1767.237784113844
1963.29619123054 1736.0058061169161
1963.966456834296 1927.937363646098
1964.6365609686181 1799.162451007173
1965.306503673086 1825.2831393287113
1965.976284987275 1851.3844548196932
1966.645904950734 2007.0981428355067
1967.315363603002 1783.1690460231962
1967.9846609836077 1927.002184362115
1968.6537971320486 1956.3538702265128
1969.3227720878222 2121.905246947254
1969.9915858904042 2001.0827430293896
1970.660238579252 2007.6807991558264
1971.3287301938108 1915.5620379228978
1971.997060773514 1902.6602608469416
1972.665230357772 1792.0100976625931
1973.3332389859843 1954.7313495525336
1974.0010866975335 1788.8404357524985
1974.6687735317864 2019.5344557563428
1975.3362995280932 2017.3193972852048
1976.003664725793 2031.903666455728
1976.6708691642052 2046.3698411344856
1977.3379128826364 2060.6926350594954
1978.004795920373 2159.5296303538717
1978.6715183166925 1895.7676987565962
1979.3380801108524 2132.092164191769
1980.0044813420973 1886.0132667341218
1980.6707220496555 1607.7960993001411
1981.3368022727373 1891.6291997611875
1982.0027220505417 1938.1552356375385
1982.66848142225 1519.6831786541627
1983.3340804270283 1683.3762922381843
1983.999519104027 2060.9780601865104
1984.6647974923835 1980.7819243020488
1985.329915631215 2170.6062249574106
1985.99487355963 1861.029241236285
1986.6596713167146 2124.422126543846
1987.3243089415428 1719.3678096659155
1987.9887864731754 2165.444597953875
1988.6531039506553 1808.0761256150593
1989.3172614130071 1834.8681371431098
1989.9812588992481 1861.7352856926082
1990.645096448372 1588.2226996284385
1991.3087740993633 1969.374592062845
1991.9722918911848 1950.9184701900947
1992.635649862792 1970.999653048823
1993.2988480531185 2088.6379334702824
1993.9618865010852 1888.94511330289
1994.6247652455968 2171.720102852193
1995.287484325545 1890.4085037061839
1995.9500437798033 1910.9137517596978
1996.6124436472292 1841.7006593508904
1997.2746839666706 2101.4998591477106
1997.936764776954 1896.2986236384538
1998.598686116895 1779.721797449675
1999.2604480252903 2240.372884073253
1999.9220505409212 2160.7712867324835
2000.5834937025593 1797.107443698727
2001.2447775489582 2024.3326922997294
2001.9059021188514 1895.4111731925045
2002.5668674509616 1697.012706893384
2003.2276735839987 1873.7328192409186
2003.8883205566508 2162.114662367315
2004.5488084075987 1844.3029934151903
2005.2091371755014 1913.8099443633891
2005.8693068990033 1715.505004372705
2006.5293176167397 1693.58774773012
2007.1891693673224 1671.7860372669961
2007.848862189354 1767.8513473396652
2008.5083961214223 1836.2256468480668
2009.1677712020955 1706.2789450401656
2009.8269874699254 1758.3277477468953
2010.4860449634598 1695.9476130129606
2011.1449437212177 1633.5039356162158
2011.8036837817108 2230.5431237218636
2012.4622651834325 2207.6062413273303
2013.1206879648653 2105.0177240085573
2013.7789521644736 1860.430713350402
2014.4370578207036 2135.6251272931772
2015.0950049719922 1907.1755901528002
2015.7527936567585 2011.2792552010244
2016.4104239134067 1962.465918190133
2017.067895780323 2350.301432909361
2017.725209295886 2295.3390810812475
2018.3823644984514 2240.1677965892736
2019.0393614263648 2003.1723477871515
2019.6962001179545 1928.2374488864637
2020.3528806115355 2105.507866157845
2021.0094029454067 2056.109626934143
2021.6657671578487 1689.4304725198679
2022.321973287133 1806.2501726805458
2022.9780213715148 1769.2598980797102
2023.6339114492293 1986.4765431100277
2024.2896435585026 1724.2539629349267
2024.9452177375442 1954.129776355568
2025.600634024544 2227.970217730511
2026.2558924576842 2002.865192691473
2026.9109930751292 2206.4124792359926
2027.565935915025 1744.3220773047942
2028.2207210155066 2132.603420016368
2028.8753484146964 2298.198132057182
2029.529818150695 2198.0035776874847
2030.1841302615903 2097.342190291901
2030.8382847854573 1778.267045784066
2031.4922817603601 1889.0597396195924
2032.1461212243357 1915.5894375021471
2032.7998032154192 1682.055619200873
2033.4533277716218 1825.4070241905447
2034.1066949309443 1697.4526761905902
2034.7599047313688 1721.9712085783715
2035.4129572108704 1779.4400060478517
2036.0658524074006 1836.9498472413968
2036.7185903589016 1949.6748996863657
2037.3711711032956 1974.421623707786
2038.023594678496 1978.3849053971517
2038.675861122394 1702.952651472578
2039.3279704728757 1715.324030760336
2039.9799227678031 1727.881460902266
2040.6317180450278 1857.5877172606044
2041.2833563423865 1834.4346957796533
2041.9348376977014 2334.907370790698
2042.5861621487784 2069.4994160168612
2043.2373297334088 1879.097456048968
2043.8883404893695 1853.237678390765
2044.5391944544208 2027.0662490100653
2045.1898916663158 2109.350053254203
2045.8404321627804 1926.4251816193755
2046.4908159815368 1743.053463291786
2047.1410431602853 1816.9517314781613
2047.7911137367173 1678.9726156870256
2048.441027748504 1698.3196925744683
2049.090785233302 1717.622184221686
2049.7403862287592 1790.22629835777
2050.389830772503 1734.333542706347
2051.0391189021466 1678.4371283578616
2051.688250655294 1887.2921776217238
2052.337226069527 1647.7229060878665
2052.986045182417 2002.263439139028
2053.634708031521 1936.7703955995391
2054.283214654375 1871.3033873329296
2054.931565088511 1596.4972043138027
2055.579759371436 1657.7435562483042
2056.2277975406523 1912.2827003969269
2056.8756796336384 1724.8012733655553
2057.5234056878617 1967.4776124701427
2058.1709757407752 1792.3263144929733
2058.8183898298194 2136.105395026707
2059.465647992416 1963.232389904034
2060.1127502659747 2087.0069551628167
2060.759696687888 1962.5749276540387
2061.4064872955405 1838.1346341825877
2062.053122126292 1634.9578082049256
2062.699601217497 1948.7763111286204
2063.345924606485 1764.470615968347
2063.992092330587 1844.4722421383708
2064.638104427102 1724.8801451789739
2065.283960933324 1868.058978681327
2065.92966188653 2011.3818440391126
2066.5752073239855 2124.732546782781
2067.2205972829397 1674.3659055776195
2067.86583180062 2011.7334685432008
2068.5109109142522 1877.2520374780954
2069.15583466104 1818.9325777330057
2069.8006030781708 1680.84256484367
2070.445216202821 1735.1679278514516
2071.089674072153 2064.237299895837
2071.7339767233116 2021.8395975618937
2072.3781241934303 1893.8504455065336
2073.0221165196253 2043.1566330695264
2073.6659537390024 1667.335993294901
2074.3096358886505 2044.2116114584155
2074.953163005637 1763.0174579623417
2075.596535127028 1598.2231721069006
2076.2397522898664 1617.5639895324755
2076.882814531182 1813.351747654769
2077.5257218879924 1665.4982029851549
2078.1684743973 1517.4428706919375
2078.8110720960885 1621.680477504934
2079.453515021336 1757.0165259790988
2080.095803209997 1892.4618316165343
2080.7379366990135 1939.4675936354924
2081.37991552532 2032.483634739331
2082.0217397258275 1933.3742549396234
2082.6634093374414 1508.3287727943448
2083.3049243970418 1823.6846318085936
2083.9462849415067 1974.6835418057915
2084.587491007689 1866.4758265581772
2085.2285426324324 1899.102436647777
2085.869439852564 1785.1445644596122
2086.510182704902 1671.047241150231
2087.1507712262483 1809.0909606906723
2087.791205453381 1587.05012949221
2088.4314854230743 1998.8168143443713
2089.0716111720867 1854.244165000003
2089.7115827371617 1445.8213996821648
2090.351400155023 1559.8183382605987
2090.991063462385 1674.0972372889967
2091.6305726959527 1568.5863886396526
2092.2699278924047 1912.9212202824299
2092.9091290884153 1739.9060084982364
2093.548176320641 1647.1683395273783
2094.187069625721 1872.3561462613864
2094.8258090402887 1606.2928991598508
2095.464394600951 1928.0449697606298
2096.102826344313 1809.3113610014873
2096.741104306955 1892.3756618656012
2097.379228525453 1648.69715066482
2098.017199036358 1486.883648758888
2098.6550158762147 1997.6875080305945
2099.2926790815527 1897.2200900550845
2099.9301886888825 1729.175477938986
2100.5675447347076 1920.20820932938
2101.2047472555114 1770.1391856613893
2101.841796287761 2064.7041365505493
2102.47869186792 1918.0401458554763
2103.1154340324265 1677.8632093689332
2103.752022817709 1806.8922149342197
2104.388458260184 1710.0974921051104
2105.024740396251 1846.6258766651263
2105.660869262292 1614.921339872795
2106.296844894685 1983.3624122709657
2106.93266732978 1723.8613992939004
2107.5683366039284 1509.2737790870901
2108.2038527534532 1882.6211920584203
2108.8392158146726 2105.73892872561
2109.4744258238843 1758.7869380643838
2110.1094828173755 1830.8048870699931
2110.744386831422 1855.46118577234
2111.3791379022787 1880.2120646006267
2112.01373606619 2034.8726612146888
2112.648181359389 1821.1028180833487
2113.28247381809 1856.1715253809755
2113.916613478492 1879.1369878340186
2114.550600376786 1904.4918572589959
2115.1844345491445 1854.4514707870367
2115.818116031729 1658.1914850187925
2116.451644860679 1748.835215195412
2117.085021072133 1748.746094783489
2117.718244702204 1748.5677665781106
2118.3513157869984 1638.9890617889328
2118.984234362604 1548.7009306296482
2119.617000465092 1742.0277559687424
2120.249614130529 1741.5632579644848
2120.8820753949585 1741.1010477645864
2121.5143842944162 1672.6347913196946
2122.14654086492 1609.0725432686575
2122.7785451424734 1548.6192623626869
2123.4103971630702 1488.2175887191142
2124.042096962681 1741.2541713059468
2124.6736445772767 1929.733602657571
2125.305040042802 1629.8383552340633
2125.936283395191 1777.9590142679504
2126.567374670365 1788.955987745865
2127.198313904233 1792.3799973548903
2127.8291011326855 1660.3351983522293
2128.4597363916037 1527.8168304407936
2129.0902197168507 1861.1084215817032
2129.720551144279 2052.9346616063963
2130.3507307097225 2244.892369128517
2130.980758449008 2141.675298129607
2131.6106343979427 2081.8494056422537
2132.2403585923203 2021.8483798758389
2132.8699310679276 1977.9349889865075
2133.499351860526 1952.6719869318379
2134.1286210058715 1817.4613375128088
2134.7577385397053 1970.2469070969291
2135.3867044977487 2123.2878547818564
2136.0155189157176 2228.464848406311
2136.644181829308 1995.8455992392574
2137.2726932742025 1883.3097616501054
2137.901053286074 1721.1635195501858
2138.5292619005777 1558.8231870629575
2139.1573191533535 1496.1224109404511
2139.7852250800315 1950.130509586225
2140.4129797162295 1816.004434300717
2141.0405830975433 1488.9198544089352
2141.6680352595613 1559.6873665362912
2142.2953362378576 1630.6082161719935
2142.9224860679915 1608.1922940784343
2143.549484785508 1646.4393317349757
2144.1763324259373 1691.079665734799
2144.803029024799 1677.473578131204
2145.429574617594 1678.9769291131233
2146.0559692398165 1873.2897144896488
2146.682212926942 1724.8094456257513
2147.308305714432 1772.989919397644
2147.9342476377333 2065.3110918230204
2148.5600387322847 2200.1339029341243
2149.185679033506 1749.4416238168815
2149.8111685768017 1680.5295169201822
2150.4365073975678 1523.687250990414
2151.061695531187 1727.926302089078
2151.686733013021 2036.178230509989
2152.311619878423 1783.7999528767075
2152.9363561627342 1569.3248185061107
2153.560941901278 1447.890954837149
2154.1853771293663 1801.928923848127
2154.809661882293 1727.6381896437538
2155.433796195348 1622.180676837048
2156.0577801037944 2088.2812824786743
2156.681613642895 1977.3439755750908
2157.3052968478896 1542.0733282831259
2157.928829754006 1801.2604517942295
2158.552212396462 2032.387400700954
2159.1754448104566 1896.839342555992
2159.7985270311783 1472.7059805874756
2160.4214590938027 1147.4801852639605
2161.0442410334927 1390.9592959518463
2161.6668728853874 1452.8471160052577
2162.289354684628 1514.9089956215464
2162.911686466332 1557.696113012619
2163.533868265602 1910.0367499608997
2164.1559001175337 2231.819602757239
2164.7777820572046 1928.8114928431642
2165.399514119681 1609.673288510136
2166.021096340013 1592.7315292851308
2166.6425287532384 1946.360652264196
2167.263811394385 1502.964830024181
2167.8849442984574 1568.8495776174414
2168.505927500455 1635.0264095491395
2169.126761035366 1862.746112919464
2169.7474449381552 1679.4761497711359
2170.367979243778 1816.5070936540665
2170.9883639871823 1953.985402201104
2171.608599203293 1509.1608278002716
2172.2286849270276 2262.930709504093
2172.8486211932886 2313.3165764349865
2173.4684080369625 1857.7755347304187
2174.0880454929265 1626.6033610151262
2174.7075335960417 1431.8092137597093
2175.3268723811543 1431.6112648914825
2175.9460618831 1431.4337235743255
2176.565102136701 1722.3355861157222
2177.1839931767627 1683.437503886366
2177.802735038078 1644.4607995169401
2178.421327755432 1541.4779770596956
2179.0397713635866 1478.1826834645306
2179.658065897298 1573.4953626160102
2180.276211391305 1868.0794561633343
2180.8942078803357 1601.3646598418295
2181.5120553991 1742.4825133902875
2182.129753982299 1481.6072215841093
2182.7473036646206 1755.77282078902
2183.3647044807367 1730.9063801021919
2183.9819564653044 1484.0354248280441
2184.599059652968 1768.7550180464325
2185.216014078367 1758.8004193909946
2185.832819776113 1870.324228003815
2186.4494767808137 1474.990847134422
2187.065985127063 1603.801727842343
2187.682344849436 1636.5301851973356
2188.298555982501 1753.249029022975
2188.9146185608097 1870.0571519632686
2189.530532618901 1943.5474477536195
2190.1462981912937 1718.1098835150176
2190.761915312507 1866.4857083718937
2191.377384017036 1628.4806348837897
2191.9927043393654 1511.4209948490118
2192.6078763139667 1280.9649098800708
2193.2228999753006 1444.757283346135
2193.837775357808 1608.9059474647993
2194.452502495922 1325.9168508475714
2195.0670814240602 1529.99939242069
2195.6815121766285 1489.037457930818
2196.2957947880186 1416.4169864124328
2196.9099292926057 1343.6548452028183
2197.523915724758 1759.0267511584418
2198.137754118825 1594.2965295966972
2198.7514445091456 2128.1006901669516
2199.3649869300443 2102.9395469917927
2199.9783814158327 2077.8079559155512
2200.5916280008096 2210.3752678026585
2201.2047267192593 1871.0375647503984
2201.8176776054515 1788.8061221691719
2202.430480693649 1852.8745200277954
2203.0431360180955 1917.1334473530605
2203.6556436130195 2054.6929853930988
2204.268003512645 1871.3690462389234
2204.8802157511727 1687.6255706497377
2205.492280362796 2060.525961006058
2206.1041973816937 1836.751693457738
2206.715966842032 1518.3717015735137
2207.3275887779655 1780.2822502147421
2207.93906322363 1792.479101443449
2208.550390213153 1997.2909704670378
2209.1615697806465 1921.8161114402824
2209.7726019602105 1452.4507921577922
2210.3834867859277 1339.1499526171594
2210.9942242918787 1625.1192733998764
2211.6048145121167 1645.6444674264408
2212.2152574806914 2474.4828046886605
2212.825553231638 1607.4453714194701
2213.435701798975 2434.326562904932
2214.045703216707 1650.2531778736054
2214.655557518832 1210.962391705142
2215.2652647393297 1433.204884816624
2215.874824912169 1543.2604131125977
2216.4842380713 1653.7396664087942
2217.09350425067 1423.9046973620198
2217.7026234842033 1667.1454153662446
2218.311595805819 1910.978248812063
2218.9204212494133 1639.1303303057944
2219.52909984888 2018.3917469484543
2220.137631638092 2034.1378215369289
2220.7460166509154 2049.7875383126775
2221.354254921198 1486.81273047802
2221.9623464827764 1723.5700892607006
2222.5702913694713 1772.5726891393078
2223.178089615096 2031.5977670570749
2223.7857412534486 1616.124300037991
2224.39324631831 1323.7532422201216
2225.000604843457 1620.521333174775
2225.607816862641 1875.8932784453605
2226.214882409611 1675.2064885394332
2226.8218015180973 1958.2675701612472
2227.4285742218217 1697.7869963555866
2228.0352005544864 1727.740608620246
2228.6416805497847 1683.8054523437993
2229.248014241399 1639.7819830012184
2229.8542016629945 1346.4160946336606
2230.460242848223 1792.3649802945952
2231.0661378307304 1593.1556605243286
2231.671886644139 1393.7555456465689
2232.277489322065 1317.6281897122528
2232.8829458981127 1250.1445443518135
2233.48825640587 1688.8166022940052
2234.0934208789095 2219.776236746463
2234.6984393507955 2027.5325534430874
2235.3033118550793 1778.230284074199
2235.9080384252975 1497.9999027078136
2236.5126190949723 1296.2353489303937
2237.1170538976166 1408.3065258710296
2237.721342866729 1253.0027443212655
2238.32548603579 1501.340807600743
2238.9294834382763 1594.8214570599862
2239.533335107646 1707.4839829744408
2240.1370410773434 1770.4324482577802
2240.740601380803 1594.1850204074667
2241.3440160514474 1843.7409251715424
2241.9472851226783 1830.5320119621906
2242.550408627896 1836.4639348020705
2243.1533866004793 1963.2096791949455
2243.756219073799 1605.2210359651262
2244.3589060812064 1516.6291554152208
2244.961447656049 1537.1836079978023
2245.5638438316564 1665.710672222303
2246.166094641343 1602.1891141528272
2246.7682001184166 1522.296153132356
2247.3701602961664 1734.3000468624214
2247.971975207871 1813.1776863481398
2248.5736448867974 1991.6888054587039
2249.175169366197 1543.078756450743
2249.7765486793123 1718.5208225232716
2250.3777828593684 1775.0065924350897
2250.9788719395783 1674.9815340061505
2251.579815953146 1649.2841936117918
2252.1806149332606 1517.5282208509834
2252.781268913097 1833.5168735280276
2253.381777925817 1812.2120702587115
2253.9821420045737 1790.8867298943496
2254.5823611825035 1800.981150066237
2255.1824354927303 1715.3255399777415
2255.782364968365 1471.580499147924
2256.38214964251 1857.8511919522311
2256.9817895482483 1535.9674517060198
2257.5812847186553 1403.5517190113446
2258.180635186791 1544.418221675205
2258.779840985704 1538.206022421658
2259.37890214843 1521.4879720851052
2259.97781870799 1656.1542184771338
2260.5765906973957 1791.0748616385179
2261.175218149645 1622.1526615604278
2261.773701097718 1507.2777248609907
2262.3720395745895 1392.1640473469947
2262.970233613216 1242.0119083233594
2263.568283246548 1305.0594253971703
2264.1661885075137 1368.1495252521854
2264.763949429038 1516.2006902413066
2265.3615660440246 2027.0802227785593
2265.959038385374 1361.915344181828
2266.5563664859637 1888.6506476518812
2267.153550378669 1335.0617156462142
2267.7505900963424 1766.8952579317204
2268.3474856718312 1401.37889760741
2268.9442371379664 1610.1267721978816
2269.5408445275643 1564.4678286723913
2270.1373078734377 1582.1738472737475
2270.7336272083758 1599.9217139791729
2271.32980256516 1581.7087132838365
2271.925833976562 1733.5641117914147
2272.5217214753357 1713.8361585548214
2273.117465094223 1694.0345178761697
2273.7130648659586 1455.8572563022317
2274.308520823257 1557.3107305879005
2274.903832998827 1712.8730948093682
2275.4990014253563 1555.7115287048978
2276.094026135528 1475.3890849244951
2276.6889071620117 1394.8659241053433
2277.2836445374614 1798.082065077401
2277.878238294519 1703.6118579836632
2278.472688465812 1457.1486823522896
2279.066995083962 1210.2640574900402
2279.6611581815705 1513.5720678784278
2280.255177791232 1482.1139832872173
2280.8490539455233 1699.1955563893164
2281.442786677013 1916.7379586972925
2282.0363760182554 2094.340662516754
2282.6298220017943 1597.9912317572948
2283.223124660155 2051.858121226146
2283.816284025859 1512.4823870243072
2284.4093001314086 2034.6308823882143
2285.002173009292 1433.085370749706
2285.5949026919952 1671.306001483381
2286.1874892119777 1687.3515106136958
2286.7799326016993 1651.550543879853
2287.3722328936 1246.2274880604223
2287.964390120109 1313.5267243674054
2288.556404313642 1820.1817486859622
2289.1482755066027 1982.4751176099198
2289.7400037313873 1644.9652329327487
2290.3315890203703 1597.324417479736
2290.9230314059205 1555.940591340898
2291.5143309203904 1514.5380545309206
2292.1054875961236 1564.9179468986652
2292.6965014654506 1941.7657016363967
2293.287372560684 1655.1433557559128
2293.878100914131 1577.5248180550416
2294.468686558086 1499.7913155846454
2295.059129524827 1676.4137129806102
2295.649429846617 1677.4536851189357
2296.239587555716 1678.448093945572
2296.8296026843636 1641.8574416862255
2297.419475264791 1624.2693523333357
2298.0092053292137 1606.5477096822183
2298.598792909839 2041.490508779306
2299.1882380388597 1631.5509984996736
2299.777540748455 2142.2510873039055
2300.3667010707904 1928.7720167657044
2300.9557190380256 1965.196720893507
2301.544594682302 2312.9913097494345
2302.1333280357503 2119.0822325617796
2302.721919130485 1925.0019444759223
2303.3103679986198 2093.3960268588235
2303.898674672242 2073.952279844908
2304.486839183437 1513.6426919351034
2305.0748615642697 1693.9896429097057
2305.6627418468015 1666.7102393408873
2306.2504800630704 1603.9483553188015
2306.8380762451143 1570.202690901099
2307.425530424949 1681.2954786466955
2308.012842634582 1792.6301553777091
2308.6000129060103 2107.859404464119
2309.187041271214 1787.778901933457
2309.773927762164 2096.445238834166
2310.3606724108213 1826.986864465001
2310.9472752491274 1418.342786969073
2311.5337363090184 1847.786521184842
2312.120055622414 1657.2220200154948
2312.706233221221 1500.5521236529607
2313.2922691373424 1848.1360917937213
2313.8781634026564 1446.01694297711
2314.463916049037 1739.3185027890272
2315.049527108342 1790.7399760882975
2315.6349966124235 2036.5262167070553
2316.2203245931123 2075.157473622055
2316.8055110822315 1808.534493398099
2317.3905561115935 1541.2739881419018
2317.9754597129977 1417.2937887840944
2318.560221918229 1342.720204645985
2319.1448427590603 1268.0065921213238
2319.729322267256 1379.0457118423549
2320.313660474563 1709.7667181117467
2320.8978574127195 1792.6792496793478
2321.481913113452 1875.9006358689683
2322.0658276084705 1456.4044343110922
2322.6496009294806 1562.053807616403
2323.233233108165 1743.3027656757058
2323.8167241762058 1410.657381303758
2324.4000741652617 1617.2750661882417
2324.983283106987 1921.768207831806
2325.5663510330232 1806.3465519291835
2326.1492779749933 1545.6398500847035
2326.7320639645204 1767.9229614296432
2327.3147090332004 1475.887941020849
2327.897213212629 1612.8504486234792
2328.4795765343843 1749.8787888207808
2329.0617990300307 1401.082008628651
2329.643880731124 2015.8958125834383
2330.22582166921 1441.8405663251979
2330.807621875816 1330.2929485776026
2331.3892813824623 1218.6805591695445
2331.9708002206517 1224.8838219251054
2332.5521784218818 1447.7188844493264
2333.133416017634 1671.0682471398766
2333.7145130393765 1526.4724431869333
2334.295469518571 1998.3417877319346
2334.876285486658 2012.4622142893768
2335.456960975076 2045.4256847877361
2336.037496015242 2078.4982659798043
2336.6178906385667 1658.1812025240074
2337.198144876451 1663.5447931021056
2337.778258760278 1703.2376807256285
2338.3582323214214 1772.213385872815
2338.938065591243 1841.3049122157524
2339.517758601087 2098.1133528918517
2340.0973113822965 1821.2345836444474
2340.676723966193 1464.3552415626289
2341.255996384094 1598.8097879497122
2341.835128667295 1975.51017945688
2342.4141208470883 2012.1218210658958
2342.992972954751 1737.0603927123
2343.5716850215467 1612.2561341741607
2344.1502570787306 879.7542414524581
2344.7286891575386 1391.268844427105
2345.3069812892045 2073.9935642394075
2345.885133504944 1861.6310420964098
2346.4631458359618 1709.7522206385827
2347.04101831345 1680.393939269631
2347.6187509685915 1650.9314211858782
2348.196343832553 1439.1011981761362
2348.7737969364935 1759.4123584198217
2349.351110311558 1524.7196361141305
2349.9282839888765 1476.7851003636956
2350.5053179995757 1484.822081123301
2351.0822123747585 1277.6515760917619
2351.658967145526 1291.8257887500674
2352.2355823429643 1306.0993509660461
2352.812057998144 1703.9206272851357
2353.3883941421263 1696.8051964046495
2353.9645908059647 1527.9744945103498
2354.540648020693 1626.4190426527007
2355.116565817336 1740.9756155510793
2355.6923442269126 1855.8043957573586
2356.2679832804224 1792.4964537553114
2356.8434830088518 1633.5305272893213
2357.41884344318 1651.1465146514045
2357.994064614377 1495.9942309339688
