#exp_cfg={"servo_angle": 0.0, "laser_lim": 100.0, "servo_angle_to": 18.0, "laser_wup": 0.0, "bt_dev": "EnSpectr-25AE3", "laser_wdn_max": 0.0, "frames": 10.0, "servo_used": 0, "servo_calib_use": 0, "laser_wdn_min": 0.0, "servo_pix_from": 90.0, "cooler_tout": 300.0, "servo_angle_from": 0.0, "servo_calib": "[-1.9174921013161362e-09, 3.9322238269163779e-05, -0.27385609119055809, 653.59552119713567]", "laser_autoctl": 0, "servo_pix_to": 3682.0, "laser_pw": 100.0, "cooler_on": 0, "laser_volt": 4.0, "cooler_autoctl": 0, "cooler_curr": 70.0, "cooler_startup": 10.0, "laser_fixed_pw": 0, "gain": 1.3, "offset": 2.53059635486, "servo_calib_degree": 3.0, "laser_curr": 55.0, "shutter": 8200.0, "servo_calib_step": 1.0, "laser_fixed_curr": 0, "exp": 2000.0, "ccd_volt": 4.7, "bt_addr": "00:06:66:62:5A:E3", "servo_delay": 500.0, "laser_autooff": 1}
#proc_cfg={"flat_auto_wnd": 200.0, "flat_auto_fr": 200.0, "flat_auto_shift": 5.0, "yconv": 1, "flatten": 1, "flatten_strength": 100.0, "xfrom": 300.0, "auto_max_frame": 2000.0, "auto_signal": 48000.0, "flat_auto_tol": 0.1, "autoclip": 1, "xrel_range": 0.0, "flat_auto_to": 4000.0, "intensity_adj": 1.0, "xrel": 7852.0, "rmhot": 1, "flat_auto_slit": 4.999999999999997, "auto_ini_exp": 300.0, "auto_off": 0, "xto": 2860.0, "flat_auto_ref": "", "flat_auto_rank": 1, "autobackg": 0, "xrel_adj": 0.0, "auto_black_lvl": 1, "base_wnd": 100.0, "sub_baseline": 0, "xconv": 2, "auto_max_exp": 1000.0, "auto_total_exp": 10000.0, "auto_exp": 0, "rmripple": 0, "black_lvl": 8284.0125, "shutter_clip_adj": 0.0, "auto_bckg": 0, "flat_auto_thr": 0.9, "subbackg": 1}
316.8218498245369 21180.785043936663
317.89969571804795 21051.95173670601
318.977263876126 21021.912269385946
320.05455438786703 20877.421296170167
321.1315673423287 20790.287646270976
322.2083028285215 20978.071672911006
323.2847609354267 20752.660946548818
324.3609417519747 20699.386598133857
325.43684536705587 20588.362037494913
326.5124718695279 20584.74094877267
327.58782134820103 20495.921559427374
328.66289389184385 20510.875013005178
329.7376895891921 20291.149108136437
330.8122085289342 20270.45557217045
331.88645079971866 20300.944172904157
332.9604164901575 20242.446952577164
334.03410568881554 20167.2379752366
335.1075184842266 20354.45052329354
336.18065496487543 20175.280924344548
337.2535152192122 20097.46784154781
338.32609933564163 20075.864380382238
339.39840740253203 20044.46118911747
340.4704395082099 19955.71785783432
341.5421957409617 19959.723356500745
342.6136761890357 20006.56811999081
343.6848809406365 19850.734541054284
344.75581008392874 19760.630398011308
345.82646370703696 19784.99628667357
346.8968418980512 19714.999089968303
347.96694474501055 19804.355684767503
349.0367723359268 19783.33504996588
350.106324758759 19717.28174170576
351.1756021014353 19464.177650831007
352.2446044518383 19545.35691166839
353.31333189781435 19675.154073841903
354.38178452716966 19518.408009911036
355.449962427665 19550.14775648582
356.51786568702846 19441.959692971006
357.58549439294256 19589.67255472099
358.6528486330535 19610.205950305168
359.71992849496564 19463.285106406034
360.7867340662433 19568.518980695328
361.8532654344144 19502.431856276435
362.9195226869597 19546.37706630407
363.9855059113288 19448.221015196676
365.05121519492604 19288.977972426743
366.11665062511565 19392.482965953634
367.1818122892273 19437.912945030017
368.2467002745434 19484.888365378447
369.31131466831175 19493.56849208445
370.375655557742 19440.391406382812
371.4397230299983 19416.795712184434
372.5035171722102 19424.00349797702
373.5670380714637 19432.796429665384
374.6302858148101 19488.22960629505
375.6932604892554 19488.022973614676
376.7559621817709 19515.97146209985
377.81839097928605 19326.99872979665
378.8805469686886 19355.81896022821
379.94243023683157 19486.138727982463
381.0040408705263 19329.47755998872
382.0653789565458 19149.291537203277
383.1264445816196 19296.830489434444
384.1872378324406 19223.29934906252
385.2477587956637 19207.372750642393
386.3080075579037 19163.772560114397
387.3679842057336 19031.74532004451
388.4276888256918 19095.445673037015
389.48712150426945 19065.406429747345
390.54628232792857 18926.770986325366
391.6051713830857 18863.443459371694
392.66378875611736 18941.300268318642
393.7221345333637 18943.12132599974
394.7802088011249 18833.521487655144
395.838011645661 18778.923897055247
396.89554315319765 18653.797975504156
397.9528034099112 18614.6272910044
399.00979250194723 18547.482681327918
400.06651051541485 18579.72152708486
401.1229575363741 18598.252901689924
402.17913365085224 18495.523883476133
403.23503894483656 18537.87043403643
404.2906735042761 18378.32634365882
405.3460374150818 18314.23515007644
406.401130763119 18350.422079760356
407.455953634224 18361.178944917574
408.5105061141876 18244.132908344945
409.56478828876243 18128.4636543671
410.6188002436629 18080.926600780025
411.6725420645689 18059.796993836717
412.72601383711117 18076.127775361274
413.77921564689314 18229.765212676648
414.8321475794728 18147.558058381474
415.88480972036814 17898.192124420944
416.93720215506437 17950.501136024184
417.9893249690049 17948.73693555581
419.04117824759123 17811.11466259484
420.09276207619223 17770.087849606993
421.144076540133 17776.792577754662
422.1951217247042 17738.81931929543
423.24589771515275 17747.447636807658
424.2964045966928 17667.668799146308
425.34664245449494 17733.93806481606
426.3966113736933 17692.62448263594
427.4463114393875 17582.959615007345
428.49574273662984 17491.877756108257
429.5449053504417 17425.986309886797
430.5937993658026 17597.791068189872
431.6424248676558 17362.54936595624
432.6907819409007 17408.092375733664
433.73887067040596 17497.52680913221
434.7866911409965 17488.417014462382
435.8342434374608 17369.887407911112
436.88152764455117 17333.43130286686
437.9285438469724 17265.929251945596
438.9752921294057 17229.78491235223
440.02177257648145 17234.555405328618
441.06798527279716 17119.618150902625
442.1139303029122 17308.49691053183
443.1596077513459 17188.93295414046
444.2050177025794 17212.19704500667
445.25016024105753 17159.601701793923
446.2950354511886 17108.712145661226
447.33964341733736 17142.16132782166
448.383984223834 17055.866959577485
449.4280579549686 16978.092510111972
450.471864694995 17106.944936609976
451.5154045281306 17029.694057654164
452.5586775385509 17001.686075053418
453.60168381039693 16965.530463843796
454.64442342776783 17093.049234244372
455.6868964747264 17010.963024728913
456.7291030353008 16951.046570584018
457.77104319347563 17092.764899899546
458.8127170332027 17003.871397737756
459.854124638392 17016.84248008813
460.895266092919 17121.413617313752
461.93614148061897 17058.029104324785
462.97675088529104 17138.225579300146
464.01709439069236 17088.090534412106
465.0571720805492 17033.966071136885
466.0969840385442 17111.631150294143
467.1365303483253 17200.360409594075
468.17581109350067 17093.76100471059
469.2148263576437 17111.840789389495
470.2535762242878 17101.57995256178
471.29206077693016 17221.371553018085
472.33028009902773 17254.75341503757
473.3682342740012 17297.346051958855
474.40592338523857 17208.353315771616
475.4433475160804 17350.603052247934
476.4805067498364 17229.354276624003
477.51740116978 17261.92233070604
478.5540308591426 17364.793513376542
479.59039590112116 17460.668478221887
480.6264963788726 17304.726284483295
481.6623323755193 17577.885692134525
482.6979039741436 17541.895996828367
483.7332112577915 17812.263348343175
484.76825430947247 17945.68213449582
485.80303321215797 17966.643378346886
486.837548048783 18025.882630869357
487.8717989022425 18182.431563933937
488.90578585539697 18274.376645751596
489.9395089910686 18358.145999813485
490.97296839203955 18217.231344981054
492.00616414106116 18139.388311054627
493.0390963208429 18104.72858168596
494.0717650140559 18092.30784314227
495.10417030333883 17871.290231387855
496.1363122712901 17800.388807826217
497.16819100046814 17643.82780777245
498.1998065734024 17577.921603606545
499.2311590725767 17484.387817385552
500.26224858044407 17240.506622529236
501.2930751794156 17145.696483894884
502.3236389518679 17078.430747119364
503.35393998014115 16844.058439100227
504.38397834653733 16828.680379050795
505.4137541333221 16746.96848771579
506.4432674227228 16591.549582685962
507.4725182969323 16559.325460384855
508.5015068381035 16615.56131353572
509.53023312835467 16509.17823651119
510.55869724976765 16520.94570131763
511.58689928438434 16287.57486969149
512.6148393142121 16289.52110219059
513.6425174212218 16387.899515835154
514.6699336873462 16361.88102210247
515.6970881944835 16344.45002181422
516.7239810244901 16268.856346774997
517.7506122591931 16310.070925623188
518.7769819803761 16323.281483919412
519.8030902697901 16411.025666652462
520.8289372091476 16261.178102248674
521.8545228801249 16451.372733393433
522.8798473643619 16325.11735242503
523.9049107434621 16272.966551754682
524.9297130989908 16437.935269110494
525.9542545124805 16328.475160071617
526.9785350654201 16206.572366345717
528.0025548392696 16296.852815947987
529.0263139154504 16199.930627666039
530.0498123753423 16258.7275675077
531.073050300296 16108.366193602846
532.0960277716204 16067.067893321606
533.1187448705896 16100.911261146277
534.1412016784416 16012.7868225393
535.1633982763833 15951.450418419085
536.1853347455726 15905.004205588883
537.2070111671401 15914.863308793452
538.2284276221817 15778.39400295722
539.2495841917516 15631.391849174372
540.2704809568677 15549.256484854826
541.2911179985167 15654.712293418721
542.3114953976419 15424.82997681968
543.3316132351592 15472.581084734082
544.3514715919409 15358.164155114995
545.3710705488247 15349.32134366096
546.3904101866156 15267.20566798733
547.4094905860784 15295.290890234446
548.4283118279418 15169.372474777647
549.4468739929034 15270.852753825511
550.4651771616191 15191.189406761201
551.4832214147063 15067.515681649678
552.501006832761 15204.424854339271
553.5185334963226 15119.215835180512
554.5358014859103 15178.846683483458
555.5528108820035 15096.50388762377
556.5695617650363 15065.80842629421
557.5860542154242 15120.700074203563
558.6022883135283 15068.617983317483
559.6182641396881 14973.141133786708
560.6339817741991 15030.501007206165
561.6494412973225 15120.088192437037
562.6646427892883 15071.093198463897
563.6795863302796 14973.043711992708
564.694272000459 14897.284536109006
565.7086998799423 15119.804019889407
566.7228700488104 14969.612605605886
567.7367825871115 14927.623531216206
568.7504375748576 14954.581986393921
569.7638350920224 15003.19622077429
570.7769752185486 14852.961308717242
571.7898580343353 14951.471340160895
572.802483619258 14869.010453076688
573.8148520531431 15049.728199390389
574.8269634157932 14998.091408586532
575.8388177869692 14910.063887661172
576.8504152463938 14953.752380530079
577.8617558737587 15187.068539875516
578.8728397487175 14951.689414307137
579.883666950891 15082.181195205107
580.8942375598654 15131.95242039672
581.9045516551851 15223.253415708876
582.9146093163617 15453.640910648526
583.924410622878 15237.428781595114
584.9339556541727 15264.124673758677
585.9432444896538 15506.892367362667
586.9522772086875 15332.662737559232
587.9610538906127 15335.450462482735
588.9695746147318 15268.201796117917
589.9778394603054 15383.30135150363
590.985848506567 15217.821112401984
591.9936018327098 15196.861118784916
593.0010995178891 14954.968332830866
594.0083416412344 15105.500129823547
595.0153282818283 14821.18325548697
596.0220595187293 14807.269433406147
597.0285354309508 14759.110380332524
598.0347560974806 14637.19289996818
599.0407215972609 14640.3379366718
600.0464320092051 14677.8247946643
601.0518874121954 14595.133590642721
602.0570878850685 14530.694606445768
603.062033506636 14559.968364898406
604.0667243556636 14527.075619081366
605.0711605108936 14435.376623609662
606.0753420510264 14647.97235046869
607.0792690547278 14561.655663235875
608.082941600629 14487.871646656105
609.0863597673306 14531.344170030914
610.0895236333909 14643.1142811957
611.0924332773357 14806.753665247952
612.0950887776617 14743.894780275088
613.0974902128219 14829.747105826964
614.0996376612384 14956.619441619056
615.1015312013005 15045.641037316062
616.1031709113595 15192.519314491647
617.1045568697336 15121.827132181852
618.1056891547069 15348.237016723142
619.1065678445229 15524.268339835768
620.1071930173985 15880.61310328935
621.1075647515099 15819.502089725134
622.1076831250048 15889.594018113272
623.1075482159849 16111.554547016038
624.1071601025305 16282.996666856232
625.1065188626781 16342.118167082392
626.105624574433 16664.002878513507
627.1044773157682 16635.78765122434
628.1030771646128 16848.737183548998
629.1014241988742 16909.217481105174
630.0995184964158 17088.852586472793
631.0973601350688 17214.925739244114
632.0949491926294 17301.4912599814
633.0922857468631 17047.455427065357
634.089369875499 17168.440091002325
635.0862016562278 17047.722959572457
636.0827811667077 16907.152332067235
637.0791084845641 16842.326395202323
638.0751836873878 16713.580212797417
639.0710068527369 16581.93614656492
640.0665780581294 16383.656325776261
641.0618973810506 16146.1963321108
642.0569648989604 16153.18054729884
643.0517806892676 15694.848061353172
644.0463448293649 15778.446264549402
645.040657396592 15493.040149551298
646.0347184682723 15264.339317855876
647.0285281216875 15027.750408036436
648.0220864340772 14935.964703819274
649.0153934826558 14725.721877875698
650.0084493446047 14649.727515457742
651.0012540970674 14624.322478257216
651.9938078171526 14405.277444803887
652.9861105819346 14399.465402495456
653.9781624684565 14371.266764368245
654.9699635537254 14125.397258790274
655.9615139147136 14154.564925865881
656.9528136283589 14060.405463576759
657.9438627715699 14131.475401149695
658.9346614212154 13958.51765956915
659.925209654135 13798.251044103823
660.9155075471263 13796.830687333
661.9055551769616 13770.663573630198
662.895352620375 13933.707280522387
663.8848999540678 13632.166698535879
664.8741972547068 13574.511973295079
665.863244598926 13468.244593143929
666.8520420633213 13655.41387991544
667.8405897244611 13501.09420771976
668.8288876588758 13281.442804016644
669.8169359430613 13467.21096259337
670.8047346534822 13347.135729365697
671.7922838665672 13230.645805059055
672.7795836587156 13391.300065850079
673.766634106285 13503.20172731573
674.7534352856092 13238.70757158667
675.7399872729766 13192.514354454437
676.7262901446538 13311.273110724695
677.712343976862 13334.568616257075
678.6981488457986 13249.107050948975
679.6837048276229 13062.41590729376
680.6690119984596 13117.38347851925
681.6540704344043 13176.653559913015
682.6388802115107 13128.154788780093
683.6234414058108 13182.674301118017
684.6077540932874 12978.192447292478
685.591818349907 13049.18896862809
686.575634251587 13012.380533428537
687.5592018742263 12940.001828401872
688.5425212936734 12735.545496799738
689.5255925857564 13035.820278570414
690.5084158262707 12863.181592027535
691.4909910909646 12788.345655066181
692.4733184555644 12732.83594832315
693.4553979957618 12863.174995254176
694.4372297872123 12801.060231048179
695.4188139055404 12725.316794769891
696.4001504263324 12553.465614120552
697.3812394251509 12695.283406426423
698.3620809775111 12562.128288831913
699.3426751589104 12578.661086664706
700.3230220448004 12505.006302000762
701.3031217106054 12554.169360242471
702.2829742317172 12738.090811665319
703.2625796834873 12448.881169836848
704.2419381412474 12475.492038651784
705.22104968028 12619.401118614811
706.1999143758458 12474.962524343766
707.178532303169 12504.745187129423
708.1569035374378 12583.927847806664
709.1350281538107 12653.74247079386
710.1129062274158 12624.872391045541
711.0905378333373 12804.881697487011
712.0679230466376 12734.885840473455
713.0450619423427 13010.895491304014
714.0219545954424 13103.923403354256
714.9986010808989 13021.57309844531
715.9750014736292 13160.1418403104
716.9511558485392 13565.779159203827
717.9270642804786 13596.469756797567
718.9027268442787 13725.383650072734
719.8781436147328 13761.590104452407
720.8533146666014 13693.553475752826
721.828240074612 13754.8020758314
722.8029199134635 13690.408481702189
723.7773542578125 13629.77672506282
724.751543182294 13408.155748299832
725.7254867615029 13382.23600010147
726.6991850700015 13073.846394845987
727.6726381823228 12988.159642753859
728.6458461729599 13031.356018081784
729.6188091163858 12873.316036760652
730.5915270870246 12858.902259811288
731.5640001592856 12711.86409049491
732.536228407529 12687.590011792656
733.5082119060917 12720.544069707448
734.4799507292755 12609.482792396615
735.4514449513481 12611.191828206585
736.4226946465496 12746.732943012095
737.3936998890786 12765.874173525857
738.3644607531078 12577.046992301452
739.3349773127793 12636.976908203267
740.3052496421951 12634.914150390909
741.27527781543 12432.70126966701
742.2450619065221 12342.797717662304
743.2146019894826 12350.039840499336
744.183898138288 12256.307399851015
745.1529504268801 12112.113704030224
746.1217589291682 11982.980295129088
747.0903237190341 11915.438366379472
748.058644870318 11872.893304907091
749.0267224568397 11841.260705807577
749.994556552374 11712.765533955835
750.9621472306771 11793.074543348552
751.9294945654583 11834.77489251417
752.8965986304011 11757.126408574553
753.8634594991636 11653.391919106134
754.8300772453586 11741.174530051107
755.7964519425768 11723.220321326447
756.762583664371 11878.835892675195
757.7284724842611 11790.238773472087
758.6941184757416 11685.749396669147
759.6595217122667 11724.503351286474
760.6246822672638 11782.166925902058
761.5896002141235 11597.621630123038
762.5542756262093 11687.536382687775
763.5187085768503 11719.863908215835
764.4828991393406 11612.67223233845
765.4468473869474 11616.97198726975
766.4105533929032 11653.303580319563
767.3740172304078 11547.931788010264
768.3372389726283 11625.48839987383
769.3002186926988 11465.904576716483
770.2629564637282 11415.407368806042
771.2254523587872 11456.216855506877
772.1877064509154 11334.826366232792
773.1497188131179 11189.93376169803
774.1114895183728 11046.344205900994
775.0730186396268 11212.2962295201
776.0343062497905 11133.3642312927
776.9953524217381 11126.71216784915
777.9561572283274 11099.916112734907
778.9167207423689 11160.812655614824
779.8770430366476 10995.7622069369
780.8371241839159 11036.27353977034
781.7969642568951 11002.239751953683
782.7565633282757 11300.176458215707
783.7159214707099 11015.763708212377
784.6750387568281 11083.963249363089
785.6339152592227 11028.41926171968
786.5925510504512 11014.015295129073
787.5509462030477 11087.044551205661
788.5091007895098 11071.015052405894
789.4670148823006 10982.772437690734
790.4246885538596 10967.710010410317
791.3821218765861 10955.219246290599
792.3393149228505 10741.215965165113
793.2962677649975 10953.049451908719
794.2529804753303 10929.416053827144
795.20945312613 10965.549845890948
796.1656857896378 10882.13808707479
797.1216785380675 10826.891370530262
798.0774314435985 11014.171805997961
799.0329445783846 11130.712706900002
799.9882180145414 11107.639395554626
800.9432518241574 10989.96833643092
801.89804607929 11192.09005660189
802.852600851962 11236.43730659362
803.8069162141637 11237.24917916577
804.760992237856 11286.065626419178
805.714828994971 11484.883829795599
806.6684265574077 11482.731394914761
807.6217849970271 11500.886523143663
808.574904385674 11279.76068592354
809.527784795142 11444.336408491268
810.4804262972102 11502.737615499304
811.4328289636178 11245.40422168672
812.3849928660748 11111.762528675406
813.3369180762638 11105.998913105594
814.2886046658241 11136.148815939805
815.2400527063783 10965.022594949216
816.1912622695108 10859.025879266615
817.1422334267718 10913.511301418683
818.0929662496856 10672.329338387717
819.0434608097457 10562.050488178658
819.9937171784059 10508.469718612409
820.9437354271013 10506.830988223739
821.8935156272255 10608.416403656414
822.8430578501484 10329.595366419448
823.7923621672016 10188.672984103887
824.7414286496896 10263.94165952165
825.6902573688876 10177.687064970756
826.6388483960363 10232.606819215493
827.5872018023492 10086.726862783718
828.5353176590033 10270.275640489343
829.4831960371503 10037.455516013331
830.4308370079016 10110.156303468488
831.3782406423525 10079.602243196208
832.3254070115545 10114.392904503675
833.2723361865319 10057.548649091827
834.2190282382799 9993.517459102068
835.1654832377644 10046.463540442624
836.1117012559116 9941.421753565952
837.0576823636256 10135.245586904346
838.003426631778 9861.379631969468
838.9489341312074 9849.93890044808
839.8942049327197 10014.676523270447
840.8392391070975 10073.035204100855
841.7840367250865 9931.59507258391
842.7285978573982 9814.988259246242
843.672922574724 9949.20454188176
844.6170109477152 9907.592990300553
845.560863046996 9824.495960309094
846.5044789431595 9806.306044590725
847.4478587067697 9890.733883343928
848.3910024083561 9949.349619529756
849.333910118421 9923.652620318955
850.2765819074339 9814.856331836632
851.2190178458332 9918.85507215601
852.161218004032 9925.488592428555
853.1031824524016 9890.270672457193
854.0449112612987 9831.866741827136
854.9864045010327 9917.755637507324
855.9276622418947 9778.751903401124
856.8686845541379 9889.815617729453
857.8094715079915 9779.742307823097
858.7500231736467 9985.38922561064
859.690339621271 9854.632351420723
860.6304209209939 9890.788293336303
861.5702671429244 9752.019686640982
862.5098783571284 9960.990522597936
863.4492546336569 9891.28571996267
864.3883960425155 9756.775589254878
865.3273026536863 9854.94254672503
866.2659745371238 9855.322649028829
867.2044117627465 10077.289327256072
868.1426144004472 9897.52913971485
869.0805825200823 10040.63541982367
870.0183161914847 10080.682590155648
870.9558154844526 10125.24415129556
871.8930804687552 10156.326047085513
872.8301112141307 10047.01077842397
873.7669077902865 10153.386051159629
874.7034702669062 10407.607718573387
875.6397987136315 10203.622688834967
876.5758932000863 10334.083533922952
877.5117537958522 10389.693355118055
878.4473805704911 10257.624716182636
879.3827735935283 10263.303439691394
880.3179329344603 10410.629261037608
881.2528586627541 10457.608868213681
882.1875508478479 10561.453763839703
883.1220095591489 10302.895783669064
884.0562348660296 10336.880580474011
884.9902268378391 10504.263217783271
885.9239855438955 10281.92421446426
886.8575110534839 10146.175044278307
887.7908034358588 10185.135488447804
888.7238627602474 10162.185070359348
889.6566890958475 10195.417446183108
890.5892825118208 9969.455179993856
891.5216430773125 10029.417290583364
892.4537708614189 9976.390634302767
893.3856659332196 9764.634721904622
894.3173283617652 9719.827112074247
895.2487582160684 9797.822071723505
896.179955565116 9684.23907630158
897.110920477864 9605.67605425609
898.0416530232451 9582.039591169945
898.9721532701478 9435.199824459316
899.9024212874428 9587.578729735016
900.8324571439662 9444.104627139623
901.7622609085302 9345.212387465177
902.6918326499072 9279.438136334611
903.6211724368477 9314.569305051231
904.5502803380696 9492.487702211098
905.4791564222614 9471.098452992124
906.4078007580792 9172.282296460975
907.3362134141571 9285.485896732353
908.2643944590909 9360.622457986323
909.1923439614493 9208.20974255003
910.1200619897754 9184.1754951436
911.0475486125779 9375.638364555663
911.9748038983344 9195.081154914866
912.9018279155007 9194.236922504806
913.8286207324982 9074.044473485246
914.7551824177117 9256.51231382154
915.6815130395116 9116.98836577352
916.6076126662283 9060.406477456636
917.533481366163 9072.078226276335
918.4591192075914 9057.577089971839
919.3845262587565 9125.735744922067
920.3097025878706 8995.643321470508
921.2346482631237 9034.020418899976
922.1593633526682 9051.978603503243
923.0838479246304 9108.95755910598
924.0081020471061 9191.247468489015
924.9321257881656 8890.889984715375
925.8559192158464 8951.578466485698
926.7794823981512 8938.660185576231
927.7028154030686 8901.767985453316
928.6259182985414 8827.204508396604
929.5487911524906 9007.412040904
930.4714340328119 9125.930257873919
931.3938470073608 8872.56807872314
932.3160301439748 8867.664159196453
933.2379835104548 8920.103463496154
934.1597071745709 8949.058925284891
935.0812012040769 8913.236450154347
936.002465666681 8989.523328912333
936.9235006300696 8996.873165829951
937.8443061619055 8915.412193468741
938.7648823298077 8742.079135122807
939.6852292013809 8770.902688110331
940.6053468441951 8935.104918900222
941.5252353257874 8759.489356481758
942.4448947136698 8851.479451348398
943.364325075323 8768.820594212677
944.2835264782043 8840.029536762557
945.2024989897309 8790.887696800582
946.1212426773054 8791.641359776702
947.0397576082851 8919.745260748829
947.9580438500125 8989.822188516802
948.8761014697939 8921.053947385688
949.7939305349064 9036.905664769438
950.7115311125999 8830.281829055133
951.6289032700952 8769.67656442319
952.5460470745875 9041.448798660487
953.4629625932339 8774.64742524577
954.3796498931715 8876.788512550724
955.2961090415029 8923.679086227292
956.2123401053068 8938.761323978653
957.1283431516276 8907.035127579511
958.0441182474842 8771.42163659342
958.9596654598663 8986.870935774246
959.8749848557309 8892.924751272716
960.7900765020167 8814.146105290409
961.7049404656209 8717.500319121387
962.6195768134185 8845.13898172992
963.5339856122537 8796.278769551765
964.4481669289453 8884.371044879987
965.3621208302793 8756.011523104951
966.2758473830145 8688.133832134643
967.1893466538822 8835.423567626054
968.1026187095813 8719.455698212343
969.0156636167867 8732.889972216217
969.9284814421426 8739.859501839735
970.8410722522622 8732.385778862965
971.753436113735 8726.76392021547
972.6655730931161 8645.821118318727
973.5774832569368 8779.096041778253
974.4891666716958 8614.347320266705
975.4006234038698 8644.50126332803
976.3118535198955 8618.119334101944
977.2228570861935 8819.649388383175
978.1336341691494 8851.277099128423
979.0441848351202 8645.687169832057
979.9545091504333 8772.366388751323
980.864607181391 8842.079051671384
981.7744789942699 8806.53232485542
982.6841246553086 8729.15411245151
983.5935442307236 8789.270501326544
984.5027377867027 8882.613283426133
985.4117053894024 8790.069349610316
986.3204471049557 8731.642037103136
987.2289629994648 8881.785474865037
988.1372531390007 8981.45195800147
989.0453175896091 8884.548715281846
989.9531564173067 8917.2207674875
990.860769688079 8712.585277139238
991.7681574678918 8866.191984974494
992.6753198226706 8946.149062216437
993.582256818323 8836.072954366691
994.4889685207218 8841.768022890825
995.3954549957143 9044.642998044093
996.301716309119 9033.80985548165
997.2077525267232 8891.347595077812
998.1135637142943 8909.458202749383
999.0191499375615 9015.76018050794
999.924511262232 9095.796945051912
1000.8296477539861 9044.356440259251
1001.7345594784656 8932.78272213191
1002.6392465012996 8905.467493854809
1003.5437088880753 9057.813888543023
1004.4479467043584 8966.818728955026
1005.3519600156869 8782.380243118996
1006.2557488875718 8943.556714834534
1007.1593133854858 8853.04298902304
1008.0626535748888 8731.219612862029
1008.9657695212009 8724.333927781696
1009.8686612898182 8970.638191662865
1010.7713289461135 8957.665189946138
1011.6737725554212 8811.354747273432
1012.5759921830577 8843.901882740154
1013.4779878943027 8766.789231591729
1014.379759754418 8804.293322267946
1015.2813078286254 8686.924471603901
1016.18263218213 8591.9160161423
1017.0837328801026 8671.578797823193
1017.9846099876886 8747.504299262384
1018.8852635700023 8605.81306214455
1019.7856936921362 8499.385433561047
1020.6859004191447 8631.441429302733
1021.5858838160675 8471.675863068494
1022.4856439479063 8389.19276538883
1023.3851808796389 8397.928332786845
1024.2844946762143 8661.7524637809
1025.183585402554 8524.094416985099
1026.082453123554 8272.682089277021
1026.9810979040776 8410.785618351743
1027.8795198089647 8322.239277788472
1028.777718903024 8399.812559835997
1029.6756952510368 8298.188230138408
1030.5734489177648 8245.884742715487
1031.4709799679313 8222.534669985871
1032.3682884662358 8415.000056836205
1033.2653744773506 8155.2748278980725
1034.1622380659192 8170.705938404602
1035.058879296559 8306.50576033655
1035.9552982338591 8397.352965337504
1036.8514949423825 8196.80123629007
1037.7474694866614 8147.111534162465
1038.6432219312028 8005.935981158893
1039.5387523404825 8317.606549169825
1040.4340607789582 8135.5699534780015
1041.3291473110476 8174.992064735174
1042.2240120011465 8287.445794492627
1043.1186549136273 8309.384753067123
1044.0130761128294 8112.130679204949
1044.9072756630649 8225.438585674427
1045.8012536286205 8350.178866514832
1046.6950100737577 8295.488386060879
1047.588545062701 8397.994949911206
1048.481858659663 8325.791568291268
1049.3749509288118 8488.661568578073
1050.2678219343034 8352.903298822728
1051.1604717402515 8394.530954389058
1052.0529004107575 8300.749872697508
1052.9451080098825 8448.766353380986
1053.8370946016694 8462.061190330205
1054.7288602501267 8452.913457026068
1055.6204050192446 8365.810316398425
1056.511728972977 8469.619808929401
1057.402832175254 8382.119487082575
1058.2937146899785 8365.789909445093
1059.1843765810263 8298.47657050507
1060.0748179122456 8442.238461755245
1060.9650387474576 8417.902731130784
1061.855039150456 8364.801782001043
1062.7448191850071 8410.10701666421
1063.6343789148505 8526.904497572534
1064.5237184037014 8565.439286792574
1065.412837715241 8350.486555452653
1066.3017369131267 8326.960803952355
1067.190416060992 8218.442053285558
1068.0788752224398 8257.396813961022
1068.9671144610438 8214.224247639797
1069.8551338403558 8326.35556268794
1070.7429334239023 8325.398245132536
1071.6305132751695 8159.888427343058
1072.517873457633 8285.697354231117
1073.4050140347335 8208.67227752925
1074.2919350698776 8215.89637727821
1075.1786366264623 8202.893434165639
1076.0651187678395 8141.578823342466
1076.95138155735 8011.202433433711
1077.8374250582929 8095.233382936203
1078.7232493339507 8196.685025550007
1079.608854447577 8036.782805571883
1080.4942404623907 8020.381263908466
1081.3794074415982 8156.390573247105
1082.2643554483657 8173.847930628898
1083.149084545841 8096.689853371465
1084.033594797138 7922.265783844656
1084.9178862653516 8070.739087773484
1085.8019590135427 8146.997611997549
1086.6858131047484 7931.455096276128
1087.5694486019802 8061.241310144574
1088.4528655682225 8000.400801736292
1089.3360640664287 8183.887274522286
1090.2190441595321 8077.164847552876
1091.1018059104317 8132.134445876019
1091.98434938201 8177.6676680800565
1092.866674637111 8143.759601770218
1093.748781738559 8104.3770975018615
1094.6306707491512 7966.637397739784
1095.5123417316554 8103.204237622407
1096.3937947488157 7993.296240577086
1097.2750298633455 7916.957790278863
1098.156047137938 7988.20518817976
1099.0368466352556 8103.716230896444
1099.9174284179317 8140.288678306713
1100.7977925485757 7815.00021348857
1101.6779390897755 7922.966926747959
1102.5578681040806 7940.937190456479
1103.4375796540226 7978.786917674848
1104.3170738021054 7893.812820339175
1105.1963506108077 7782.578751978191
1106.0754101425773 7774.076642224165
1106.9542524598382 7931.078672545557
1107.8328776249855 7789.642098107795
1108.7112857003904 7732.8566822422845
1109.5894767483987 7835.6866424268255
1110.4674508313292 7884.952641778805
1111.3452080114657 7755.460611083152
1112.2227483510815 7927.8739567949215
1113.1000719124077 7949.75232208357
1113.9771787576592 8027.626302975761
1114.854068949022 7995.1922543835435
1115.7307425486542 7912.256019106631
1116.6071996186893 8072.322568001153
1117.483440221229 8328.988551389171
1118.3594644183577 8063.1031893425225
1119.235272272128 8155.692092746421
1120.1108638445658 8245.68329799299
1120.9862391976712 8510.89458632617
1121.8613983934229 8397.454195331182
1122.7363414937627 8468.48218610813
1123.6110685606182 8566.996231542287
1124.485579655884 8654.843964910635
1125.359874841426 8568.143764366429
1126.2339541790916 8654.197821783815
1127.1078177306936 8909.066663201354
1127.9814655580267 8774.435573934741
1128.854897722851 8777.982664851454
1129.7281142869106 8745.254130275753
1130.6011153119125 8936.785350564951
1131.473900859548 8970.445700586586
1132.3464709914697 8842.97713373005
1133.2188257693178 8809.115066456103
1134.0909652546961 8629.288555328878
1134.96288950919 8679.069492496561
1135.8345985943506 8771.200907881615
1136.7060925717087 8482.085400142762
1137.57737150277 8529.555577276366
1138.4484354490069 8682.691045833688
1139.3192844718778 8444.427294433417
1140.1899186327992 8233.578303361335
1141.060337993178 8391.148880332323
1141.930542614382 8218.566651447378
1142.8005325577597 8091.9943452811
1143.670307884635 7955.253251623222
1144.5398686563003 8046.426216592673
1145.409214934025 7981.023339383755
1146.2783467790541 7695.742001501583
1147.1472642526023 7816.223884502599
1148.0159674158622 7855.976560469762
1148.8844563300026 7571.425309454664
1149.7527310561618 7588.150963055115
1150.6207916554504 7507.51975832684
1151.4886381889592 7463.515994807007
1152.3562707177498 7584.638204352481
1153.2236893028585 7445.9372526821535
1154.090894005296 7376.666244058375
1154.9578848860474 7469.205188387394
1155.8246620060709 7429.9566092887135
1156.6912254262988 7266.902558830026
1157.5575752076438 7224.442148213806
1158.42371141098 7412.2431528278685
1159.2896340971656 7395.683085701998
1160.1553433270346 7311.276190691412
1161.0208391613887 7302.573781977879
1161.8861216610057 7350.62628914042
1162.75119088664 7330.050612755927
1163.6160468990201 7247.082650713863
1164.4806897588442 7128.423525098949
1165.3451195267917 7377.143412286043
1166.2093362635114 7246.837569225882
1167.0733400296285 7249.26968085698
1167.9371308857444 7211.214368264844
1168.8007088924278 7180.995003983039
1169.6640741102328 7236.828469426796
1170.5272265996773 7144.288276565788
1171.390166421259 7059.476208287153
1172.252893635452 7208.511927120817
1173.1154083026995 7413.086003032107
1173.977710483421 7257.638408664953
1174.8398002380145 7072.964474591905
1175.7016776268483 7232.815127036144
1176.563342710264 7150.8538395745345
1177.4247955485826 7168.246664015745
1178.2860362020947 7243.856609155225
1179.147064731069 7043.146052721359
1180.0078811957483 7266.596585988952
1180.8684856563486 7240.285230781784
1181.7288781730604 7299.464421249766
1182.589058806052 7399.12490017503
1183.4490276154593 7511.130801598969
1184.3087846614017 7361.744780467688
1185.1683300039676 7369.106502816734
1186.027663703222 7601.416231680321
1186.8867858192025 7442.9377301799195
1187.7456964119228 7530.730484419803
1188.6043955413716 7459.491836910251
1189.4628832675116 7582.554957552669
1190.3211596502842 7713.643278755914
1191.179224749596 7676.107252972275
1192.0370786253388 7551.583990806353
1192.8947213373758 7726.487708285657
1193.7521529455407 7864.705592229356
1194.6093735096438 7543.872483749119
1195.466383089477 7647.48886623194
1196.3231817447977 7730.8633036790925
1197.1797695353398 7881.748194636539
1198.0361465208189 7585.038125033699
1198.8923127609214 7676.942870046216
1199.7482683153048 7797.593542479799
1200.6040132436028 7919.023700215503
1201.459547605431 7710.618716082226
1202.3148714603722 7752.460955668996
1203.1699848679855 7773.5897592537385
1204.0248878878065 7867.2381963325
1204.8795805793507 7579.914844273555
1205.7340630020935 7732.195563774391
1206.5883352155033 7785.813794295171
1207.4423972790064 7804.865720091245
1208.2962492520237 7571.327244818802
1209.1498911939307 7567.004483349304
1210.0033231640937 7617.63294358915
1210.8565452218427 7549.629905026353
1211.7095574264913 7364.730744472904
1212.5623598373222 7382.964408697519
1213.4149525135963 7389.057482570648
1214.2673355145507 7426.813173595305
1215.1195088993936 7216.08479066691
1215.9714727273113 7341.760281301491
1216.8232270574663 7437.858766865998
1217.6747719489904 7134.865808211567
1218.5261074609934 7123.1842539736335
1219.3772336525653 7211.295335330261
1220.2281505827668 7280.054846575667
1221.0788583106296 7280.229550807586
1221.9293568951707 7095.2393065255
1222.7796463953746 7038.908019516422
1223.629726870202 7164.824301131262
1224.4795983785934 7104.847286950813
1225.3292609794553 7101.592433743004
1226.1787147316809 6934.733360410433
1227.0279596941327 7022.617805821484
1227.8769959256424 6937.974367130711
1228.7258234850306 7030.789371397601
1229.5744424310833 6724.43505778301
1230.422852822563 7033.370929684172
1231.2710547182105 7097.116722292174
1232.119048176739 6979.00912592652
1232.9668332568417 6830.315161896773
1233.8144100171812 7000.625762248963
1234.6617785163999 6946.658251854962
1235.508938813111 6731.369801784669
1236.3558909659114 6767.956499977957
1237.2026350333617 6974.4393565390765
1238.049171074008 7046.64844219674
1238.8954991463652 6691.485278103288
1239.741619308932 6809.576763543174
1240.587531620169 6917.248075913233
1241.4332361385277 6865.635849453234
1242.2787329224248 6783.750676197851
1243.1240220302534 6692.448941691184
1243.9691035203869 6687.898425096662
1244.813977451171 6915.1122041169565
1245.6586438809263 6826.871884927384
1246.5031028679496 6540.46543252936
1247.3473544705157 6848.230211475415
1248.1913987468706 6756.646816604984
1249.0352357552383 6590.217090868889
1249.8788655538228 6639.040831982279
1250.7222882007918 6770.256444266939
1251.565503754302 6895.638813589714
1252.4085122724755 6571.002482935332
1253.2513138134182 6806.622077832477
1254.0939084352049 6727.499148550171
1254.9362961958905 6724.427409135764
1255.7784771535007 6664.781743933348
1256.6204513660432 6801.909739626359
1257.4622188915 7014.600332610731
1258.3037797878242 6663.4700881257595
1259.1451341129468 6692.758938442556
1259.9862819247755 6789.926900152784
1260.8272232811978 6764.202136552836
1261.6679582400666 6902.4806433910535
1262.5084868592203 6585.381034654939
1263.34880919647 6650.810711872703
1264.1889253095997 6693.798684909239
1265.0288352563712 6832.344634121323
1265.8685390945266 6686.893261924303
1266.7080368817751 6718.4075279719345
1267.5473286758115 6889.883951306966
1268.386414534294 6804.014078596946
1269.2252945148703 6577.490525633768
1270.0639686751547 6605.884406389385
1270.9024370727402 6659.919922997835
1271.7406997651997 6584.899405277351
1272.5787568100714 6526.185880980046
1273.4166082648808 6587.51620606621
1274.2542541871244 6670.554312596245
1275.091694634275 6894.706452489745
1275.9289296637817 6437.868184497402
1276.7659593330663 6653.209096529315
1277.6027836995308 6572.726470718539
1278.4394028205552 6739.9766527958245
1279.2758167534867 6665.09786158721
1280.112025555658 6468.217210119091
1280.9480292843746 6802.756137702521
1281.7838279969128 6455.384832429032
1282.6194217505326 6533.261423600413
1283.4548106024686 6375.2648516195495
1284.289994609926 6510.235506473549
1285.1249738300921 6649.433508106876
1285.959748320127 6454.716601962165
1286.7943181371702 6603.623533600968
1287.6286833383328 6509.41513490781
1288.4628439807038 6584.409212249646
1289.2968001213521 6515.0136097475115
1290.1305518173194 6534.670701373628
1290.9640991256183 6586.17561580421
1291.7974421032523 6418.531436932948
1292.630580807183 6444.741191095258
1293.463515294361 6579.221120703789
1294.29624562171 6728.188997214842
1295.12877184613 6534.16143919694
1295.961094024493 6535.7358253574475
1296.79321221365 6569.908078507227
1297.6251264704333 6640.74049721253
1298.4568368516466 6855.736712735951
1299.2883434140658 6646.05229736159
1300.1196462144526 6427.568178347983
1300.9507453095375 6633.138895186405
1301.7816407560313 6606.11984131397
1302.6123326106172 6614.893497998232
1303.4428209299622 6446.982176268316
1304.2731057707024 6888.63732872471
1305.1031871894502 6599.417653837256
1305.933065242798 6571.172731022658
1306.7627399873181 6658.195968566506
1307.5922114795467 7014.835231682143
1308.4214797760123 6795.7997794898065
1309.2505449332057 6734.0174036129665
1310.0794070076026 6872.533805558674
1310.9080660556538 6872.578891603227
1311.736522133786 6897.536001178251
1312.5647752983987 6703.213306751704
1313.3928256058734 6600.007753531337
1314.2206731125661 6862.000727240435
1315.048317874809 6868.444982434155
1315.8757599489109 6778.141756974258
1316.7029993911547 6817.868544475872
1317.5300362578055 6906.674007861913
1318.356870605101 6768.360425183777
1319.183502489257 6786.6725586055645
1320.0099319664623 6923.541039896052
1320.836159092889 6901.318885688881
1321.66218392468 6994.811331633537
1322.4880065179532 6708.255559868146
1323.3136269288134 6890.999969208779
1324.1390452133292 7038.157266831862
1324.9642614275563 7138.884656928754
1325.7892756275214 6876.275441297223
1326.6140878692295 6760.868971864565
1327.4386982086617 7241.32959710387
1328.2631067017755 7010.71535213044
1329.0873134045069 6943.388644475359
1329.911318372764 6863.306548201146
1330.735121662441 6977.191756993956
1331.558723329399 6866.648234676199
1332.3821234294774 6886.344093123769
1333.2053220185007 6884.373338670576
1334.0283191522612 6734.590661276709
1334.851114886529 6901.337167530201
1335.6737092770582 6754.576323038088
1336.4961023795695 6799.460247778069
1337.3182942497697 6615.245495342339
1338.1402849433325 6754.65203464275
1338.962074515921 6598.341903074693
1339.7836630231632 6518.741970188867
1340.6050505206676 7036.388166065017
1341.426237064028 6825.048215163077
1342.2472227088037 6607.722644560769
1343.0680075105338 6447.444718027142
1343.888591524741 6678.02839849104
1344.7089748069138 6793.489757503776
1345.5291574125276 6574.3822682752625
1346.3491393970307 6502.1916552632165
1347.168920815846 6695.574630302544
1347.9885017243778 6723.0033023147025
1348.8078821780036 6510.272565139085
1349.6270622320844 6592.042453698763
1350.4460419419447 6551.530677585694
1351.2648213629054 6658.305433996398
1352.0834005502438 6449.338637634993
1352.90177955923 6413.835879931421
1353.7199584451064 6581.967137764825
1354.5379372630887 6537.359328997761
1355.355716068374 6389.359596397293
1356.1732949161305 6389.420264751349
1356.9906738615155 6496.007692018948
1357.8078529596478 6562.645702577841
1358.6248322656375 6598.669826693518
1359.441611834567 6394.415967051936
1360.2581917214866 6612.02806264549
1361.0745719814367 6409.1549975159205
1361.890752669433 6333.338182592229
1362.7067338404577 6310.521584373298
1363.5225155494845 6689.1249166348625
1364.3380978514506 6602.854941600208
1365.1534808012839 6308.442224763781
1365.9686644538815 6217.064283786923
1366.783648864117 6605.727286358572
1367.5984340868417 6578.762946708429
1368.413020176893 6536.697445275697
1369.2274071890715 6203.418603272565
1370.0415951781652 6596.121345656653
1370.8555841989346 6401.145498212364
1371.6693743061223 6234.910989881633
1372.48296555444 6092.742580353056
1373.2963579985844 6415.701239076252
1374.1095516932255 6332.956742382246
1374.9225466930166 6209.5926015369405
1375.7353430525782 6352.316264573229
1376.5479408265164 6146.215535982587
1377.36034006941 6366.091263202407
1378.1725408358216 6359.179138803207
1378.9845431802805 6104.730154116793
1379.796347157304 6453.445661367622
1380.6079528213813 6368.437379570021
1381.4193602269788 6105.48657019617
1382.230569428546 6039.9679752390675
1383.0415804805016 6397.478238864731
1383.852393437246 6320.2196209496415
1384.6630083531563 6224.087305815404
1385.4734252825892 6087.5010931669
1386.2836442798798 6233.426035068547
1387.0936653993322 6197.625739233293
1387.9034886952395 6120.23693934445
1388.713114221864 6224.056953010047
1389.5225420334482 6263.773977719515
1390.331772184214 6099.166950388178
1391.1408047283585 5933.236631952771
1391.9496397200564 6109.024029737573
1392.758277213461 6165.0840367907895
1393.5667172627054 6287.487455631469
1394.3749599218918 6066.391605664456
1395.1830052451114 5947.661569945406
1395.9908532864265 6051.429757214088
1396.7985040998774 6235.225769288558
1397.6059577394808 5908.052684267246
1398.4132142592352 6016.762600968335
1399.2202737131156 5972.515351834894
1400.027136155073 6185.155025130027
1400.8338016390353 5926.545334167284
1401.6402702189134 5945.179649102005
1402.446541948586 6043.118683452909
1403.2526168819204 5826.998977868155
1404.058495072757 5913.185651019203
1404.8641765749107 5986.883964612052
1405.6696614421799 5979.825305626824
1406.4749497283356 6380.936456303505
1407.280041487129 5780.634776440789
1408.084936772295 5670.405531231604
1408.8896356375335 6092.137628296905
1409.6941381365323 5953.287071039222
1410.498444322955 5776.9557295764835
1411.3025542504402 5719.313793855615
1412.106467972606 5880.027876992496
1412.9101855430508 5979.1524386864185
1413.7137070153458 5572.343682246128
1414.5170324430437 5831.036096800128
1415.320161879672 5857.740908813366
1416.1230953787435 6016.634806508065
1416.925832993742 5622.702638562585
1417.7283747781275 5572.990263579773
1418.5307207853439 5795.535530823321
1419.3328710688093 5785.4879771802725
1420.134825681922 5509.186897236251
1420.9365846780584 5559.0381041891615
1421.7381481105713 5877.212977110468
1422.539516032788 5762.699951006851
1423.3406884980232 5501.478937151169
1424.1416655595604 5550.958786541139
1424.942447270665 5654.6578595973815
1425.7430336845828 5773.610583775144
1426.5434248545298 5436.54168276042
1427.3436208337116 5748.119478732536
1428.143621675301 5653.471965021374
1428.9434274324558 5878.3986934052955
1429.7430381583108 5384.960591203469
1430.5424539059713 5520.866852794885
1431.3416747285337 6024.616270638931
1432.1407006790632 5703.731882012513
1432.9395318106053 5676.664343781149
1433.7381681761835 5476.983955563675
1434.5366098288014 5677.396220090375
1435.3348568214424 5753.195564014447
1436.1329092070573 5546.808209397884
1436.9307670385879 5579.310946705689
1437.7284303689503 5712.675515842341
1438.5258992510335 5930.283900972194
1439.3231737377118 5601.311993541831
1440.1202538818306 5594.059812531133
1440.9171397362225 5655.289523854893
1441.7138313536925 5692.921710815839
1442.5103287870243 5466.221218660928
1443.3066320889775 5514.695157309079
1444.1027413122956 5733.46907933647
1444.8986565096966 5577.293437654393
1445.694377733882 5591.758245965508
1446.4899050375207 5351.46240204999
1447.2852384732687 5522.366496087894
1448.0803780937622 5634.721587930328
1448.8753239516063 5358.465640492256
1449.6700760993954 5317.3771546463995
1450.464634589689 5445.3079121006385
1451.2589994750397 5727.134670432694
1452.0531708079689 5278.793728090086
1452.8471486409799 5290.14388598416
1453.6409330265524 5520.852348168949
1454.4345240171442 5354.886726776286
1455.2279216651987 5292.162575108776
1456.0211260231263 5277.402281823065
1456.8141371433194 5508.191400048819
1457.6069550781594 5515.13418148087
1458.3995798799897 5186.407986497916
1459.1920116011424 5183.372447652722
1459.98425029393 5209.946461726189
1460.7762960106338 5101.078241590437
1461.5681488035225 5300.224425993656
1462.3598087248392 5362.750781253388
1463.1512758268036 5554.563145081878
1463.942550161617 5248.239267629462
1464.7336317814625 5104.190502616474
1465.524520738496 5296.690672065156
1466.3152170848552 5140.226666974146
1467.1057208726506 5219.037981716982
1467.8960321539817 5196.701342683001
1468.6861509809169 5071.169553100195
1469.4760774055085 5156.011871748241
1470.265811479785 5252.966475422936
1471.055353255755 5126.492343127642
1471.844702785409 4991.557022197597
1472.6338601207044 5028.357314284291
1473.4228253135934 5291.855844347992
1474.2115984159936 4971.132592274649
1475.0001794798063 4898.895961131561
1475.7885685569145 5102.024662139108
1476.576765699172 4975.652180468647
1477.3647709584238 4990.487009040121
1478.1525843864802 5248.590112260043
1478.9402060351367 5132.48323085858
1479.7276359561693 5163.408871472553
1480.514874201328 4956.803211095152
1481.3019208223468 4822.36486041589
1482.0887758709323 4750.884986049591
1482.8754393987747 5251.491106504446
1483.6619114575406 4801.639862075116
1484.4481920988783 4920.090696245179
1485.2342813744108 5084.996305997465
1486.0201793357446 5256.758125056881
1486.8058860344572 4835.5418629688675
1487.591401522117 4907.415218227482
1488.3767258502594 4919.538342968062
1489.1618590704056 5137.819783271174
1489.9468012340494 4674.160094276938
1490.7315523926754 5019.2384826147045
1491.5161125977356 5026.095617509814
1492.3004819006637 4984.62450992345
1493.084660352877 4770.793607381993
1493.8686480057622 4974.560371764901
1494.6524449106964 5316.903919510509
1495.4360511190262 5242.376840009752
1496.219466682087 5039.360819266781
1497.0026916511779 4961.589138066047
1497.7857260775945 5070.874771516134
1498.5685700125996 5165.316219041262
1499.3512235074395 4841.456371947051
1500.133686613337 4846.0853102358105
1500.9159593814966 4956.892638644475
1501.698041863101 5382.825959923831
1502.4799341093094 4842.790983377574
1503.2616361712662 4831.924074841195
1504.043148100087 5111.050537246699
1504.8244699468742 5049.864162439297
1505.6056017626997 4883.522557089916
1506.3865435986281 4829.2386029255595
1507.1672955056893 5107.479182042506
1507.9478575348967 4830.189273897766
1508.7282297372512 5074.663524965434
1509.5084121637192 5016.885726934086
1510.2884048652577 5045.93347982978
1511.0682078927948 4867.80457557172
1511.8478212972423 4811.42520839521
1512.6272451294917 4866.121922687585
1513.4064794404076 4999.335295024973
1514.1855242808433 5084.8559162438705
1514.9643797016215 4989.603267201181
1515.743045753552 5055.99483763473
1516.5215224874191 5110.372762414057
1517.2998099539836 4814.4011160854
1518.077908203999 4910.111183831437
1518.8558172881785 4922.812890221635
1519.633537257234 5032.842807830357
1520.4110681618404 5062.757671895122
1521.1884100526604 4958.563537753098
1521.9655629803365 4868.359612880768
1522.7425269954856 5159.726968489744
1523.5193021487103 5362.721170823697
1524.2958884905856 4865.044325602044
1525.0722860716687 4925.06527889366
1525.848494942502 4894.285047006418
1526.624515153595 5004.59082098483
1527.4003467554485 4972.4542005927215
1528.175989798534 5055.832638025748
1528.9514443333064 5100.518703628931
1529.726710410203 5118.727171661105
1530.5017880796331 4814.08096970516
1531.276677391992 4899.182228431489
1532.0513783976457 5242.773009353506
1532.825891146953 5046.55272999929
1533.6002156902414 5155.714589838806
1534.3743520778207 5007.259373143355
1535.1483003599806 5071.977319526648
1535.9220605869923 5118.34214919295
1536.6956328091019 5127.843065623737
1537.4690170765407 5024.905049162252
1538.242213439511 5232.739501334779
1539.015221948208 5011.12566664389
1539.78804265279 4925.898678175285
1540.560675603405 4936.863695550958
1541.3331208501804 5174.720769661149
1542.1053784432224 5295.0060042336645
1542.8774484326168 5030.196914906464
1543.649330868422 5006.692200855921
1544.4210258006842 5036.111748539612
1545.1925332794308 5071.313976582629
1545.9638533546604 5073.748384624528
1546.7349860763552 4922.77480706461
1547.5059314944829 5325.647322175436
1548.27668965898 5085.128086911039
1549.0472606197673 5157.105205491326
1549.817644426752 4882.884936339437
1550.5878411298072 5226.732552887141
1551.3578507787988 5105.894993138064
1552.1276734235635 4836.274814980328
1552.8973091139233 5087.637575962457
1553.6667578996767 5191.329487867288
1554.436019830604 5089.490445086347
1555.20509495646 5078.930555389817
1555.9739833269869 4886.70976119263
1556.7426849919011 5063.310040163216
1557.511200000903 5347.415021676683
1558.2795284036674 5207.13014956679
1559.0476702498509 4999.264927505349
1559.8156255890954 5183.102906189704
1560.5833944710157 5416.854559026822
1561.3509769452048 5066.329651498605
1562.1183730612447 5100.9127009338545
1562.8855828686865 5253.708504586653
1563.6526064170703 5409.744674405476
1564.4194437559127 5299.957104745895
1565.1860949347047 5187.55327119032
1565.9525600029283 5451.2025829431395
1566.7188390100328 5517.025556066554
1567.4849320054564 5063.552436205807
1568.250839038612 5173.396314775063
1569.0165601588997 5147.147832194791
1569.7820954156887 5409.355735860743
1570.5474448583373 5137.896783861381
1571.31260853618 5123.613555112074
1572.0775864985299 5018.558719226064
1572.8423787946813 5309.958555060244
1573.6069854739108 5100.20343066076
1574.371406585471 5224.491819835775
1575.1356421785986 5345.643723152176
1575.899692302506 5192.398182751855
1576.6635570063845 5252.181289362825
1577.4272363394157 5238.095969495809
1578.190730350747 5234.664168464736
1578.9540390895163 5365.069271023638
1579.7171626048384 5027.46990784885
1580.480100945806 5089.637992524513
1581.2428541614918 5137.6827630171865
1582.0054223009538 5433.692891872129
1582.767805413223 5141.231001781032
1583.5300035473156 5192.741976842755
1584.292016752228 5403.427649605968
1585.0538450769309 5346.498593144328
1585.8154885703807 4941.1276289958105
1586.5769472815136 5082.230073237159
1587.3382212592405 5144.286567698278
1588.099310552463 5289.822238249395
1588.8602152100484 5167.227658417431
1589.6209352808564 5312.435985346276
1590.3814708137234 5208.177605372637
1591.14182185746 5407.556367781553
1591.9019884608679 5002.478708565891
1592.6619706727215 4967.51006668689
1593.4217685417734 5196.638645404129
1594.1813821167616 5443.792510257472
1594.9408114464022 5048.053062537204
1595.7000565793933 5063.675975485688
1596.459117564409 5210.756762112574
1597.2179944501113 5034.254381413478
1597.9766872851324 5028.959018548062
1598.735196118092 5144.308938588087
1599.4935209975883 5133.6174616006465
1600.2516619721973 5357.163743458213
1601.0096190904787 5044.009455570087
1601.7673924009723 5070.3581880154225
1602.524981952196 4983.094051638587
1603.2823877926476 5040.503939340183
1604.0396099708087 4932.6717989683
1604.7966485351371 4876.354126889062
1605.5535035340745 5039.0077944295535
1606.3101750160404 5284.379879935095
1607.0666630294363 4877.2111706882215
1607.822967622642 4922.1834675279115
1608.5790888440224 5035.877071799743
1609.3350267419137 5197.603561187235
1610.0907813646445 4965.919040380187
1610.8463527605145 4963.89780698103
1611.601740977805 5140.349219901588
1612.356946064785 4963.234353276546
1613.1119680696902 4775.939917022486
1613.8668070407512 4818.372154866987
1614.6214630261748 4972.167251939959
1615.375936074137 5091.896024462877
1616.1302262328118 4916.546249458589
1616.8843335503425 5022.037682269211
1617.638258074854 4886.503674631045
1618.391999854457 4907.175820167557
1619.1455589372363 5042.0480227687785
1619.8989353712623 4903.235461471288
1620.65212920458 4725.161927712532
1621.4051404852235 4767.360772196209
1622.1579692611976 4936.769375832172
1622.9106155804966 4625.739070842186
1623.663079491087 4804.562199998292
1624.4153610409248 4840.342336999
1625.1674602779385 4740.103611668851
1625.9193772500403 4615.106490655957
1626.6711120051277 5161.926920474388
1627.4226645910676 4927.68007341794
1628.174035055721 4743.975757492542
1628.9252234469168 4811.7648900446275
1629.676229812474 4792.550150827597
1630.4270542001905 5107.17384084912
1631.1776966578382 4871.656344868943
1631.9281572331747 4725.1676250849905
1632.678435973945 4923.499374327626
1633.4285329278573 4760.3835015433415
1634.1784481426203 4585.5765759045735
1634.9281816659113 4599.92886418839
1635.677733545388 5033.6305351640285
1636.4271038286934 4699.586894737715
1637.176292563452 4833.623663941293
1637.9252997972635 4741.18561471889
1638.674125577716 4841.108879556994
1639.4227699523672 5061.382104733448
1640.171232968767 4565.408065071939
1640.9195146744423 4785.511034054836
1641.6676151168977 4979.201395123352
1642.4155343436178 4930.32476233052
1643.1632724020765 4734.366592292892
1643.9108293397167 4696.632307839428
1644.658205203974 4765.799931394902
1645.4054000422566 5215.082091921237
1646.1524139019566 4836.734703458536
1646.8992468304423 4488.146800833493
1647.6458988750728 4740.408458928128
1648.3923700831765 4779.597914454438
1649.1386605020743 4754.155715515278
1649.8847701790564 4853.481317553106
1650.6306991614038 4832.339299137371
1651.3764474963682 4862.137741224806
1652.1220152311944 4560.573827288639
1652.867402413096 4757.273199505107
1653.6126090892776 4815.740888548852
1654.3576353069184 5098.1030252045175
1655.1024811131829 4797.11975802153
1655.8471465552066 4795.669856025556
1656.5916316801213 4967.928973195191
1657.3359365350298 4988.1297420463
1658.0800611670165 4805.538626206534
1658.824005623148 4800.427383375319
1659.5677699504722 4655.527999463363
1660.3113541960192 4915.591941331482
1661.054758406799 4743.247264056818
1661.7979826297997 4625.861420842595
1662.5410269119966 4657.917331420861
1663.283891300338 4892.073093769473
1664.0265758417645 4573.375242143759
1664.7690805831826 4775.66970296271
1665.5114055714948 4813.360631000533
1666.2535508535748 5083.674248521376
1666.9955164762814 4571.223469764279
1667.7373024864555 4566.628942364773
1668.478908930916 4758.233914043871
1669.220335856462 4591.140707576236
1669.9615833098778 4519.527716832601
1670.7026513379296 4578.555859515398
1671.44353998736 4730.905390788738
1672.1842493048916 4632.301298016747
1672.9247793372379 4529.595807358762
1673.6651301310812 4628.962377133646
1674.4053017330934 4497.643899450878
1675.1452941899242 4667.917794491339
1675.885107548207 4206.395716849217
1676.6247418545518 4333.905012179717
1677.3641971555535 4479.4487274751455
1678.1034734977893 4660.136007290706
1678.8425709278108 4485.37618913163
1679.5814894921605 4621.146432697791
1680.320229237359 4582.797494374538
1681.0587902098978 4589.492372519775
1681.7971724562685 4388.6683117773
1682.5353760229264 4188.209806858104
1683.2734009563173 4519.548268549718
1684.0112473028657 4274.900066626921
1684.7489151089794 4437.161069727453
1685.4864044210462 4425.667698761316
1686.2237152854377 4007.3947983645944
1686.960847748498 4516.852899121735
1687.6978018565642 4137.5595631982005
1688.434577655944 4048.404465024311
1689.1711751929379 4052.7989636711
1689.9075945138156 4339.668957997083
1690.6438356648396 4101.694454200751
1691.3798986922448 3842.090339805715
1692.1157836422499 4106.675749312654
1692.851490561059 4036.318769088618
1693.587019494853 4140.492676068486
1694.3223704897991 3746.286877614401
1695.0575435920364 3746.942160368025
1695.792538847696 4249.074021484437
1696.527356302886 3929.678437586854
1697.2619960036936 3795.5854774671666
1697.9964579961907 3820.835050391083
1698.730742326432 3609.1372174612516
1699.4648490404488 3656.4414889958075
1700.1987781842563 3823.995412813797
1700.9325298038548 4037.2602954955773
1701.6661039452174 4086.5923965594766
1702.3995006543082 3836.7402278822483
1703.1327199770658 4014.791842461691
1703.865761959416 3692.896604215187
1704.598626647261 4103.120930509301
1705.3313140864866 3636.9610702361088
1706.0638243229587 3782.254329318073
1706.7961574025303 3927.8683217736207
1707.528313371029 3736.4854901393346
1708.260292274268 3648.7572568518126
1708.9920941580403 3740.986788374954
1709.7237190681226 3821.2444328557517
1710.4551670502697 3752.5967283147997
1711.18643815022 3522.9996066447793
1711.9175324136959 4079.1521010256038
1712.6484498863938 3715.3205180417876
1713.379190614005 3489.9580721273232
1714.109754642188 3629.7556115575753
1714.8401420165883 3591.0132216002116
1715.570352782839 4127.942499503917
1716.3003869865497 3667.2685137788203
1717.0302446733076 3496.327590122751
1717.7599258886876 3527.821224193328
1718.4894306782444 3953.2972154582035
1719.2187590875183 3373.4189592819
1719.9479111620203 3844.9691997835557
1720.6768869472544 3445.739309915361
1721.4056864887025 3929.402860413291
1722.1343098318284 3843.6224557952255
1722.8627570220742 3568.6918150914016
1723.591028104871 3351.052266306968
1724.3191231256242 3365.8544941614396
1725.0470421297232 3592.5285613653587
1725.7747851625427 3701.1443091203446
1726.5023522694337 3594.2689385128006
1727.2297434957363 3538.237328917091
1727.9569588867635 3405.850599099312
1728.6839984878152 3767.9966255835343
1729.4108623441734 3217.75676632709
1730.1375505011038 3607.872842764914
1730.8640630038426 3357.5474223476435
1731.5903998976264 3445.323252923594
1732.316561227657 3568.539832916152
1733.0425470391274 3312.6613484638356
1733.7683573772065 3619.397165352978
1734.4939922870508 3570.585241326532
1735.2194518137949 3515.4661504922783
1735.9447360025606 3504.9546817469177
1736.669844898439 3505.59456972107
1737.3947785465189 3292.3164876216715
1738.1195369918605 3280.731138843615
1738.8441202795093 3493.5666526844443
1739.5685284544943 3551.9503182600833
1740.292761561821 3497.6814482839713
1741.0168196464838 3556.5223417920874
1741.7407027534518 3435.275506427629
1742.464410927687 3538.5695033511283
1743.187944214118 3424.1868500709147
1743.9113026576688 3471.0728804439414
1744.634486303241 3475.991493603452
1745.3574951957125 3505.0005271201
1746.0803293799509 3619.726480237993
1746.8029889008048 3410.51021110656
1747.5254738031017 3534.939728592354
1748.2477841316504 3323.8765767491213
1748.969919931249 3418.4015591604243
1749.6918812466665 3465.917863452151
1750.4136681226646 3530.578719530536
1751.1352806039777 3326.4663352350326
1751.856718735331 3014.1817835473453
1752.5779825614281 3104.464195347474
1753.2990721269507 3408.1204708150735
1754.0199874765676 3522.548947864006
1754.7407286549314 3176.567195515508
1755.4612957066693 3296.9969283311366
1756.1816886763954 3234.6314317188358
1756.9019076087097 3327.329660608005
1757.6219525481865 3342.34467028359
1758.3418235393856 3354.638552472386
1759.061520626854 3384.655327094428
1759.7810438551096 3591.553213833789
1760.5003932686614 3162.8178576326145
1761.2195689119999 3543.822140949646
1761.938570829594 3431.7860591811527
1762.657399065898 3362.2295801194523
1763.376053665348 3135.7148630116144
1764.0945346723602 3063.2248444935008
1764.812842131334 3635.162655591737
1765.5309760866512 3098.1011596080443
1766.2489365826787 3142.6661108254925
1766.9667236637597 3260.0368473922254
1767.684337374223 3043.777230202724
1768.401777758383 3165.4995897994368
1769.1190448605284 3066.8346395550952
1769.836138724937 3115.3902627830867
1770.5530593958665 3303.702167366984
1771.2698069175603 3494.825343888772
1771.9863813342326 3386.660908005781
1772.702782690094 3251.0418538584463
1773.4190110293293 3405.646429746424
1774.1350663961111 3358.5563607658282
1774.8509488345844 3223.3181249087484
1775.5666583888924 3258.4958978522213
1776.2821951031437 3435.7890344290304
1776.9975590214362 3110.30274765897
1777.7127501878585 3346.9167015323947
1778.4277686464684 3375.7955643211026
1779.1426144413108 3434.5683461001963
1779.8572876164162 3448.739480760424
1780.571788215797 3075.3969781658593
1781.2861162834415 3297.7529889420184
1782.0002718633277 3181.182738357544
1782.7142549994132 3295.4532194871163
1783.4280657356376 3318.754902275742
1784.141704115922 3107.9603202898734
1784.855170184177 3218.710400182283
1785.5684639842839 3209.038645172813
1786.2815855601148 2903.296104835856
1786.9945349555237 3269.465851248374
1787.707312214343 3079.2038244023497
1788.4199173803918 3546.0689852495984
1789.132350497468 3004.2113013396465
1789.8446116093583 3041.304225938808
1790.556700759822 2963.2776159519185
1791.2686179926077 3132.5638526443395
1791.9803633514493 3184.16611017758
1792.6919368800554 2932.4718197621087
1793.4033386221236 3239.4066683321407
1794.1145686213295 3282.124423574986
1794.8256269213307 3401.782094155943
1795.536513565774 3221.889946810085
1796.247228598284 2879.2727964176242
1796.9577720624693 3128.4836120239365
1797.6681440019165 3152.231991348518
1798.3783444602013 3209.6505853454364
1799.0883734808776 3234.1194490182543
1799.7982311074884 3286.46638762229
1800.5079173835475 3201.8183821075936
1801.2174323525633 3332.224038021143
1801.9267760580187 3087.6992449329214
1802.635948543386 3226.1383795878546
1803.3449498521113 3038.0101360168055
1804.0537800276325 3137.5325672773224
1804.7624391133668 3151.0590897187967
1805.47092715271 2926.86250354156
1806.1792441890484 2886.490134007925
1806.8873902657433 3190.417527361934
1807.5953654261448 3068.1397940951783
1808.3031697135812 2968.9935460789484
1809.0108031713662 2938.6986615647033
1809.71826584279 3063.867808670601
1810.425557771141 3063.3873991249648
1811.1326789996747 3462.5756842153014
1811.839629571632 3172.7752329880577
1812.5464095302468 3100.972789763378
1813.2530189187182 3044.8172972784823
1813.959457780249 3035.2629890958056
1814.6657261580076 3265.290640423262
1815.371824095153 3064.5194865404887
1816.0777516348262 3169.491877075715
1816.78350882015 2750.447740297121
1817.4890956942272 2866.4382188282416
1818.1945123001533 2964.228997093662
1818.8997586809928 3092.3289971511244
1819.6048348798067 2862.815086653508
1820.3097409396287 3032.032543059215
1821.0144769034796 3453.7797561072243
1821.7190428143622 3191.866854683767
1822.423438715261 3181.3827343228436
1823.1276646491478 2975.888770057223
1823.8317206589727 3038.074766424392
1824.5356067876692 3090.937004917336
1825.2393230781581 3221.905130578844
1825.942869573335 2840.1367627917825
1826.646246316086 2865.970121296774
1827.3494533492758 3121.4140404756063
1828.052490715756 3102.8181504421495
1828.7553584583547 3070.825906543924
1829.458056619891 2993.4575014097654
1830.1605852431585 2991.92192380377
1830.8629443709433 2720.166237813476
1831.5651340460063 3061.7121970536073
1832.2671543110919 2864.238584743675
1832.9690052089318 3080.857099695227
1833.6706867822395 2685.2585040204776
1834.3721990737104 3199.805375928793
1835.0735421260233 3111.2147688748473
1835.774715981841 3028.9207136556724
1836.4757206838058 3300.3775706387532
1837.1765562745459 2949.8615965655295
1837.8772227966747 2757.1489444454082
1838.5777202927839 3067.0103912072914
1839.2780488054523 2952.9645056219897
1839.9782083772352 2906.4125451295017
1840.6781990506806 3311.0380403440527
1841.378020868313 2932.8588625943694
1842.0776738726418 2965.1096319538656
1842.777158106157 2859.9867747665576
1843.4764736113375 2848.409729338339
1844.1756204306403 3096.876790565592
1844.8745986065078 3070.6159535460447
1845.5734081813607 2700.966023364328
1846.2720491976124 2875.8815044735393
1846.970521697649 2856.9034144874777
1847.6688257238511 2988.73523733352
1848.3669613185684 2953.345299554905
1849.0649285241452 2685.8030995061245
1849.7627273829057 3061.344953386636
1850.460357937156 2993.7251868336434
1851.1578202291857 2639.852367322529
1851.8551143012664 2856.824095466366
1852.5522401956569 2941.710874970068
1853.2491979545957 3158.0895379148087
1853.9459876203055 2741.2590609039826
1854.6426092349902 2735.5927831359813
1855.3390628408451 2897.5474042294063
1856.0353484800362 3191.9860365740424
1856.7314661947203 3057.086494689079
1857.4274160270397 2735.4409516550836
1858.123198019115 2896.7207185810066
1858.8188122130487 2801.2235832284687
1859.5142586509319 2909.090679016847
1860.209537374838 2814.2781380446113
1860.9046484268183 2917.064539808595
1861.599591848917 3007.8172825455704
1862.294367683151 2827.620491133991
1862.988975971528 2775.775257390994
1863.6834167560355 2888.2526119608815
1864.3776900786452 3052.233389386471
1865.0717959813119 2726.8084579837187
1865.7657345059724 2845.6039925364703
1866.4595056945564 2917.527933921733
1867.1531095889586 2992.281349440275
1867.846546231076 2636.4224349280275
1868.5398156627743 3129.3377892508624
1869.2329179259123 2691.7047188571464
1869.9258530623283 2990.164623839839
1870.618621113843 2725.22656814678
1871.3112221222636 2744.98973499054
1872.0036561293764 2764.6981540049565
1872.695923176956 3010.26510874649
1873.3880233067594 2932.4736389565574
1874.0799565605212 2615.141540561496
1874.7717229799673 2729.0347698427217
1875.4633226068036 3103.2440234101778
1876.1547554827175 3007.8114277397085
1876.8460216493859 2803.620373081236
1877.5371211484617 2787.34568210787
1878.2280540215852 2855.0515377307916
1878.9188203103804 2679.386808996788
1879.6094200564548 2781.5932621600587
1880.299853301396 2777.5286236819375
1880.9901200867826 3083.964897156032
1881.6802204541673 2878.4937314594413
1882.3701544450942 2928.5824654126454
1883.059922101087 2603.4502739270347
1883.7495234636517 3046.63182431679
1884.4389585742792 2772.6776755936216
1885.1282274744517 2731.7682509167325
1885.8173302056166 2797.3387587205298
1886.506266809225 2863.0011949659574
1887.195037326701 2564.061595461313
1887.8836417994517 2634.6478609037595
1888.5720802688702 3056.7791006260113
1889.260352776333 2995.5301790795047
1889.9484593632042 2928.8867451771052
1890.63640007082 2667.7340765275985
1891.3241749405151 2635.816653032313
1892.0117840135954 2904.594171809914
1892.6992273313572 2788.4297337252165
1893.3865049350788 2680.144732762203
1894.0736168660223 3095.3455386609603
1894.7605631654333 2760.9302114667403
1895.4473438745408 2590.803684473064
1896.133959034556 3038.04660497954
1896.820408686679 2862.1805656221372
1897.506692872088 3047.1694466950808
1898.192811631945 2794.15111924827
1898.8787650073991 2741.5492722209565
1899.5645530395832 2934.0992840260164
1900.2501757696118 2911.634697386501
1900.9356332385796 2528.8332778720132
1901.620925487574 3178.1889509715265
1902.3060525576602 2853.4960260724433
1902.9910144898859 2840.832123239181
1903.6758113252872 2658.2929808772105
1904.3604431048789 2708.4816804507095
1905.0449098696663 2900.0767628889985
1905.7292116606295 2685.2834316990293
1906.4133485187394 2834.3640281426115
1907.0973204849488 2461.7231411997845
1907.7811276001976 2536.653414901414
1908.4647699053967 2645.5503003886943
1909.1482474414588 2690.368661033948
1909.8315602492694 2735.143402677618
1910.5147083696957 2988.3928760470767
1911.1976918436012 2764.705857619624
1911.880510711815 2556.1591279521112
1912.5631650151681 3103.2376961442583
1913.2456547944657 2654.8314838196534
1913.927980090495 2649.3301218355946
1914.6101409440362 2684.429404021286
1915.2921373958416 2830.4274992659916
1915.9739694866603 2720.680452788655
1916.655637257214 3111.183635739184
1917.3371407482136 2660.9267879842632
1918.0184800003572 2837.0700612185406
1918.6996550543154 2848.4008506265777
1919.3806659507554 2746.4576531627763
1920.0615127303208 2810.38210649347
1920.7421954336423 2930.8950960028264
1921.4227141013343 2916.6926224931985
1922.103068773993 2825.258886273258
1922.783259492202 2868.6462409750598
1923.4632862965227 2742.7844254659494
1924.1431492275078 2684.892970537025
1924.8228483256917 2529.2082289141886
1925.5023836315922 2670.945145793353
1926.1817551857057 2434.053603124582
1926.8609630285227 3032.9284044129136
1927.5400072005123 2874.7048129918653
1928.218887742125 2546.9813052805894
1928.8976046938005 2600.0293324523345
1929.5761580959588 2864.329206629489
1930.2545479890086 2729.5095477936593
1930.9327744133352 2341.723128223721
1931.6108374093164 2649.3381576606366
1932.2887370173066 2524.837443893157
1932.9664732776473 2399.984653542082
1933.6440462306673 2695.377821485365
1934.3214559166754 2542.3595522743844
1934.9987023759659 3044.634857264594
1935.675785648813 2879.209402952328
1936.3527057754836 2975.598217822146
1937.029462796223 3072.221066709512
1937.70605675126 2598.5436264907935
1938.3824876808085 2467.2897544032826
1939.058755625072 2571.0130988721567
1939.7348606242267 2504.3577093508597
1940.4108027184448 2678.097072517242
1941.0865819478713 2924.8576629449217
1941.7621983526478 2611.5553717402445
1942.4376519728921 2408.6103659915475
1943.1129428487038 2718.146471597676
1943.7880710201734 2889.1241514341737
1944.4630365273733 2827.8453866993523
1945.1378394103576 2351.7481064767517
1945.8124797091714 2343.0480737633943
1946.4869574638324 2334.248826068429
1947.161272714353 2595.977600949965
1947.8354255007234 2799.2265467198313
1948.5094158629272 2581.3943479716127
1949.1832438409183 2676.5818856764436
1949.8569094746435 2730.2977794466306
1950.530412804037 2900.396673856612
1951.2037538690092 2737.115827666982
1951.8769327094578 2589.0420844647424
1952.5499493652678 2539.754157166358
1953.222803876306 2852.031783960649
1953.895496282421 2625.5175659406173
1954.5680266234522 2686.802842972093
1955.2403949392155 2743.1841377077967
1955.9126012695142 2413.384828686176
1956.5846456541403 2541.7691938855396
1957.2565281328643 2602.000289659935
1957.9282487454457 2705.3850032377372
1958.5998075316202 2773.826598392137
1959.27120453112 2528.372501693998
1959.9424397836501 2690.9925006413637
1960.613513328908 2813.72466179566
1961.2844252065697 2916.033571310386
1961.9551754563017 2608.0863573437186
1962.6257641177453 2478.357125933896
1963.29619123054 2445.6454118734327
1963.966456834296 2376.3692374441985
1964.6365609686181 2429.9489170593342
1965.306503673086 2631.2267382621167
1965.976284987275 2469.0668578347454
1966.645904950734 2578.7591273091157
1967.315363603002 2253.5109349559234
1967.9846609836077 2519.8974703242034
1968.6537971320486 2488.2728595076137
1969.3227720878222 2651.039283748166
1969.9915858904042 2581.745531273549
1970.660238579252 2671.5351435600323
1971.3287301938108 2526.3030417899527
1971.997060773514 2401.9517394916998
1972.665230357772 2366.813957806722
1973.3332389859843 2463.606413859944
1974.0010866975335 2270.3822324746816
1974.6687735317864 2583.826170761538
1975.3362995280932 2607.914765725443
1976.003664725793 2749.177646331753
1976.6708691642052 2361.463687963891
1977.3379128826364 2481.4756852726396
1978.004795920373 2775.7202305833634
1978.6715183166925 2941.687027548047
1979.3380801108524 2288.4651102257617
1980.0044813420973 2535.1933083725007
1980.6707220496555 2280.3570126911836
1981.3368022727373 2471.796238753382
1982.0027220505417 2553.781760859867
1982.66848142225 2207.8958710899815
1983.3340804270283 2265.0940561371126
1983.999519104027 2480.8800197356823
1984.6647974923835 2615.8513529656507
1985.329915631215 2620.485160837232
1985.99487355963 2548.632886605437
1986.6596713167146 2772.4101871701882
1987.3243089415428 2346.7787280186126
1987.9887864731754 2735.9318499652336
1988.6531039506553 2332.6332464990905
1989.3172614130071 2338.1614027885694
1989.9812588992481 2343.7359042611874
1990.645096448372 2116.17602348279
1991.3087740993633 2475.5302521842705
1991.9722918911848 2397.743980392404
1992.635649862792 2498.3832897477682
1993.2988480531185 2579.970159198061
1993.9618865010852 2874.2331142219355
1994.6247652455968 2316.58199252738
1995.287484325545 2346.602049338732
1995.9500437798033 2354.3696395875995
1996.6124436472292 2418.4006059681287
1997.2746839666706 2682.981899517447
1997.936764776954 2439.5967822779457
1998.598686116895 2174.077050182398
1999.2604480252903 2742.906801177284
1999.9220505409212 2665.9333348739046
2000.5834937025593 2224.6811173273372
2001.2447775489582 2356.6291775852433
2001.9059021188514 2564.8797481731644
2002.5668674509616 2293.8508193386665
2003.2276735839987 2413.2492111104602
2003.8883205566508 2760.8699928584338
2004.5488084075987 2421.7656975406367
2005.2091371755014 2516.4839791813183
2005.8693068990033 2220.320176240362
2006.5293176167397 2623.9057163880766
2007.1891693673224 2154.6586346935937
2007.848862189354 2254.313615165736
2008.5083961214223 2426.035320099438
2009.1677712020955 2189.665073138004
2009.8269874699254 2223.562673417261
2010.4860449634598 2208.1653585282265
2011.1449437212177 2192.857853263623
2011.8036837817108 2702.874986314754
2012.4622651834325 2481.733324015933
2013.1206879648653 2551.4830264455823
2013.7789521644736 2737.0006216053016
2014.4370578207036 2097.6380116269065
2015.0950049719922 2472.581571840895
2015.7527936567585 2585.9681394343347
2016.4104239134067 2345.7564325713997
2017.067895780323 2887.5169667571145
2017.725209295886 2801.530497941079
2018.3823644984514 2715.2363778789286
2019.0393614263648 2508.6289925610163
2019.6962001179545 2254.6292120482017
2020.3528806115355 2648.5426476100815
2021.0094029454067 2605.2142759010917
2021.6657671578487 2206.1848764647466
2022.321973287133 2454.2089179703066
2022.9780213715148 2305.7075853866904
2023.6339114492293 2476.542471702863
2024.2896435585026 2475.0856858812385
2024.9452177375442 2436.0879239158503
2025.600634024544 2657.9211091325287
2026.2558924576842 2540.4447649472863
2026.9109930751292 2655.1445493719807
2027.565935915025 2315.176346169246
2028.2207210155066 2765.214492094763
2028.8753484146964 2860.126362909351
2029.529818150695 2771.7509119468277
2030.1841302615903 2682.910149943717
2030.8382847854573 2289.3472893721764
2031.4922817603601 2556.1888677440897
2032.1461212243357 2412.7130659601607
2032.7998032154192 2126.0256432885253
2033.4533277716218 2315.9418542338562
2034.1066949309443 2227.9967668191957
2034.7599047313688 2171.587478645013
2035.4129572108704 2474.818555819557
2036.0658524074006 2362.1466597138315
2036.7185903589016 2496.214865559652
2037.3711711032956 2493.8284644848545
2038.023594678496 2359.1434386879855
2038.675861122394 2076.352044450098
2039.3279704728757 2568.733519519318
2039.9799227678031 2297.080602355787
2040.6317180450278 2243.398129375703
2041.2833563423865 2336.230422406981
2041.9348376977014 2760.623688343715
2042.5861621487784 2558.085802705171
2043.2373297334088 2583.3671606144944
2043.8883404893695 2437.76592750728
2044.5391944544208 2516.1198025265267
2045.1898916663158 2749.7495957711135
2045.8404321627804 2671.375778148461
2046.4908159815368 2260.1408983095016
2047.1410431602853 2258.184432020544
2047.7911137367173 2270.6446110177976
2048.441027748504 2576.8116667698537
2049.090785233302 2159.5268588477347
2049.7403862287592 2190.79811400975
2050.389830772503 2110.9445171777265
2051.0391189021466 2031.075343586627
2051.688250655294 2404.237263536947
2052.337226069527 2001.8859676890727
2052.986045182417 2594.156232481816
2053.634708031521 2556.1483149948626
2054.283214654375 2518.251981123771
2054.931565088511 2080.403905846614
2055.579759371436 2230.1580937019485
2056.2277975406523 2306.5925535096912
2056.8756796336384 2596.7099132971407
2057.5234056878617 2077.681823156049
2058.1709757407752 2118.2810270351074
2058.8183898298194 2775.910550296015
2059.465647992416 2530.6700633880364
2060.1127502659747 2536.686102978768
2060.759696687888 2036.0891557549699
2061.4064872955405 2536.1030625759145
2062.053122126292 2592.030471182028
2062.699601217497 2397.0168283158237
2063.345924606485 2202.0621637887352
2063.992092330587 2282.2109168630413
2064.638104427102 2039.0879268781744
2065.283960933324 2658.6508858666252
2065.92966188653 2421.2536904298604
2066.5752073239855 2660.9045688493607
2067.2205972829397 2107.326648505867
2067.86583180062 2432.375756174853
2068.5109109142522 2219.579069123974
2069.15583466104 2195.567656800496
2069.8006030781708 2171.536134271248
2070.445216202821 2144.054300475206
2071.089674072153 2513.2044599974265
2071.7339767233116 2569.084086936174
2072.3781241934303 2161.8232597771594
2073.0221165196253 2429.971649812533
2073.6659537390024 2159.4210285179433
2074.3096358886505 2422.3011293657223
2074.953163005637 2315.1261232056254
2075.596535127028 2106.0564219974294
2076.2397522898664 2118.8535596065467
2076.882814531182 2203.8449143033695
2077.5257218879924 2519.346337504752
2078.1684743973 2062.1365415719556
2078.8110720960885 2065.7111828508687
2079.453515021336 2166.2860317241384
2080.095803209997 2266.9180568090737
2080.7379366990135 2348.6161423428575
2081.37991552532 2555.720021624579
2082.0217397258275 2443.0617422160167
2082.6634093374414 2011.368904567448
2083.3049243970418 2358.1098435306053
2083.9462849415067 2403.383037326807
2084.587491007689 2369.30745689065
2085.2285426324324 2339.982253051057
2085.869439852564 2254.1250572627487
2086.510182704902 2112.679606020161
2087.1507712262483 2209.439238231448
2087.791205453381 2031.7630222036091
2088.4314854230743 2234.0399365341923
2089.0716111720867 2256.7573701374854
2089.7115827371617 2069.3268880736405
2090.351400155023 2047.8654528074155
2090.991063462385 2026.4698738655711
2091.6305726959527 1991.175250986728
2092.2699278924047 2463.0090212015825
2092.9091290884153 2120.198187425497
2093.548176320641 2093.296206654125
2094.187069625721 2397.3322088204054
2094.8258090402887 2344.349032407824
2095.464394600951 2291.2520429804786
2096.102826344313 2360.66326453232
2096.741104306955 2414.972362589533
2097.379228525453 1971.9538074622822
2098.017199036358 1845.819583763879
2098.6550158762147 2091.8297933384265
2099.2926790815527 2338.35860518353
2099.9301886888825 2355.053875324749
2100.5675447347076 2164.8254272364825
2101.2047472555114 2136.9361130868574
2101.841796287761 2108.991703308942
2102.47869186792 2232.2396023177507
2103.1154340324265 2102.839753662582
2103.752022817709 2284.63870706083
2104.388458260184 2224.071380602623
2105.024740396251 2131.226227510487
2105.660869262292 2122.8876423190504
2106.296844894685 2398.7676874054982
2106.93266732978 2191.1592706988704
2107.5683366039284 1916.0857151800562
2108.2038527534532 2224.017149623659
2108.8392158146726 2400.76285926468
2109.4744258238843 2108.246631944401
2110.1094828173755 2252.8877023963023
2110.744386831422 2668.9522221441466
2111.3791379022787 2362.495542502836
2112.01373606619 2541.949130595611
2112.648181359389 2365.1284700677415
2113.28247381809 2436.021740550749
2113.916613478492 2241.4916422887254
2114.550600376786 2187.1726786806194
2115.1844345491445 2203.0868281866888
2115.818116031729 2057.0942469946986
2116.451644860679 2170.07804787839
2117.085021072133 1812.597309433333
2117.718244702204 2182.83063842771
2118.3513157869984 2054.098861891779
2118.984234362604 1965.3855971805879
2119.617000465092 2083.200026834411
2120.249614130529 2102.593859092673
2120.8820753949585 2122.0219455688994
2121.5143842944162 2144.617792966887
2122.14654086492 1948.9148015132419
2122.7785451424734 1917.6708900175229
2123.4103971630702 1886.582356772343
2124.042096962681 2195.521161495033
2124.6736445772767 2303.2105401741887
2125.305040042802 1953.1975440418064
2125.936283395191 2272.3903513951873
2126.567374670365 2292.7019750388095
2127.198313904233 2077.332391142281
2127.8291011326855 2082.72906438793
2128.4597363916037 2087.889527976232
2129.0902197168507 2118.3114141680435
2129.720551144279 1882.3168864041374
2130.3507307097225 2518.665425411463
2130.980758449008 2485.3961564339406
2131.6106343979427 2046.7870068796124
2132.2403585923203 2439.5489242897484
2132.8699310679276 2530.624264271747
2133.499351860526 2367.0382999481853
2134.1286210058715 1973.4511889819696
2134.7577385397053 1795.7422252409033
2135.3867044977487 2336.9687542177007
2136.0155189157176 2604.945977735245
2136.644181829308 2430.1844250941713
2137.2726932742025 2225.2455714960056
2137.901053286074 2124.8245298732177
2138.5292619005777 2024.3285361662533
2139.1573191533535 2116.55585577128
2139.7852250800315 2325.932407504473
2140.4129797162295 2295.353462872146
2141.0405830975433 1879.2780923741143
2141.6680352595613 1931.5030906188651
2142.2953362378576 1983.8501295781268
2142.9224860679915 2051.477585920941
2143.549484785508 2160.9763222584597
2144.1763324259373 2047.8875858500712
2144.803029024799 2034.6187340284673
2145.429574617594 1932.4522734601833
2146.0559692398165 2266.5893293293557
2146.682212926942 2029.4911160041574
2147.308305714432 2210.0610487728773
2147.9342476377333 2489.9307220627375
2148.5600387322847 2473.5699134278348
2149.185679033506 2225.4985675312328
2149.8111685768017 2109.760152194777
2150.4365073975678 1881.8362392194492
2151.061695531187 1920.476461034886
2151.686733013021 2078.174456414716
2152.311619878423 2236.3236023765917
2152.9363561627342 2091.44634619262
2153.560941901278 1996.165830483762
2154.1853771293663 2253.2328004113615
2154.809661882293 2117.69051739151
2155.433796195348 2638.0204494255568
2156.0577801037944 2554.6284929895087
2156.681613642895 2470.8964890055054
2157.3052968478896 2030.668526599596
2157.928829754006 2256.581523183976
2158.552212396462 2261.345740660378
2159.1754448104566 2218.6267440724705
2159.7985270311783 1789.5225895244869
2160.4214590938027 1705.6266676811379
2161.0442410334927 1713.3953871686074
2161.6668728853874 2217.248593230092
2162.289354684628 2093.856137780578
2162.911686466332 2051.779238720302
2163.533868265602 2256.9335468731592
2164.1559001175337 2423.4817994152054
2164.7777820572046 2169.9230635932618
2165.399514119681 2002.8622978412575
2166.021096340013 2047.2872825830232
2166.6425287532384 2354.4698416788674
2167.263811394385 1904.9158116779236
2167.8849442984574 1932.7516902192765
2168.505927500455 1960.8418701172232
2169.126761035366 2263.3454477902346
2169.7474449381552 2164.2279116633445
2170.367979243778 2249.550213112104
2170.9883639871823 2335.1989030120008
2171.608599203293 1968.331560667597
2172.2286849270276 2743.7552303358943
2172.8486211932886 2686.875217248714
2173.4684080369625 2072.384473225364
2174.0880454929265 1762.325423783459
2174.7075335960417 1767.1611728378352
2175.3268723811543 1801.1073301414926
2175.9460618831 1835.1650738834069
2176.565102136701 2133.2165867393933
2177.1839931767627 2159.2511109886686
2177.802735038078 2185.3854523821456
2178.421327755432 1931.3611637872677
2179.0397713635866 1933.8925002120359
2179.658065897298 1995.0850123356365
2180.276211391305 2369.029095277551
2180.8942078803357 2181.839489804859
2181.5120553991 2382.550795753109
2182.129753982299 1885.0495636117073
2182.7473036646206 2107.313324401864
2183.3647044807367 2244.1221797054523
2183.9819564653044 1979.0222503812752
2184.599059652968 2070.3535554217037
2185.216014078367 2358.864714325812
2185.832819776113 2376.5837487207646
2186.4494767808137 2394.2088611778618
2187.065985127063 2116.6054661291873
2187.682344849436 1874.8080317925292
2188.298555982501 1968.68669672619
2188.9146185608097 2062.6017038277682
2189.530532618901 2243.547302759572
2190.1462981912937 2192.3466124761426
2190.761915312507 2298.9464761173012
2191.377384017036 2103.5357121725965
2191.9927043393654 2264.9592984298242
2192.6078763139667 2398.1320701841837
2193.2228999753006 2531.6326449654225
2193.837775357808 2094.0298373116016
2194.452502495922 1725.3254616621336
2195.0670814240602 2124.328516822482
2195.6815121766285 1885.1428467398102
2196.2957947880186 1795.763840867994
2196.9099292926057 1706.2106550351375
2197.523915724758 2068.31562623385
2198.137754118825 2104.932661006359
2198.7514445091456 2382.924875145045
2199.3649869300443 2446.3716626511177
2199.9783814158327 2510.069379150944
2200.5916280008096 2674.9802933892147
2201.2047267192593 2283.592042363186
2201.8176776054515 1975.842490774292
2202.430480693649 1976.9722467684514
2203.0431360180955 2336.829524528208
2203.6556436130195 2249.4168008201473
2204.268003512645 1775.7052251685595
2204.8802157511727 2039.2324077338737
2205.492280362796 2349.7317843080154
2206.1041973816937 2028.3807825279323
2206.715966842032 1937.4202083504829
2207.3275887779655 2145.1668362251376
2207.93906322363 2098.7971634872674
2208.550390213153 2311.0089637139854
2209.1615697806465 2404.934068978723
2209.7726019602105 1862.6520171533843
2210.3834867859277 1869.5884571972554
2210.9942242918787 1942.641898742953
2211.6048145121167 2224.6528057161877
2212.2152574806914 2927.9539708236452
2212.825553231638 2952.535440340759
2213.435701798975 2977.331238748843
2214.045703216707 2319.554466739416
2214.655557518832 1784.4410358652349
2215.2652647393297 1849.8311208851105
2215.874824912169 2056.823134643832
2216.4842380713 2264.5124433813385
2217.09350425067 1832.0047636056456
2217.7026234842033 2339.9859690768267
2218.311595805819 2408.5331993633454
2218.9204212494133 1934.5254080709262
2219.52909984888 2498.531503847263
2220.137631638092 2534.823901867744
2220.7460166509154 2571.030737616299
2221.354254921198 1793.4773777986024
2221.9623464827764 2063.5300496196933
2222.5702913694713 2171.7449616365657
2223.178089615096 2007.6934451197467
2223.7857412534486 1843.3369666988674
2224.39324631831 1834.9598605514725
2225.000604843457 1970.704611866716
2225.607816862641 2248.0234609957506
2226.214882409611 2171.838101231063
2226.8218015180973 2206.675514159745
2227.4285742218217 2011.4387493957765
2228.0352005544864 2135.6404225173987
2228.6416805497847 1695.2075852505182
2229.248014241399 1910.4985712168686
2229.8542016629945 1640.4661950966133
2230.460242848223 2190.99057742914
2231.0661378307304 2002.8942199965727
2231.671886644139 1814.6317889377199
2232.277489322065 1637.0697148592242
2232.8829458981127 1497.1023807896524
2233.48825640587 2068.3116492913227
2234.0934208789095 2628.6321082140885
2234.6984393507955 2534.256373319349
2235.3033118550793 2037.508084600618
2235.9080384252975 2037.5387879993261
2236.5126190949723 1846.4077395864274
2237.1170538976166 1874.1808625755614
2237.721342866729 1748.5013133322714
2238.32548603579 1987.0014648264478
2238.9294834382763 2133.5988832354483
2239.533335107646 2029.761393356118
2240.1370410773434 2082.6945226592093
2240.740601380803 1787.7810142526328
2241.3440160514474 1959.6232423968268
2241.9472851226783 2252.3474612772393
2242.550408627896 2087.923462910893
2243.1533866004793 2050.6598219827356
2243.756219073799 2013.3671181166221
2244.3589060812064 1904.4775306615527
2244.961447656049 1780.659462569895
2245.5638438316564 2069.0434210949434
2246.166094641343 2213.031226930202
2246.7682001184166 1810.8909975092447
2247.3701602961664 2083.9580615458326
2247.971975207871 2164.6657652832046
2248.5736448867974 2052.400270327965
2249.175169366197 1939.8359245150937
2249.7765486793123 2117.1127509466032
2250.3777828593684 2169.4525018651093
2250.9788719395783 2020.5402000331105
2251.579815953146 2097.9789722524906
2252.1806149332606 1717.3036156677008
2252.781268913097 1951.2904926247024
2253.381777925817 1798.5786924951328
2253.9821420045737 2125.5742796664354
2254.5823611825035 2343.809191248014
2255.1824354927303 2212.1010304212546
2255.782364968365 2041.3393208168768
2256.38214964251 1870.4048735477936
2256.9817895482483 1807.2907627746413
2257.5812847186553 2035.3798676725114
2258.180635186791 1692.9723425902762
2258.779840985704 1950.0358501391202
2259.37890214843 1843.3755665503436
2259.97781870799 2112.394531292789
2260.5765906973957 2381.911889179609
2261.175218149645 2296.51695774957
2261.773701097718 2213.952807738762
2262.3720395745895 1807.6874596464236
2262.970233613216 1930.2009200308134
2263.568283246548 1816.6359067036094
2264.1661885075137 1828.5871934030904
2264.763949429038 2002.7419955540677
2265.3615660440246 2212.006839593446
2265.959038385374 1782.324024742451
2266.5563664859637 2189.3228430793392
2267.153550378669 1950.7469006648073
2267.7505900963424 2131.974342719981
2268.3474856718312 1882.5643686657597
2268.9442371379664 1913.3776386751622
2269.5408445275643 1932.1401874566704
2270.1373078734377 1972.393098795479
2270.7336272083758 2012.7368894175993
2271.32980256516 1817.3332580956478
2271.925833976562 2125.7835908560214
2272.5217214753357 2024.3616737134867
2273.117465094223 1922.6960593042336
2273.7130648659586 1672.443769120213
2274.308520823257 2043.4232889469426
2274.903832998827 2117.8162816323797
2275.4990014253563 1873.156475465347
2276.094026135528 2251.5238072064494
2276.6889071620117 1902.9149649195137
2277.2836445374614 2147.3199101459095
2277.878238294519 2039.2084033826588
2278.472688465812 1828.6223882883965
2279.066995083962 1617.6566645971318
2279.6611581815705 1905.7534695201898
2280.255177791232 2251.738457624594
2280.8490539455233 1923.450926055049
2281.442786677013 2148.1806422080617
2282.0363760182554 2383.5707126827547
2282.6298220017943 2033.9220715872775
2283.223124660155 2269.9563627509206
2283.816284025859 1782.3350789232452
2284.4093001314086 1771.8899158659976
2285.002173009292 1761.4579858965851
2285.5949026919952 2209.9695607453787
2286.1874892119777 1931.8042940857006
2286.7799326016993 2122.356765110649
2287.3722328936 1657.805731535883
2287.964390120109 1646.8492481794801
2288.556404313642 2226.2412185469125
2289.1482755066027 2492.8932653445354
2289.7400037313873 2103.7456125138006
2290.3315890203703 1950.7069178449026
2290.9230314059205 1957.7857723014574
2291.5143309203904 1964.9369879524602
2292.1054875961236 1965.0732912171886
2292.6965014654506 2237.7575164665177
2293.287372560684 1723.120865308003
2293.878100914131 1715.4082046548344
2294.468686558086 1707.7343080255014
2295.059129524827 2104.0915753563786
2295.649429846617 2329.32681698064
2296.239587555716 1834.466952799894
2296.8296026843636 2144.2979319501633
2297.419475264791 2102.436041392194
2298.0092053292137 2060.3657143701116
2298.598792909839 2308.4892674587454
2299.1882380388597 2092.5044364613673
2299.777540748455 2393.620832950804
2300.3667010707904 2010.344231741923
2300.9557190380256 2248.9615415541853
2301.544594682302 2029.4730516122884
2302.1333280357503 1809.7169044979546
2302.721919130485 2048.5347034734377
2303.3103679986198 2609.333581555823
2303.898674672242 2337.6337460599757
2304.486839183437 2123.769827948841
2305.0748615642697 1909.7806518370082
2305.6627418468015 2090.875742255377
2306.2504800630704 1896.1260188356778
2306.8380762451143 2058.395738667582
2307.425530424949 2115.8114452617365
2308.012842634582 2173.342453988019
2308.6000129060103 2409.489287968728
2309.187041271214 2073.5067278004844
2309.773927762164 2384.1308338446247
2310.3606724108213 2059.6475503413867
2310.9472752491274 1793.1301115234412
2311.5337363090184 2265.4795264154063
2312.120055622414 2031.3049292984106
2312.706233221221 2022.3854639077085
2313.2922691373424 1679.1648194792292
2313.8781634026564 1784.5795144661847
2314.463916049037 1890.2243753676655
2315.049527108342 2267.4346904944
2315.6349966124235 2528.601825230785
2316.2203245931123 2534.838387453243
2316.8055110822315 2223.3577458900954
2317.3905561115935 1911.1301833267541
2317.9754597129977 1744.5603729348088
2318.560221918229 1729.1338650812918
2319.1448427590603 1713.7100286198886
2319.729322267256 1773.8293131414898
2320.313660474563 1932.2243692200113
2320.8978574127195 2138.549148422518
2321.481913113452 2345.526606880295
2322.0658276084705 1804.89040978669
2322.6496009294806 2134.9147734953776
2323.233233108165 2137.953634709364
2323.8167241762058 1906.3928161706567
2324.4000741652617 2152.277166148847
2324.983283106987 2319.708518583188
2325.5663510330232 2332.5975464561866
2326.1492779749933 2021.9499175922524
2326.7320639645204 2118.2841465404695
2327.3147090332004 1882.2078299196528
2327.897213212629 2003.4288721731696
2328.4795765343843 2124.6642911021545
2329.0617990300307 1781.1689472583644
2329.643880731124 2350.557138294684
2330.22582166921 1890.1217137161589
2330.807621875816 1618.0096856058449
2331.3892813824623 1345.6021717823512
2331.9708002206517 1701.433721997084
2332.5521784218818 1845.7646221635998
2333.133416017634 1990.4699862447583
2333.7145130393765 1941.516375548122
2334.295469518571 2401.9073749597296
2334.876285486658 2319.251040642723
2335.456960975076 2339.7484290171187
2336.037496015242 2360.332160899091
2336.6178906385667 2060.132112611424
2337.198144876451 2137.9254453996487
2337.778258760278 1944.8879439821005
2338.3582323214214 2011.571138310364
2338.938065591243 2078.3588157084837
2339.517758601087 2340.5964322857003
2340.0973113822965 2198.383392817344
2340.676723966193 1983.3426620796351
2341.255996384094 2152.8624002570914
2341.835128667295 2424.6910908246114
2342.4141208470883 2240.2927805139016
2342.992972954751 2000.103749993467
2343.5716850215467 1753.338027224417
2344.1502570787306 1506.0273261703098
2344.7286891575386 1776.6769129184217
2345.3069812892045 2496.2463536056953
2345.885133504944 2313.798918317969
2346.4631458359618 1850.5719885404555
2347.04101831345 1639.2307671457297
2347.6187509685915 1964.5332052379513
2348.196343832553 1859.3069726871472
2348.7737969364935 1956.4421047648452
2349.351110311558 1723.6198420996639
2349.9282839888765 1787.6757280458526
2350.5053179995757 1767.9472515649818
2351.0822123747585 1555.7396235637423
2351.658967145526 2213.917219621588
2352.2355823429643 1498.7432522160093
2352.812057998144 2191.569877939124
2353.3883941421263 2012.78095539867
2353.9645908059647 2152.0009046254163
2354.540648020693 1837.4365440940778
2355.116565817336 1598.0145002866204
2355.6923442269126 1751.4974051812515
2356.2679832804224 1905.3070563624874
2356.8434830088518 1967.4633726839184
2357.41884344318 2029.6702215675366
2357.994064614377 2141.5161291165637
