#exp_cfg={"servo_angle": 0.0, "laser_lim": 100.0, "servo_angle_to": 18.0, "laser_wup": 0.0, "bt_dev": "EnSpectr-25AE3", "laser_wdn_max": 0.0, "frames": 10.0, "servo_used": 0, "servo_calib_use": 0, "laser_wdn_min": 0.0, "servo_pix_from": 90.0, "cooler_tout": 300.0, "servo_angle_from": 0.0, "servo_calib": "[-1.9174921013161362e-09, 3.9322238269163779e-05, -0.27385609119055809, 653.59552119713567]", "laser_autoctl": 0, "servo_pix_to": 3682.0, "laser_pw": 100.0, "cooler_on": 0, "laser_volt": 4.0, "cooler_autoctl": 0, "cooler_curr": 70.0, "cooler_startup": 10.0, "laser_fixed_pw": 0, "gain": 1.3, "offset": 2.53059635486, "servo_calib_degree": 3.0, "laser_curr": 55.0, "shutter": 8200.0, "servo_calib_step": 1.0, "laser_fixed_curr": 0, "exp": 2000.0, "ccd_volt": 4.7, "bt_addr": "00:06:66:62:5A:E3", "servo_delay": 500.0, "laser_autooff": 1}
#proc_cfg={"flat_auto_wnd": 200.0, "flat_auto_fr": 200.0, "flat_auto_shift": 5.0, "yconv": 1, "flatten": 1, "flatten_strength": 100.0, "xfrom": 300.0, "auto_max_frame": 2000.0, "auto_signal": 48000.0, "flat_auto_tol": 0.1, "autoclip": 1, "xrel_range": 0.0, "flat_auto_to": 4000.0, "intensity_adj": 1.0, "xrel": 7852.0, "rmhot": 1, "flat_auto_slit": 4.999999999999997, "auto_ini_exp": 300.0, "auto_off": 0, "xto": 2860.0, "flat_auto_ref": "", "flat_auto_rank": 1, "autobackg": 0, "xrel_adj": 0.0, "auto_black_lvl": 1, "base_wnd": 100.0, "sub_baseline": 0, "xconv": 2, "auto_max_exp": 1000.0, "auto_total_exp": 10000.0, "auto_exp": 0, "rmripple": 0, "black_lvl": 8285.4375, "shutter_clip_adj": 0.0, "auto_bckg": 0, "flat_auto_thr": 0.9, "subbackg": 1}
316.8218498245369 12055.37222759431
317.89969571804795 11987.030537665363
318.977263876126 11936.557119709027
320.05455438786703 11804.683632725084
321.1315673423287 11869.334010729193
322.2083028285215 11854.667775487076
323.2847609354267 11778.275750119778
324.3609417519747 11800.85346938821
325.43684536705587 11634.291046431981
326.5124718695279 11690.49487277999
327.58782134820103 11633.653464266732
328.66289389184385 11671.306130660338
329.7376895891921 11492.410745278303
330.8122085289342 11514.510670603962
331.88645079971866 11595.698219600019
332.9604164901575 11513.106319514003
334.03410568881554 11412.929031044912
335.1075184842266 11644.96200056068
336.18065496487543 11476.696332277057
337.2535152192122 11515.457125354427
338.32609933564163 11519.782254690359
339.39840740253203 11526.414236562885
340.4704395082099 11440.91579675381
341.5421957409617 11409.892504856998
342.6136761890357 11442.302563064939
343.6848809406365 11324.47636629558
344.75581008392874 11272.770491597554
345.82646370703696 11208.488645165886
346.8968418980512 11171.90496402545
347.96694474501055 11291.069118797855
349.0367723359268 11202.24475751786
350.106324758759 11208.670728221234
351.1756021014353 11044.166274408664
352.2446044518383 11030.024690406994
353.31333189781435 11209.719908296753
354.38178452716966 11009.672216861052
355.449962427665 10989.346253701966
356.51786568702846 11003.181209741339
357.58549439294256 11110.745620526095
358.6528486330535 11075.46453080333
359.71992849496564 10887.644809583835
360.7867340662433 10968.785921840905
361.8532654344144 11013.759145634083
362.9195226869597 11050.750542610398
363.9855059113288 10912.5073485267
365.05121519492604 10744.74639676893
366.11665062511565 10964.123243528953
367.1818122892273 10913.34124435667
368.2467002745434 10864.833529886397
369.31131466831175 10866.882836937648
370.375655557742 10797.530814848262
371.4397230299983 10930.193759348684
372.5035171722102 10787.760514471494
373.5670380714637 10722.516627188927
374.6302858148101 10875.899375437233
375.6932604892554 10826.157939189965
376.7559621817709 10882.29902091846
377.81839097928605 10691.575782921866
378.8805469686886 10747.036504925454
379.94243023683157 10854.897647275051
381.0040408705263 10825.75523737196
382.0653789565458 10617.478168503774
383.1264445816196 10612.950104872925
384.1872378324406 10651.537421354125
385.2477587956637 10647.750749922128
386.3080075579037 10521.74605876383
387.3679842057336 10449.608973423263
388.4276888256918 10637.21117888551
389.48712150426945 10560.819473718864
390.54628232792857 10471.652325260491
391.6051713830857 10442.53844338408
392.66378875611736 10488.885577055193
393.7221345333637 10373.443250041511
394.7802088011249 10343.534997952162
395.838011645661 10415.447912828718
396.89554315319765 10342.710360660061
397.9528034099112 10281.798715521254
399.00979250194723 10198.049688941228
400.06651051541485 10272.654847697253
401.1229575363741 10279.913652076435
402.17913365085224 10147.415539308917
403.23503894483656 10262.390577932421
404.2906735042761 10104.670378724517
405.3460374150818 10076.03954664341
406.401130763119 10033.297419644943
407.455953634224 10068.472368481958
408.5105061141876 10004.653267612975
409.56478828876243 9932.445589808192
410.6188002436629 9871.25178130908
411.6725420645689 9935.758024683131
412.72601383711117 9929.603220810122
413.77921564689314 9984.082568000988
414.8321475794728 9881.22546749194
415.88480972036814 9796.10316331126
416.93720215506437 9839.489786117996
417.9893249690049 9793.341378053527
419.04117824759123 9713.276488628104
420.09276207619223 9735.15423147904
421.144076540133 9734.07261953753
422.1951217247042 9695.961364318584
423.24589771515275 9737.813846853256
424.2964045966928 9655.217900920778
425.34664245449494 9645.661371761085
426.3966113736933 9582.453736951562
427.4463114393875 9571.53836386264
428.49574273662984 9615.423414249552
429.5449053504417 9442.91553329847
430.5937993658026 9585.257291297607
431.6424248676558 9471.850527449387
432.6907819409007 9508.759919880304
433.73887067040596 9506.07520662199
434.7866911409965 9440.121955574848
435.8342434374608 9443.24942546574
436.88152764455117 9371.135929561417
437.9285438469724 9449.365145960448
438.9752921294057 9323.574716428693
440.02177257648145 9351.033974186637
441.06798527279716 9240.122666154875
442.1139303029122 9443.217033817626
443.1596077513459 9463.479284755584
444.2050177025794 9287.853940026525
445.25016024105753 9330.846814885217
446.2950354511886 9293.765440755045
447.33964341733736 9230.981133731915
448.383984223834 9245.167344374555
449.4280579549686 9151.848481840745
450.471864694995 9186.36576526069
451.5154045281306 9280.62246354604
452.5586775385509 9231.75232153945
453.60168381039693 9144.89591387965
454.64442342776783 9260.130427491775
455.6868964747264 9191.41420773773
456.7291030353008 9034.387271003754
457.77104319347563 9266.123670816609
458.8127170332027 9140.050467648784
459.854124638392 9190.90766757405
460.895266092919 9236.700532617506
461.93614148061897 9224.740764158894
462.97675088529104 9209.513581853196
464.01709439069236 9046.44397711023
465.0571720805492 9128.452726441657
466.0969840385442 9150.084635376912
467.1365303483253 9232.823292731378
468.17581109350067 9145.764608029765
469.2148263576437 9046.08887585647
470.2535762242878 9080.685389823371
471.29206077693016 9181.454735580526
472.33028009902773 9206.080630156383
473.3682342740012 9159.209919813706
474.40592338523857 9119.79931112715
475.4433475160804 9131.828177563153
476.4805067498364 9041.808590201876
477.51740116978 9059.549703615263
478.5540308591426 9139.450508198805
479.59039590112116 9277.24905196235
480.6264963788726 9155.526177222104
481.6623323755193 9201.738946561043
482.6979039741436 9162.08290127268
483.7332112577915 9342.815903280012
484.76825430947247 9494.544485007922
485.80303321215797 9340.039665416756
486.837548048783 9410.992267940981
487.8717989022425 9505.94732473041
488.90578585539697 9413.562979147368
489.9395089910686 9583.525576634516
490.97296839203955 9462.330831300747
492.00616414106116 9268.927560987962
493.0390963208429 9314.534130000986
494.0717650140559 9300.374270658973
495.10417030333883 9293.152625812436
496.1363122712901 9338.31707667631
497.16819100046814 9128.089167171904
498.1998065734024 9157.796630262706
499.2311590725767 9148.82411451739
500.26224858044407 9014.516703816713
501.2930751794156 8939.198256642085
502.3236389518679 9000.619577178324
503.35393998014115 8764.597567966117
504.38397834653733 8825.76623662806
505.4137541333221 8877.934954619783
506.4432674227228 8731.089290654903
507.4725182969323 8643.402348816724
508.5015068381035 8628.937869928237
509.53023312835467 8693.846778841158
510.55869724976765 8612.793473397043
511.58689928438434 8539.757970787508
512.6148393142121 8527.121227222333
513.6425174212218 8599.571200300821
514.6699336873462 8526.843526270262
515.6970881944835 8632.450359158083
516.7239810244901 8557.048560474508
517.7506122591931 8604.398182533561
518.7769819803761 8614.726708030317
519.8030902697901 8674.559814086442
520.8289372091476 8657.214321239288
521.8545228801249 8758.505138023454
522.8798473643619 8748.37958652965
523.9049107434621 8668.118641823192
524.9297130989908 8659.112404836142
525.9542545124805 8690.845873965718
526.9785350654201 8654.122755241176
528.0025548392696 8666.976772041464
529.0263139154504 8602.13050610272
530.0498123753423 8668.723483285741
531.073050300296 8603.17784903583
532.0960277716204 8495.939977221557
533.1187448705896 8539.308749019077
534.1412016784416 8515.526579988084
535.1633982763833 8458.790806121922
536.1853347455726 8441.842047448226
537.2070111671401 8489.010772529651
538.2284276221817 8430.950939826838
539.2495841917516 8368.313167689927
540.2704809568677 8273.844318478945
541.2911179985167 8294.040121540795
542.3114953976419 8197.600163823654
543.3316132351592 8155.900422469249
544.3514715919409 8098.037395986384
545.3710705488247 8050.362605191886
546.3904101866156 8053.689975072732
547.4094905860784 8042.855258708994
548.4283118279418 8009.988027567624
549.4468739929034 8074.732853252544
550.4651771616191 8022.826688570882
551.4832214147063 7823.472890601843
552.501006832761 7915.174366974102
553.5185334963226 7830.321764391156
554.5358014859103 7944.278980540592
555.5528108820035 7858.530401957262
556.5695617650363 7849.924864346496
557.5860542154242 7858.515610388621
558.6022883135283 7788.897800227343
559.6182641396881 7797.151550335601
560.6339817741991 7784.30863601059
561.6494412973225 7864.655985209574
562.6646427892883 7809.644445702683
563.6795863302796 7714.913428334829
564.694272000459 7757.334168306281
565.7086998799423 7869.891731691765
566.7228700488104 7708.751712527375
567.7367825871115 7685.653929820716
568.7504375748576 7691.232526928534
569.7638350920224 7766.60299469072
570.7769752185486 7740.658561448382
571.7898580343353 7762.594292635365
572.802483619258 7626.739059847934
573.8148520531431 7853.379105394111
574.8269634157932 7769.653605410514
575.8388177869692 7738.292675347827
576.8504152463938 7696.467599352918
577.8617558737587 7844.622366369978
578.8728397487175 7677.011643403826
579.883666950891 7701.471837867974
580.8942375598654 7845.819490138345
581.9045516551851 7766.041422033287
582.9146093163617 7998.447618481031
583.924410622878 7755.2379440235745
584.9339556541727 7803.871893117011
585.9432444896538 7995.296657399194
586.9522772086875 7847.592546215259
587.9610538906127 7938.78129292346
588.9695746147318 7848.033176533316
589.9778394603054 7895.785217011125
590.985848506567 7744.316778233138
591.9936018327098 7816.852379109725
593.0010995178891 7624.290849653467
594.0083416412344 7773.692042872365
595.0153282818283 7608.3665052085025
596.0220595187293 7523.202907236473
597.0285354309508 7516.623326333349
598.0347560974806 7508.989544288275
599.0407215972609 7514.565399028534
600.0464320092051 7427.570689208871
601.0518874121954 7507.934741920477
602.0570878850685 7491.085490864674
603.062033506636 7432.737452629828
604.0667243556636 7508.832573695196
605.0711605108936 7352.561471996331
606.0753420510264 7690.823166535311
607.0792690547278 7429.026243830345
608.082941600629 7369.162556584912
609.0863597673306 7428.233720714823
610.0895236333909 7437.562414196315
611.0924332773357 7590.244993111679
612.0950887776617 7455.662129741437
613.0974902128219 7510.2689884337715
614.0996376612384 7656.5468380847105
615.1015312013005 7652.614435456582
616.1031709113595 7756.647638661886
617.1045568697336 7599.636255570207
618.1056891547069 7653.67758151615
619.1065678445229 7715.300091699648
620.1071930173985 7844.467694650676
621.1075647515099 7840.801475603141
622.1076831250048 7843.474669343615
623.1075482159849 7928.226363781822
624.1071601025305 7982.026177469437
625.1065188626781 8070.615109216233
626.105624574433 8221.74298252772
627.1044773157682 8235.382967779962
628.1030771646128 8236.376522153489
629.1014241988742 8308.467403185252
630.0995184964158 8440.986205247395
631.0973601350688 8402.104479561236
632.0949491926294 8611.727254842495
633.0922857468631 8296.954741398848
634.089369875499 8453.911514108213
635.0862016562278 8426.752202366612
636.0827811667077 8212.290049100235
637.0791084845641 8232.722682167749
638.0751836873878 8049.4307838367195
639.0710068527369 8222.180670536201
640.0665780581294 8024.021483322921
641.0618973810506 7947.159730843802
642.0569648989604 7976.172004063301
643.0517806892676 7769.7596822218375
644.0463448293649 7856.923203620278
645.040657396592 7686.122389952141
646.0347184682723 7644.774539792937
647.0285281216875 7461.156574977234
648.0220864340772 7455.552028844916
649.0153934826558 7337.2818616273435
650.0084493446047 7351.461246691969
651.0012540970674 7353.151108339704
651.9938078171526 7235.600581250808
652.9861105819346 7179.445877728902
653.9781624684565 7269.025963280593
654.9699635537254 7139.5657222636555
655.9615139147136 7150.30868996724
656.9528136283589 7035.499273137864
657.9438627715699 7148.625147144283
658.9346614212154 7023.524464960865
659.925209654135 6846.220129289441
660.9155075471263 6939.632128256679
661.9055551769616 6982.302024996827
662.895352620375 7115.313974795308
663.8848999540678 6901.24312867279
664.8741972547068 6907.39775052607
665.863244598926 6838.990664287179
666.8520420633213 6934.020274382306
667.8405897244611 6761.881423466536
668.8288876588758 6760.16116638055
669.8169359430613 6860.100658881005
670.8047346534822 6801.79953635523
671.7922838665672 6662.079264729655
672.7795836587156 6797.257998038595
673.766634106285 6971.724125852973
674.7534352856092 6718.329541018345
675.7399872729766 6737.854126145595
676.7262901446538 6754.9659179871505
677.712343976862 6808.440218869133
678.6981488457986 6776.727742168245
679.6837048276229 6579.504713258604
680.6690119984596 6713.460893113741
681.6540704344043 6657.80178409575
682.6388802115107 6720.640797322225
683.6234414058108 6698.248970398997
684.6077540932874 6629.190161568455
685.591818349907 6625.843304575251
686.575634251587 6627.995199748443
687.5592018742263 6540.381350327169
688.5425212936734 6413.8096014610255
689.5255925857564 6718.740234464814
690.5084158262707 6569.235465809534
691.4909910909646 6470.910765388351
692.4733184555644 6411.448510289023
693.4553979957618 6580.640876926463
694.4372297872123 6512.353811416933
695.4188139055404 6522.79617268491
696.4001504263324 6348.698239993773
697.3812394251509 6500.200921468743
698.3620809775111 6298.681933296321
699.3426751589104 6434.9837311643805
700.3230220448004 6366.208262380843
701.3031217106054 6370.875694590841
702.2829742317172 6526.304233606782
703.2625796834873 6272.372830857994
704.2419381412474 6245.278239193524
705.22104968028 6432.88691050659
706.1999143758458 6252.5327761527415
707.178532303169 6326.16205238942
708.1569035374378 6279.322397693767
709.1350281538107 6386.259485769313
710.1129062274158 6343.836603619486
711.0905378333373 6415.1663692299835
712.0679230466376 6433.777993524115
713.0450619423427 6519.166094149304
714.0219545954424 6602.164272077416
714.9986010808989 6463.830883289784
715.9750014736292 6514.335539669437
716.9511558485392 6640.381383263411
717.9270642804786 6759.174125284917
718.9027268442787 6716.763897575234
719.8781436147328 6692.108275103502
720.8533146666014 6655.986622058575
721.828240074612 6688.156385865036
722.8029199134635 6634.305321062346
723.7773542578125 6602.287275935652
724.751543182294 6596.659375601206
725.7254867615029 6607.579984984489
726.6991850700015 6461.364440726853
727.6726381823228 6492.417203439289
728.6458461729599 6533.361661808231
729.6188091163858 6454.777842798208
730.5915270870246 6395.825060811377
731.5640001592856 6395.586030952152
732.536228407529 6367.756915584097
733.5082119060917 6441.209519642254
734.4799507292755 6394.093146748996
735.4514449513481 6381.948683952741
736.4226946465496 6386.456298985098
737.3936998890786 6425.007120656993
738.3644607531078 6207.270811357337
739.3349773127793 6290.793052146362
740.3052496421951 6299.988636499704
741.27527781543 6172.39193099713
742.2450619065221 6134.249325702672
743.2146019894826 6171.772418484472
744.183898138288 6175.830619984622
745.1529504268801 6099.77102488267
746.1217589291682 5952.520822849147
747.0903237190341 6048.961599092103
748.058644870318 6039.916284881974
749.0267224568397 6033.050216608476
749.994556552374 5909.13712354567
750.9621472306771 5977.856059611067
751.9294945654583 5927.173831619073
752.8965986304011 5961.563498046808
753.8634594991636 5844.25049373804
754.8300772453586 5975.38950644712
755.7964519425768 5914.561871729993
756.762583664371 6062.333497867844
757.7284724842611 6035.820040789863
758.6941184757416 5936.695764241121
759.6595217122667 5930.9035147525465
760.6246822672638 5964.97208073438
761.5896002141235 5882.852139881174
762.5542756262093 5902.7331863335485
763.5187085768503 5956.376812443287
764.4828991393406 5830.3807221552515
765.4468473869474 5850.646103686206
766.4105533929032 6000.118973180551
767.3740172304078 5901.75750965175
768.3372389726283 5940.939083648429
769.3002186926988 5853.852702823812
770.2629564637282 5859.392988544199
771.2254523587872 5823.029475450541
772.1877064509154 5785.143454610415
773.1497188131179 5678.395170038723
774.1114895183728 5679.496210616099
775.0730186396268 5718.943347781625
776.0343062497905 5702.97603550466
776.9953524217381 5638.754850355373
777.9561572283274 5720.058015470857
778.9167207423689 5690.1145497096095
779.8770430366476 5562.05058386046
780.8371241839159 5586.481200559674
781.7969642568951 5617.024491313454
782.7565633282757 5797.595380113532
783.7159214707099 5622.079091283772
784.6750387568281 5610.570255283448
785.6339152592227 5607.6410353359015
786.5925510504512 5587.072477033859
787.5509462030477 5649.061588914825
788.5091007895098 5555.502935655531
789.4670148823006 5578.431212198804
790.4246885538596 5546.0847684723985
791.3821218765861 5589.681594025346
792.3393149228505 5500.267768517306
793.2962677649975 5627.80955497205
794.2529804753303 5559.515891173401
795.20945312613 5658.832784509803
796.1656857896378 5538.112589871847
797.1216785380675 5516.672879142867
798.0774314435985 5623.660138077474
799.0329445783846 5728.111665663574
799.9882180145414 5667.296708697548
800.9432518241574 5622.741819535889
801.89804607929 5679.947067394745
802.852600851962 5680.7877187272215
803.8069162141637 5625.394332454907
804.760992237856 5681.7156593767195
805.714828994971 5706.0502665139475
806.6684265574077 5714.2527892717135
807.6217849970271 5676.049923445196
808.574904385674 5591.122449814876
809.527784795142 5725.955978921695
810.4804262972102 5743.437420332105
811.4328289636178 5637.468750103614
812.3849928660748 5518.0073282080275
813.3369180762638 5457.609706657107
814.2886046658241 5619.311065040189
815.2400527063783 5450.44649567245
816.1912622695108 5385.81645729297
817.1422334267718 5516.691965737802
818.0929662496856 5362.318499696806
819.0434608097457 5260.209047194776
819.9937171784059 5348.29651833676
820.9437354271013 5257.8350225764025
821.8935156272255 5435.602468459381
822.8430578501484 5300.651649611102
823.7923621672016 5141.030481429011
824.7414286496896 5189.30072731892
825.6902573688876 5222.343384192589
826.6388483960363 5206.179352466523
827.5872018023492 5137.703979886222
828.5353176590033 5271.49080936403
829.4831960371503 5059.520646715702
830.4308370079016 5131.671686298731
831.3782406423525 5191.25021236638
832.3254070115545 5221.423439872702
833.2723361865319 5159.570615729357
834.2190282382799 5054.365144074736
835.1654832377644 5121.547717593579
836.1117012559116 5045.25188990817
837.0576823636256 5169.343175124226
838.003426631778 5024.38922011986
838.9489341312074 4971.041079880508
839.8942049327197 5158.537665058508
840.8392391070975 5204.641174582836
841.7840367250865 5090.992946118213
842.7285978573982 4990.593879384797
843.672922574724 5158.990178921835
844.6170109477152 5026.258237957982
845.560863046996 4982.9297882491865
846.5044789431595 5033.024323308441
847.4478587067697 4987.84792109809
848.3910024083561 5115.677804036725
849.333910118421 4980.179438826159
850.2765819074339 4940.098766054227
851.2190178458332 5078.477327837499
852.161218004032 5055.754444477553
853.1031824524016 5039.177454418943
854.0449112612987 4957.011895967492
854.9864045010327 5079.674238568045
855.9276622418947 4913.337970779317
856.8686845541379 4983.142615670882
857.8094715079915 4934.417498969578
858.7500231736467 5134.57571166539
859.690339621271 4970.55082167191
860.6304209209939 4965.0881985043625
861.5702671429244 4900.136325814088
862.5098783571284 5012.217690357431
863.4492546336569 5009.285799440046
864.3883960425155 4953.798272239252
865.3273026536863 4909.470913267168
866.2659745371238 4853.57391843507
867.2044117627465 5028.0559237975995
868.1426144004472 4903.241686073741
869.0805825200823 4989.204737535968
870.0183161914847 4976.737056917176
870.9558154844526 5038.446658318531
871.8930804687552 5071.819667428849
872.8301112141307 4876.8409449646
873.7669077902865 5078.805330647145
874.7034702669062 5183.044628291432
875.6397987136315 4991.692065236799
876.5758932000863 5064.193712871816
877.5117537958522 5188.305564568787
878.4473805704911 5037.02307042609
879.3827735935283 5028.378430215487
880.3179329344603 5212.907299301554
881.2528586627541 5142.100074692799
882.1875508478479 5266.589474332934
883.1220095591489 5135.849165501924
884.0562348660296 5038.957353188025
884.9902268378391 5240.707067326073
885.9239855438955 5093.350792017109
886.8575110534839 4937.850507960269
887.7908034358588 5072.065840615706
888.7238627602474 5049.577203868612
889.6566890958475 5077.994867171386
890.5892825118208 4891.801872752381
891.5216430773125 4980.071406525292
892.4537708614189 5028.104161949215
893.3856659332196 4872.137357778353
894.3173283617652 4813.06907356233
895.2487582160684 4884.828080254059
896.179955565116 4872.677238616512
897.110920477864 4797.350966323559
898.0416530232451 4790.080266418562
898.9721532701478 4737.4731721651715
899.9024212874428 4898.767048314384
900.8324571439662 4715.901436401684
901.7622609085302 4697.729374607536
902.6918326499072 4656.3817322487
903.6211724368477 4709.842152391206
904.5502803380696 4807.319635736941
905.4791564222614 4915.2165853073575
906.4078007580792 4620.488624081294
907.3362134141571 4668.607313544525
908.2643944590909 4871.374693295671
909.1923439614493 4653.392381247384
910.1200619897754 4680.357973074554
911.0475486125779 4854.0850118369835
911.9748038983344 4642.634584083532
912.9018279155007 4684.854891398391
913.8286207324982 4517.048698648176
914.7551824177117 4701.811629058463
915.6815130395116 4635.545529770908
916.6076126662283 4508.383370039339
917.533481366163 4507.623920771209
918.4591192075914 4661.816957112764
919.3845262587565 4709.685004742144
920.3097025878706 4581.948231327844
921.2346482631237 4582.728322836078
922.1593633526682 4564.3465430986125
923.0838479246304 4700.99197285005
924.0081020471061 4755.505914703259
924.9321257881656 4561.748283315335
925.8559192158464 4616.404615815127
926.7794823981512 4500.064833112146
927.7028154030686 4471.683292242738
928.6259182985414 4429.102306616678
929.5487911524906 4606.27789931949
930.4714340328119 4638.9876429653195
931.3938470073608 4392.279346392074
932.3160301439748 4428.357181888317
933.2379835104548 4452.229573026828
934.1597071745709 4582.374724277683
935.0812012040769 4522.859349723773
936.002465666681 4576.018454090625
936.9235006300696 4591.72237613252
937.8443061619055 4569.442876314221
938.7648823298077 4372.25541488915
939.6852292013809 4452.09846759277
940.6053468441951 4548.968612584315
941.5252353257874 4412.4060026734205
942.4448947136698 4444.054568508922
943.364325075323 4403.594137355819
944.2835264782043 4466.194755100825
945.2024989897309 4431.148914523626
946.1212426773054 4428.337872639068
947.0397576082851 4538.909519744461
947.9580438500125 4613.931668491474
948.8761014697939 4621.5035140804
949.7939305349064 4548.392450857827
950.7115311125999 4416.546904802837
951.6289032700952 4435.743121593225
952.5460470745875 4563.628933860687
953.4629625932339 4431.82190935359
954.3796498931715 4494.455662470545
955.2961090415029 4521.917014291644
956.2123401053068 4505.409212144552
957.1283431516276 4445.109415706066
958.0441182474842 4389.888815277989
958.9596654598663 4578.760555626732
959.8749848557309 4447.018489836039
960.7900765020167 4417.311706120444
961.7049404656209 4394.083193899269
962.6195768134185 4413.084850115994
963.5339856122537 4491.043943485161
964.4481669289453 4415.522634899923
965.3621208302793 4487.004522868333
966.2758473830145 4325.874263282685
967.1893466538822 4618.943323161822
968.1026187095813 4347.596033750036
969.0156636167867 4446.680099355928
969.9284814421426 4444.120545853105
970.8410722522622 4461.675226622484
971.753436113735 4399.497207238063
972.6655730931161 4366.200815030559
973.5774832569368 4520.303276848335
974.4891666716958 4384.403819995172
975.4006234038698 4376.291189245868
976.3118535198955 4336.030844965006
977.2228570861935 4502.62102456367
978.1336341691494 4509.394892887603
979.0441848351202 4279.239522056327
979.9545091504333 4473.570529661711
980.864607181391 4406.333408585884
981.7744789942699 4458.4622025893905
982.6841246553086 4405.5754810902745
983.5935442307236 4488.0912221427725
984.5027377867027 4462.296531580509
985.4117053894024 4457.623291657171
986.3204471049557 4394.425703382602
987.2289629994648 4519.6379935786235
988.1372531390007 4528.206738881906
989.0453175896091 4511.072279503425
989.9531564173067 4473.155640249882
990.860769688079 4382.891094937164
991.7681574678918 4381.207565401196
992.6753198226706 4540.344770064178
993.582256818323 4392.328991295321
994.4889685207218 4374.534717037498
995.3954549957143 4562.033316412904
996.301716309119 4561.10712695017
997.2077525267232 4427.531395954926
998.1135637142943 4395.711481766883
999.0191499375615 4528.813930457776
999.924511262232 4563.489422262757
1000.8296477539861 4449.751752905227
1001.7345594784656 4444.759298046043
1002.6392465012996 4382.495362139163
1003.5437088880753 4608.448527278057
1004.4479467043584 4497.641322887691
1005.3519600156869 4304.721490805104
1006.2557488875718 4539.69796513141
1007.1593133854858 4521.920421839766
1008.0626535748888 4354.820454484088
1008.9657695212009 4350.822124542914
1009.8686612898182 4563.341214548772
1010.7713289461135 4493.909274727553
1011.6737725554212 4445.445739910314
1012.5759921830577 4442.699148221056
1013.4779878943027 4507.672177925654
1014.379759754418 4608.197202254508
1015.2813078286254 4395.303798294068
1016.18263218213 4282.664313923931
1017.0837328801026 4387.775156791853
1017.9846099876886 4513.36361047338
1018.8852635700023 4392.824358798171
1019.7856936921362 4225.302844540246
1020.6859004191447 4552.500231309025
1021.5858838160675 4313.245760834526
1022.4856439479063 4211.60784427213
1023.3851808796389 4231.516289934833
1024.2844946762143 4401.578634677722
1025.183585402554 4398.229848879944
1026.082453123554 4151.033831026611
1026.9810979040776 4309.803065981215
1027.8795198089647 4164.321438837024
1028.777718903024 4278.330518675379
1029.6756952510368 4165.5397717176465
1030.5734489177648 4146.128169493886
1031.4709799679313 4164.383804932734
1032.3682884662358 4323.741231989415
1033.2653744773506 4078.427796721233
1034.1622380659192 4094.398026800539
1035.058879296559 4225.041628175422
1035.9552982338591 4306.478162229116
1036.8514949423825 4205.215068766839
1037.7474694866614 4141.85790496293
1038.6432219312028 4088.5451695748
1039.5387523404825 4259.998422075792
1040.4340607789582 4145.445712524108
1041.3291473110476 4150.087248054641
1042.2240120011465 4263.312322884737
1043.1186549136273 4247.622645165038
1044.0130761128294 4159.353831553038
1044.9072756630649 4143.7826304796745
1045.8012536286205 4303.3298080391505
1046.6950100737577 4304.126030719326
1047.588545062701 4314.8733032010805
1048.481858659663 4298.55038728554
1049.3749509288118 4445.875349110693
1050.2678219343034 4204.239805658146
1051.1604717402515 4252.466981166108
1052.0529004107575 4164.602376534066
1052.9451080098825 4329.757425282309
1053.8370946016694 4330.349238075541
1054.7288602501267 4298.951832045714
1055.6204050192446 4293.92557861089
1056.511728972977 4369.590985744853
1057.402832175254 4348.089798162129
1058.2937146899785 4270.446944663724
1059.1843765810263 4298.564091846181
1060.0748179122456 4386.35639146056
1060.9650387474576 4292.987988604156
1061.855039150456 4299.518161988998
1062.7448191850071 4328.803326942929
1063.6343789148505 4363.864258881132
1064.5237184037014 4439.870520340006
1065.412837715241 4225.419946781661
1066.3017369131267 4247.563794443118
1067.190416060992 4145.486229989974
1068.0788752224398 4220.193360107126
1068.9671144610438 4196.301324532839
1069.8551338403558 4221.952554747309
1070.7429334239023 4274.80250399519
1071.6305132751695 4104.033290480974
1072.517873457633 4209.23313854779
1073.4050140347335 4205.285103050888
1074.2919350698776 4180.9835284964265
1075.1786366264623 4233.75125410827
1076.0651187678395 4184.892765571648
1076.95138155735 4035.7773995887037
1077.8374250582929 4047.6592415247787
1078.7232493339507 4167.476384323142
1079.608854447577 4129.824395235615
1080.4942404623907 3973.7943616298703
1081.3794074415982 4157.794172922981
1082.2643554483657 4123.260498389925
1083.149084545841 4087.246793845836
1084.033594797138 3987.557380961366
1084.9178862653516 3975.3721142849417
1085.8019590135427 4271.610996243825
1086.6858131047484 3977.5225482542273
1087.5694486019802 4073.002783478307
1088.4528655682225 4042.6133015126848
1089.3360640664287 4236.656517765662
1090.2190441595321 4147.644541200958
1091.1018059104317 4054.512998807421
1091.98434938201 4165.78413660365
1092.866674637111 4239.814626950525
1093.748781738559 4079.214956589727
1094.6306707491512 3919.6990790060468
1095.5123417316554 4114.369634056546
1096.3937947488157 4020.577448357309
1097.2750298633455 3945.8769937225543
1098.156047137938 3924.728990003236
1099.0368466352556 3995.281397551606
1099.9174284179317 4129.247637542135
1100.7977925485757 3834.329268251723
1101.6779390897755 3981.7884172400286
1102.5578681040806 4017.04845623563
1103.4375796540226 3948.0235473498024
1104.3170738021054 3907.8812302374
1105.1963506108077 3804.1273974953924
1106.0754101425773 3890.6780220863684
1106.9542524598382 3976.9830194273054
1107.8328776249855 3882.8517119290605
1108.7112857003904 3905.15689024706
1109.5894767483987 3898.2225634083175
1110.4674508313292 4049.188710151628
1111.3452080114657 3875.1598915585696
1112.2227483510815 3947.2698317557015
1113.1000719124077 3952.343535110256
1113.9771787576592 4044.332536538477
1114.854068949022 3899.432266837619
1115.7307425486542 4005.540882373177
1116.6071996186893 4109.948336790291
1117.483440221229 4179.346776916821
1118.3594644183577 3960.9127061717977
1119.235272272128 3992.472782289567
1120.1108638445658 4128.791732720308
1120.9862391976712 4354.793356328041
1121.8613983934229 4218.780464411523
1122.7363414937627 4144.538388396439
1123.6110685606182 4134.726539281447
1124.485579655884 4390.388591265188
1125.359874841426 4279.602213229498
1126.2339541790916 4210.655061171521
1127.1078177306936 4453.138578360713
1127.9814655580267 4232.2222758281805
1128.854897722851 4292.578750642192
1129.7281142869106 4203.913497744332
1130.6011153119125 4303.238664205007
1131.473900859548 4488.161646359229
1132.3464709914697 4335.2712141227985
1133.2188257693178 4280.58509220728
1134.0909652546961 4132.959844425211
1134.96288950919 4181.336246899192
1135.8345985943506 4319.2187981580555
1136.7060925717087 4032.0573288040105
1137.57737150277 4225.927427207395
1138.4484354490069 4355.9671641224195
1139.3192844718778 4190.15403611647
1140.1899186327992 3956.528361245032
1141.060337993178 4167.196574024009
1141.930542614382 4041.946005822329
1142.8005325577597 4029.0710264595677
1143.670307884635 3873.825226195853
1144.5398686563003 4040.6930103187688
1145.409214934025 4028.6210015922625
1146.2783467790541 3716.5445026162242
1147.1472642526023 3882.4451369882204
1148.0159674158622 3981.8343622542475
1148.8844563300026 3902.1233221600064
1149.7527310561618 3736.6255205920415
1150.6207916554504 3649.7161304299634
1151.4886381889592 3655.58036107385
1152.3562707177498 3820.97023753691
1153.2236893028585 3625.0578418855466
1154.090894005296 3653.1612456925054
1154.9578848860474 3701.957907325787
1155.8246620060709 3675.9439054962086
1156.6912254262988 3559.3318750146855
1157.5575752076438 3589.7294926326017
1158.42371141098 3791.2645250944515
1159.2896340971656 3847.5318245911308
1160.1553433270346 3674.854473746068
1161.0208391613887 3690.9778327193067
1161.8861216610057 3738.922872308371
1162.75119088664 3718.0125470661305
1163.6160468990201 3660.5503016620446
1164.4806897588442 3625.419881103169
1165.3451195267917 3760.3272685145726
1166.2093362635114 3709.1722122914935
1167.0733400296285 3641.1965491210767
1167.9371308857444 3591.914257628304
1168.8007088924278 3588.39564384383
1169.6640741102328 3667.28374983631
1170.5272265996773 3485.2275295332597
1171.390166421259 3558.221650107696
1172.252893635452 3606.6746559934763
1173.1154083026995 3740.2491447385896
1173.977710483421 3754.1112266453574
1174.8398002380145 3521.400468735608
1175.7016776268483 3592.2255277406466
1176.563342710264 3598.4286574749894
1177.4247955485826 3490.307016153285
1178.2860362020947 3597.6716260428752
1179.147064731069 3468.4009922430355
1180.0078811957483 3664.004193692872
1180.8684856563486 3511.1537985388486
1181.7288781730604 3562.6471116224993
1182.589058806052 3612.4016248530415
1183.4490276154593 3813.2204822049957
1184.3087846614017 3524.3273762815234
1185.1683300039676 3693.126173824813
1186.027663703222 3870.54868623852
1186.8867858192025 3635.677878940449
1187.7456964119228 3696.596607873943
1188.6043955413716 3758.746081976819
1189.4628832675116 3814.5918495366705
1190.3211596502842 3931.3273446913104
1191.179224749596 3937.65833004265
1192.0370786253388 3755.1698790607543
1192.8947213373758 3958.3394894303974
1193.7521529455407 4029.2633712250986
1194.6093735096438 3754.5827551989037
1195.466383089477 3761.8556075588085
1196.3231817447977 3799.7503174986314
1197.1797695353398 3977.784311338997
1198.0361465208189 3771.8031755950446
1198.8923127609214 3690.187487170406
1199.7482683153048 3867.652688031393
1200.6040132436028 3950.0410549544745
1201.459547605431 3705.8311636652725
1202.3148714603722 3849.458921220373
1203.1699848679855 3789.92752320519
1204.0248878878065 3990.6932909018988
1204.8795805793507 3615.2912911658823
1205.7340630020935 3817.058881754997
1206.5883352155033 3893.399988409369
1207.4423972790064 3845.108524242067
1208.2962492520237 3679.119727617667
1209.1498911939307 3739.4552664822295
1210.0033231640937 3756.9303067676037
1210.8565452218427 3838.8935368439516
1211.7095574264913 3503.0950575205816
1212.5623598373222 3682.590079388712
1213.4149525135963 3542.4364574353217
1214.2673355145507 3725.3246359729847
1215.1195088993936 3545.330438452588
1215.9714727273113 3570.423614733775
1216.8232270574663 3786.3389692646642
1217.6747719489904 3469.0534595579784
1218.5261074609934 3547.0223415731307
1219.3772336525653 3594.4424895062657
1220.2281505827668 3685.1298552057983
1221.0788583106296 3689.760581701225
1221.9293568951707 3428.999994311837
1222.7796463953746 3364.6265929726483
1223.629726870202 3608.66859158261
1224.4795983785934 3560.8376911471983
1225.3292609794553 3466.69510041848
1226.1787147316809 3351.526548745694
1227.0279596941327 3535.1388823837356
1227.8769959256424 3394.4802647977913
1228.7258234850306 3537.666623244712
1229.5744424310833 3355.0057567347008
1230.422852822563 3564.4272907481
1231.2710547182105 3661.590452507281
1232.119048176739 3488.8715533588356
1232.9668332568417 3328.368723131292
1233.8144100171812 3546.708518190289
1234.6617785163999 3455.9951468069494
1235.508938813111 3302.702136424774
1236.3558909659114 3348.883557668795
1237.2026350333617 3552.185745977923
1238.049171074008 3550.13151165076
1238.8954991463652 3398.0169341727365
1239.741619308932 3479.1287710341057
1240.587531620169 3879.7117644020263
1241.4332361385277 3549.5395619134747
1242.2787329224248 3345.267501444323
1243.1240220302534 3309.342295386107
1243.9691035203869 3310.299820263766
1244.813977451171 3583.642280609255
1245.6586438809263 3406.739908608363
1246.5031028679496 3211.395382043438
1247.3473544705157 3472.134537264723
1248.1913987468706 3426.8264332966087
1249.0352357552383 3225.2531705303486
1249.8788655538228 3245.912094389952
1250.7222882007918 3402.4350506976925
1251.565503754302 3466.534020234795
1252.4085122724755 3127.7527715796614
1253.2513138134182 3468.7708397878823
1254.0939084352049 3367.5416452016916
1254.9362961958905 3311.945718525727
1255.7784771535007 3289.3311072444276
1256.6204513660432 3393.9691468640326
1257.4622188915 3555.7286990485977
1258.3037797878242 3281.0021765948577
1259.1451341129468 3254.6320418364544
1259.9862819247755 3431.305078008765
1260.8272232811978 3351.2471905952248
1261.6679582400666 3615.9200603003133
1262.5084868592203 3264.6012353501874
1263.34880919647 3249.2168634100253
1264.1889253095997 3334.8606691662453
1265.0288352563712 3472.0059920896833
1265.8685390945266 3295.252337276847
1266.7080368817751 3419.2211492383276
1267.5473286758115 3498.598655197509
1268.386414534294 3424.0033206528906
1269.2252945148703 3130.948952004802
1270.0639686751547 3288.6492829263407
1270.9024370727402 3315.649570287163
1271.7406997651997 3247.442149341751
1272.5787568100714 3132.591121917042
1273.4166082648808 3156.358607318846
1274.2542541871244 3296.5917368923947
1275.091694634275 3510.283002618123
1275.9289296637817 3131.433317481065
1276.7659593330663 3358.047691300779
1277.6027836995308 3218.009696087605
1278.4394028205552 3503.8457235623587
1279.2758167534867 3299.9056727129782
1280.112025555658 3209.434574414207
1280.9480292843746 3306.556228890976
1281.7838279969128 3179.4144790268665
1282.6194217505326 3198.3749108990064
1283.4548106024686 3113.717700074022
1284.289994609926 3256.8758118120522
1285.1249738300921 3309.656413795709
1285.959748320127 3161.5313485965567
1286.7943181371702 3328.242930198781
1287.6286833383328 3266.9850141356696
1288.4628439807038 3246.739772137013
1289.2968001213521 3100.5374324818295
1290.1305518173194 3240.4162357673663
1290.9640991256183 3337.321575675215
1291.7974421032523 3177.381121139158
1292.630580807183 3122.830465709155
1293.463515294361 3335.4463823311053
1294.29624562171 3383.3650134213703
1295.12877184613 3209.4316122178175
1295.961094024493 3221.7663192033615
1296.79321221365 3322.5594125460957
1297.6251264704333 3222.7504823779536
1298.4568368516466 3558.851516372605
1299.2883434140658 3327.291778344069
1300.1196462144526 3144.409076635294
1300.9507453095375 3334.493705663378
1301.7816407560313 3269.5764050816074
1302.6123326106172 3217.484408791604
1303.4428209299622 3174.7606231846603
1304.2731057707024 3445.369725225949
1305.1031871894502 3205.748274164239
1305.933065242798 3346.5461182391155
1306.7627399873181 3220.2215193451207
1307.5922114795467 3687.271760718112
1308.4214797760123 3539.368897828711
1309.2505449332057 3314.9581820315643
1310.0794070076026 3380.9135042026937
1310.9080660556538 3463.9454306757725
1311.736522133786 3573.627147624439
1312.5647752983987 3279.7884180283836
1313.3928256058734 3149.91939426136
1314.2206731125661 3425.518627795705
1315.048317874809 3411.358946376548
1315.8757599489109 3288.8159779013426
1316.7029993911547 3325.0007752111624
1317.5300362578055 3472.322477731627
1318.356870605101 3253.1402207339875
1319.183502489257 3233.884342684258
1320.0099319664623 3333.563531485387
1320.836159092889 3364.1243395330057
1321.66218392468 3435.884433058094
1322.4880065179532 3163.458129603789
1323.3136269288134 3291.720560660485
1324.1390452133292 3436.0472627980294
1324.9642614275563 3549.6603979176834
1325.7892756275214 3344.767221772542
1326.6140878692295 3241.87694693764
1327.4386982086617 3713.5528328975024
1328.2631067017755 3420.6691280010846
1329.0873134045069 3449.5249234397425
1329.911318372764 3315.6403362540564
1330.735121662441 3395.7816678625923
1331.558723329399 3250.075784818096
1332.3821234294774 3283.3761887467836
1333.2053220185007 3358.679667069124
1334.0283191522612 3214.488561465066
1334.851114886529 3390.4154541433613
1335.6737092770582 3162.408926477782
1336.4961023795695 3241.5017410628816
1337.3182942497697 3152.117665498602
1338.1402849433325 3264.9403894219095
1338.962074515921 3070.061187133739
1339.7836630231632 3106.8796238877653
1340.6050505206676 3589.940840531279
1341.426237064028 3494.1333800146376
1342.2472227088037 3152.30782847219
1343.0680075105338 3147.5271061870094
1343.888591524741 3224.4748161463563
1344.7089748069138 3338.2941307775764
1345.5291574125276 3217.5545957648874
1346.3491393970307 3069.136164881639
1347.168920815846 3291.01753233642
1347.9885017243778 3432.710622388361
1348.8078821780036 3224.787841380691
1349.6270622320844 3246.405608053943
1350.4460419419447 3148.2979245971856
1351.2648213629054 3322.959133774545
1352.0834005502438 3057.4048180204995
1352.90177955923 3113.86445600372
1353.7199584451064 3336.977829704278
1354.5379372630887 3201.08451638326
1355.355716068374 3081.8065472085045
1356.1732949161305 3147.674033755197
1356.9906738615155 3244.1332975914916
1357.8078529596478 3183.6204588483747
1358.6248322656375 3322.477756725144
1359.441611834567 3153.4134241072484
1360.2581917214866 3247.457113065646
1361.0745719814367 3197.5312005379665
1361.890752669433 3069.5444741395722
1362.7067338404577 2990.8173671579602
1363.5225155494845 3334.5929419732406
1364.3380978514506 3333.443543939285
1365.1534808012839 3001.7467422075338
1365.9686644538815 2833.424045976265
1366.783648864117 3244.664459949562
1367.5984340868417 3314.616368915676
1368.413020176893 3099.722052686115
1369.2274071890715 2936.407454117364
1370.0415951781652 3311.930625826268
1370.8555841989346 3147.20744406747
1371.6693743061223 2926.8251085152488
1372.48296555444 2831.146942290582
1373.2963579985844 3122.439402228036
1374.1095516932255 3162.0077079389016
1374.9225466930166 2842.829893817413
1375.7353430525782 3059.9324245524867
1376.5479408265164 2998.712250962398
1377.36034006941 3120.6223373364237
1378.1725408358216 3165.220609170579
1378.9845431802805 2925.440089742119
1379.796347157304 3344.4784445690543
1380.6079528213813 3192.842137949089
1381.4193602269788 2942.4631619829097
1382.230569428546 2942.5989600580947
1383.0415804805016 3239.821643525307
1383.852393437246 3124.2179546037314
1384.6630083531563 3051.4335890420034
1385.4734252825892 2991.9690654604137
1386.2836442798798 3068.9332387244913
1387.0936653993322 3038.9058375810864
1387.9034886952395 2996.9506937432884
1388.713114221864 3148.1585125280894
1389.5225420334482 3105.013772131294
1390.331772184214 2989.016189286722
1391.1408047283585 2777.9750407341357
1391.9496397200564 2994.968473883736
1392.758277213461 3059.93690137674
1393.5667172627054 3164.8567752448134
1394.3749599218918 2932.263670414155
1395.1830052451114 2840.4447469879246
1395.9908532864265 2914.979682755618
1396.7985040998774 3124.7004803906993
1397.6059577394808 2830.5031815985326
1398.4132142592352 2961.3703232849057
1399.2202737131156 2896.4705314110965
1400.027136155073 3146.2426540368488
1400.8338016390353 2886.133822681792
1401.6402702189134 2848.247028260056
1402.446541948586 2939.169204222673
1403.2526168819204 2881.801328360462
1404.058495072757 2763.219344428102
1404.8641765749107 2865.962569455571
1405.6696614421799 2973.911760306991
1406.4749497283356 3295.706795341336
1407.280041487129 2858.7376504355757
1408.084936772295 2750.0820123747444
1408.8896356375335 3031.918647831165
1409.6941381365323 2999.678867402527
1410.498444322955 2743.9880960547653
1411.3025542504402 2886.8451568493088
1412.106467972606 3000.965300635964
1412.9101855430508 2924.841334986718
1413.7137070153458 2604.0198773168336
1414.5170324430437 2815.714878453801
1415.320161879672 2966.1067447001424
1416.1230953787435 3154.744200540485
1416.925832993742 2829.896853999712
1417.7283747781275 2667.2622800127724
1418.5307207853439 2961.9478361829965
1419.3328710688093 2842.1847189374735
1420.134825681922 2561.6904098553396
1420.9365846780584 2664.306859076448
1421.7381481105713 3064.03513139307
1422.539516032788 2883.3542268941364
1423.3406884980232 2723.0060723332276
1424.1416655595604 2643.093841654485
1424.942447270665 2738.529314002597
1425.7430336845828 2916.147597334642
1426.5434248545298 2610.0121617857358
1427.3436208337116 2839.1866058029327
1428.143621675301 2875.19726120826
1428.9434274324558 2968.387069867227
1429.7430381583108 2584.044099629228
1430.5424539059713 2758.5302598646563
1431.3416747285337 3134.021545715136
1432.1407006790632 2983.2732269027674
1432.9395318106053 2868.8020134561016
1433.7381681761835 2659.3511750299776
1434.5366098288014 2887.8546206510096
1435.3348568214424 2886.8274034084106
1436.1329092070573 2707.0273740064495
1436.9307670385879 2874.3311784007237
1437.7284303689503 2900.304975316608
1438.5258992510335 2988.170200685748
1439.3231737377118 2850.95374563144
1440.1202538818306 2760.7257127921002
1440.9171397362225 2791.0168706855857
1441.7138313536925 2877.2747208971614
1442.5103287870243 2666.7537730835925
1443.3066320889775 2613.8607678433796
1444.1027413122956 3031.0787964988053
1444.8986565096966 2710.053634990175
1445.694377733882 2752.9934792605354
1446.4899050375207 2637.674852577969
1447.2852384732687 2770.9999836186926
1448.0803780937622 2917.6353573822207
1448.8753239516063 2606.299995075281
1449.6700760993954 2543.4166014603934
1450.464634589689 2658.240066293821
1451.2589994750397 2997.2909769101184
1452.0531708079689 2563.64345524819
1452.8471486409799 2535.5104562838
1453.6409330265524 2973.833285536828
1454.4345240171442 2659.883841717745
1455.2279216651987 2535.129994261836
1456.0211260231263 2655.544144980243
1456.8141371433194 2797.5861833528716
1457.6069550781594 2885.9795215378595
1458.3995798799897 2454.9641719863553
1459.1920116011424 2565.9251431320363
1459.98425029393 2487.1411734172207
1460.7762960106338 2592.4490469588663
1461.5681488035225 2610.0438177185347
1462.3598087248392 2719.562267887198
1463.1512758268036 2939.8443415816264
1463.942550161617 2612.52685948626
1464.7336317814625 2483.631248769196
1465.524520738496 2691.887749520198
1466.3152170848552 2521.997506464665
1467.1057208726506 2666.26830862838
1467.8960321539817 2508.9455087794295
1468.6861509809169 2428.570880836135
1469.4760774055085 2599.1464298021347
1470.265811479785 2617.468058462258
1471.055353255755 2395.9983191592446
1471.844702785409 2477.3745240894627
1472.6338601207044 2430.953139023428
1473.4228253135934 2713.1832893609744
1474.2115984159936 2405.780625328851
1475.0001794798063 2304.9918497087056
1475.7885685569145 2623.3847976242278
1476.576765699172 2608.195876495615
1477.3647709584238 2530.6312230827893
1478.1525843864802 2725.103438138285
1478.9402060351367 2641.473304290938
1479.7276359561693 2607.7251848600704
1480.514874201328 2476.990540740339
1481.3019208223468 2298.1556585776834
1482.0887758709323 2343.601412138837
1482.8754393987747 2732.509234561777
1483.6619114575406 2350.0223730475755
1484.4481920988783 2487.9211898981466
1485.2342813744108 2540.7867618783625
1486.0201793357446 2759.065858592136
1486.8058860344572 2318.5501692205276
1487.591401522117 2434.495879810847
1488.3767258502594 2409.385273350731
1489.1618590704056 2509.5836688919635
1489.9468012340494 2186.7838681015555
1490.7315523926754 2538.5277088373887
1491.5161125977356 2566.9693684145373
1492.3004819006637 2494.1638155880732
1493.084660352877 2225.7763703128494
1493.8686480057622 2558.590999370477
1494.6524449106964 2687.747967993082
1495.4360511190262 2711.3841617229587
1496.219466682087 2479.4323387962036
1497.0026916511779 2437.8342174498966
1497.7857260775945 2504.410775844134
1498.5685700125996 2638.0631471818933
1499.3512235074395 2322.322091755267
1500.133686613337 2323.0815935769815
1500.9159593814966 2497.0909001213226
1501.698041863101 2361.9415122380988
1502.4799341093094 2226.72479843015
1503.2616361712662 2208.5372091435343
1504.043148100087 2585.342015258605
1504.8244699468742 2617.6359277806546
1505.6056017626997 2332.244880513234
1506.3865435986281 2332.719437710111
1507.1672955056893 2602.9750523395846
1507.9478575348967 2365.9396806566674
1508.7282297372512 2607.8305187965507
1509.5084121637192 2493.0767904514664
1510.2884048652577 2417.3264877176234
1511.0682078927948 2369.095359804827
1511.8478212972423 2396.374320209433
1512.6272451294917 2410.6631474143774
1513.4064794404076 2573.5412674331624
1514.1855242808433 2569.842779757631
1514.9643797016215 2383.607225291583
1515.743045753552 2519.5489029520645
1516.5215224874191 2438.427896199463
1517.2998099539836 2227.689189664309
1518.077908203999 2378.6854319597396
1518.8558172881785 2369.754787274183
1519.633537257234 2453.6752380445228
1520.4110681618404 2525.0376588254244
1521.1884100526604 2403.004838065276
1521.9655629803365 2370.0671506158023
1522.7425269954856 2600.1170862185186
1523.5193021487103 2873.963150347127
1524.2958884905856 2332.725056289564
1525.0722860716687 2345.49408174941
1525.848494942502 2268.6625057954025
1526.624515153595 2428.0686861973686
1527.4003467554485 2448.199739813394
1528.175989798534 2512.612208131608
1528.9514443333064 2424.502803562149
1529.726710410203 2722.8964926480235
1530.5017880796331 2255.239501795172
1531.276677391992 2302.9323724484684
1532.0513783976457 2598.629305003483
1532.825891146953 2396.498186156868
1533.6002156902414 2489.9150438483875
1534.3743520778207 2447.4624071286316
1535.1483003599806 2366.636131221317
1535.9220605869923 2505.412337974895
1536.6956328091019 2470.5059876605224
1537.4690170765407 2335.9537656686875
1538.242213439511 2564.66701230934
1539.015221948208 2463.1257390611113
1539.78804265279 2343.4688640536174
1540.560675603405 2273.954341572135
1541.3331208501804 2651.499614361145
1542.1053784432224 2617.379054531152
1542.8774484326168 2460.970023658727
1543.649330868422 2475.674862338349
1544.4210258006842 2499.723212734822
1545.1925332794308 2516.37579770287
1545.9638533546604 2496.966222580548
1546.7349860763552 2407.6946705417695
1547.5059314944829 2782.0836080790646
1548.27668965898 2464.036689649895
1549.0472606197673 2483.337605095865
1549.817644426752 2389.1170199988164
1550.5878411298072 2608.0963243956758
1551.3578507787988 2450.8582795229527
1552.1276734235635 2300.2224101816914
1552.8973091139233 2448.4686381233996
1553.6667578996767 2578.0821427514616
1554.436019830604 2364.034060524492
1555.20509495646 2366.169651935789
1555.9739833269869 2363.7783876946773
1556.7426849919011 2384.641857941403
1557.511200000903 2647.1878553597303
1558.2795284036674 2462.0504041545855
1559.0476702498509 2352.008574696443
1559.8156255890954 2522.8029638898906
1560.5833944710157 2862.088683528073
1561.3509769452048 2269.6544730155147
1562.1183730612447 2387.165725070591
1562.8855828686865 2324.4056595742177
1563.6526064170703 2722.773208082127
1564.4194437559127 2555.381284603626
1565.1860949347047 2345.598831782611
1565.9525600029283 2620.260619693875
1566.7188390100328 2831.488090532741
1567.4849320054564 2356.762238282955
1568.250839038612 2364.103270627106
1569.0165601588997 2460.450338504693
1569.7820954156887 2646.0191825897036
1570.5474448583373 2467.5301208574074
1571.31260853618 2388.9647177167726
1572.0775864985299 2197.049175495644
1572.8423787946813 2488.325169554745
1573.6069854739108 2268.646134002854
1574.371406585471 2404.054071711812
1575.1356421785986 2627.0697665526177
1575.899692302506 2359.1595667486336
1576.6635570063845 2544.336727854408
1577.4272363394157 2368.1532871479094
1578.190730350747 2392.045228628615
1578.9540390895163 2548.5083549571755
1579.7171626048384 2120.7409852044825
1580.480100945806 2306.2873552047613
1581.2428541614918 2433.9988493676406
1582.0054223009538 2467.702120195137
1582.767805413223 2382.3099218748857
1583.5300035473156 2516.7231340116887
1584.292016752228 2731.5362533680377
1585.0538450769309 2595.7909224349723
1585.8154885703807 2290.9357304238865
1586.5769472815136 2306.687088101375
1587.3382212592405 2478.489584918567
1588.099310552463 2642.687436944314
1588.8602152100484 2424.5438054253077
1589.6209352808564 2560.742555117325
1590.3814708137234 2500.0078007668344
1591.14182185746 2470.091577189977
1591.9019884608679 2434.8556043934923
1592.6619706727215 2141.4586657049335
1593.4217685417734 2520.3213610202233
1594.1813821167616 2689.3365046558433
1594.9408114464022 2324.229666110197
1595.7000565793933 2399.5728687080573
1596.459117564409 2545.020252493353
1597.2179944501113 2382.055029318402
1597.9766872851324 2325.423929414292
1598.735196118092 2577.851710482734
1599.4935209975883 2487.742603071948
1600.2516619721973 2654.131333166754
1601.0096190904787 2355.907433817563
1601.7673924009723 2345.3658870780405
1602.524981952196 2312.199913455767
1603.2823877926476 2354.720209149912
1604.0396099708087 2256.7432123534204
1604.7966485351371 2259.070453501915
1605.5535035340745 2435.2579791423614
1606.3101750160404 2668.2752214716647
1607.0666630294363 2212.7647422318705
1607.822967622642 2227.4369162227404
1608.5790888440224 2417.1178456164084
1609.3350267419137 2556.0897357659796
1610.0907813646445 2364.65019955038
1610.8463527605145 2443.883613570426
1611.601740977805 2444.078614474925
1612.356946064785 2345.102600785852
1613.1119680696902 2132.194521999041
1613.8668070407512 2284.978024835712
1614.6214630261748 2285.0937310523213
1615.375936074137 2562.1119966240462
1616.1302262328118 2426.8250517525926
1616.8843335503425 2422.201400472129
1617.638258074854 2266.50198871315
1618.391999854457 2493.9346255227783
1619.1455589372363 2499.948513332377
1619.8989353712623 2455.0491938345735
1620.65212920458 2188.6391554131
1621.4051404852235 2306.110831191766
1622.1579692611976 2351.4096443045596
1622.9106155804966 2199.838038245088
1623.663079491087 2248.3756552614363
1624.4153610409248 2418.5586063820547
1625.1674602779385 2251.619905407547
1625.9193772500403 2162.640718076639
1626.6711120051277 2612.496894061286
1627.4226645910676 2358.6277512305433
1628.174035055721 2119.680051691848
1628.9252234469168 2419.1760762841595
1629.676229812474 2208.8067649355503
1630.4270542001905 2657.1508356653844
1631.1776966578382 2404.668702489961
1631.9281572331747 2311.022979766994
1632.678435973945 2476.44127774174
1633.4285329278573 2447.6222605356916
1634.1784481426203 2133.5376226481408
1634.9281816659113 2385.2125744834366
1635.677733545388 2516.5489018449007
1636.4271038286934 2302.782224336389
1637.176292563452 2417.9109163394614
1637.9252997972635 2326.2412413080174
1638.674125577716 2425.4178240267875
1639.4227699523672 2249.3426744989492
1640.171232968767 2073.0425946250693
1640.9195146744423 2322.8470126476595
1641.6676151168977 2441.9429275423163
1642.4155343436178 2554.263471160666
1643.1632724020765 2278.4996604479365
1643.9108293397167 2315.3399276097807
1644.658205203974 2272.7326408414297
1645.4054000422566 2274.2979164263293
1646.1524139019566 2275.674948965366
1646.8992468304423 2161.3520729313377
1647.6458988750728 2258.1164442485206
1648.3923700831765 2336.3597648410732
1649.1386605020743 2198.5741181280987
1649.8847701790564 2503.885130581558
1650.6306991614038 2336.0153844314586
1651.3764474963682 2512.124686983125
1652.1220152311944 2143.55541982867
1652.867402413096 2349.247311685768
1653.6126090892776 2415.232602976761
1654.3576353069184 2584.898465207167
1655.1024811131829 2353.0968089379367
1655.8471465552066 2238.5382020259153
1656.5916316801213 2553.7091706081433
1657.3359365350298 2419.861270070609
1658.0800611670165 2319.399378214102
1658.824005623148 2379.664403301978
1659.5677699504722 2116.760682951958
1660.3113541960192 2435.088704145895
1661.054758406799 2287.461036275262
1661.7979826297997 2140.7893381342847
1662.5410269119966 2222.4030605157927
1663.283891300338 2478.178641800314
1664.0265758417645 2207.388119300722
1664.7690805831826 2401.3332384326354
1665.5114055714948 2489.492888220035
1666.2535508535748 2657.648664384324
1666.9955164762814 2077.030761042838
1667.7373024864555 2310.693325663261
1668.478908930916 2431.0008102332745
1669.220335856462 2258.008815617189
1669.9615833098778 2252.379880086324
1670.7026513379296 2165.6265670245016
1671.44353998736 2341.3381124504676
1672.1842493048916 2311.600364092748
1672.9247793372379 2177.943798110538
1673.6651301310812 2437.2220352061286
1674.4053017330934 2315.2852530613873
1675.1452941899242 2347.613198758855
1675.885107548207 1822.1731799145878
1676.6247418545518 2036.7160761069376
1677.3641971555535 2155.586593880675
1678.1034734977893 2359.201420084185
1678.8425709278108 2216.1996525040136
1679.5814894921605 2394.727368023621
1680.320229237359 2389.9964228925023
1681.0587902098978 2421.8348047286786
1681.7971724562685 2182.8918543589743
1682.5353760229264 2075.450358915413
1683.2734009563173 2284.3655487927704
1684.0112473028657 2191.994877961367
1684.7489151089794 2345.7075072195667
1685.4864044210462 2343.6571626255713
1686.2237152854377 1963.6577870014803
1686.960847748498 2373.166476635133
1687.6978018565642 2020.3505557658718
1688.434577655944 2032.2524835906781
1689.1711751929379 1959.389246747503
1689.9075945138156 2226.9019538474186
1690.6438356648396 2141.7555486090214
1691.3798986922448 1737.1225666796822
1692.1157836422499 2030.4886363232083
1692.851490561059 2094.7284695150915
1693.587019494853 2107.1397648028033
1694.3223704897991 1877.964606797997
1695.0575435920364 1839.6126195062366
1695.792538847696 1905.1826319948414
1696.527356302886 1970.7638045788221
1697.2619960036936 1796.2733329768112
1697.9964579961907 1911.9600827388829
1698.730742326432 1672.9499936383502
1699.4648490404488 1774.1292752189609
1700.1987781842563 1936.248739770217
1700.9325298038548 2154.291822566364
1701.6661039452174 2237.703233530186
1702.3995006543082 2067.4054656051057
1703.1327199770658 2193.6109477925297
1703.865761959416 1866.000498011796
1704.598626647261 2257.9068612777487
1705.3313140864866 1880.0134326089592
1706.0638243229587 1956.7642876068712
1706.7961574025303 2124.3641629905737
1707.528313371029 2077.512403959088
1708.260292274268 1790.4887062743946
1708.9920941580403 1981.0638065233811
1709.7237190681226 2064.534670313872
1710.4551670502697 1994.7854738262206
1711.18643815022 1700.492325733431
1711.9175324136959 1818.5040933956475
1712.6484498863938 1936.6911482157932
1713.379190614005 1699.0695154806938
1714.109754642188 1783.4108305172242
1714.8401420165883 1821.2177287254121
1715.570352782839 1861.0687186139407
1716.3003869865497 1901.0655781888058
1717.0302446733076 1843.962360973615
1717.7599258886876 1897.8190806146151
1718.4894306782444 2213.652891627583
1719.2187590875183 1737.577532483489
1719.9479111620203 2125.510989607084
1720.6768869472544 1753.9988116696634
1721.4056864887025 2179.305838795227
1722.1343098318284 2274.119476723215
1722.8627570220742 1896.5633923716457
1723.591028104871 1808.8602054540374
1724.3191231256242 1729.2167272154861
1725.0470421297232 1956.1293344288315
1725.7747851625427 2027.4794315303945
1726.5023522694337 2012.1736868860312
1727.2297434957363 1955.2729158684901
1727.9569588867635 1754.2596613201501
1728.6839984878152 1634.857333392513
1729.4108623441734 2034.870296462889
1730.1375505011038 1933.8742961259718
1730.8640630038426 1731.3674643086538
1731.5903998976264 1763.2035992190602
1732.316561227657 1945.9805410049419
1733.0425470391274 1613.212975971594
1733.7683573772065 1880.730621467419
1734.4939922870508 1825.2615040879584
1735.2194518137949 1862.4022066319098
1735.9447360025606 1925.4168354053058
1736.669844898439 1905.337171700948
1737.3947785465189 1722.5443546506463
1738.1195369918605 1646.9405874535491
1738.8441202795093 1880.6230480705613
1739.5685284544943 1901.881259326775
1740.292761561821 1942.185007873563
1741.0168196464838 1945.6859164715174
1741.7407027534518 1939.1884771435125
1742.464410927687 1974.8670278650152
1743.187944214118 1815.7589375785676
1743.9113026576688 1847.7189934999744
1744.634486303241 1739.2323528303837
1745.3574951957125 1937.5311278628353
1746.0803293799509 1928.4802986431089
1746.8029889008048 1871.750350191122
1747.5254738031017 1992.3528770541132
1748.2477841316504 1623.0391913690014
1748.969919931249 1837.9444248569375
1749.6918812466665 1890.0644591381467
1750.4136681226646 1936.8774115598237
1751.1352806039777 1811.744346857738
1751.856718735331 1532.0041902162848
1752.5779825614281 1556.2007281131444
1753.2990721269507 1903.9911528665816
1754.0199874765676 1864.1211089935048
1754.7407286549314 1638.6382254909386
1755.4612957066693 1787.8502600027343
1756.1816886763954 1593.5815485462958
1756.9019076087097 1918.5676234244038
1757.6219525481865 1849.6075353226995
1758.3418235393856 1950.1866611552261
1759.061520626854 1820.4594005571696
1759.7810438551096 2036.7976869428887
1760.5003932686614 1655.1795964298938
1761.2195689119999 2006.4838538533345
1761.938570829594 1830.925854904936
1762.657399065898 1851.556891540061
1763.376053665348 1638.2488762574535
1764.0945346723602 1564.7139593841143
1764.812842131334 1581.266008338552
1765.5309760866512 1597.9528150973254
1766.2489365826787 1717.605803357641
1766.9667236637597 1809.9552022786424
1767.684337374223 1503.0244705054024
1768.401777758383 1683.2200851872567
1769.1190448605284 1670.7901274150458
1769.836138724937 1578.3777580467302
1770.5530593958665 1818.0820281842202
1771.2698069175603 2038.482710719827
1771.9863813342326 1878.6149291123115
1772.702782690094 1725.46710296202
1773.4190110293293 1936.6804571420976
1774.1350663961111 1823.6629692622137
1774.8509488345844 1697.5192970191226
1775.5666583888924 1768.2728818812793
1776.2821951031437 2065.171549616522
1776.9975590214362 1699.5670327630378
1777.7127501878585 1989.6088275373954
1778.4277686464684 1980.65807603017
1779.1426144413108 1909.302553416447
1779.8572876164162 2026.4358468411351
1780.571788215797 1610.8415877225996
1781.2861162834415 1731.3316195771688
1782.0002718633277 1766.8391588179293
1782.7142549994132 1832.201033494568
1783.4280657356376 1910.5193234004691
1784.141704115922 1700.0762266242941
1784.855170184177 1824.1957557727812
1785.5684639842839 1863.5566951662306
1786.2815855601148 1405.6500143794124
1786.9945349555237 2087.1144723243424
1787.707312214343 1577.7471974775867
1788.4199173803918 2152.785949270782
1789.132350497468 1594.255717206165
1789.8446116093583 1727.3748381862
1790.556700759822 1710.527912223561
1791.2686179926077 1735.212133597221
1791.9803633514493 1759.9822538518115
1792.6919368800554 1566.2268123616882
1793.4033386221236 1786.7507875873878
1794.1145686213295 1893.288720627662
1794.8256269213307 2015.5654786737948
1795.536513565774 1820.295387443055
1796.247228598284 1462.2728351950104
1796.9577720624693 1660.767803108593
1797.6681440019165 1790.6371183811978
1798.3783444602013 1813.8033832703354
1799.0883734808776 1795.7797963506055
1799.7982311074884 1899.5627414676662
1800.5079173835475 1719.7436817506918
1801.2174323525633 1893.5599712072085
1801.9267760580187 1687.6378936684112
1802.635948543386 1782.15983067665
1803.3449498521113 1564.1635606564466
1804.0537800276325 1838.1915303441124
1804.7624391133668 1681.1849551107139
1805.47092715271 1532.285659804117
1806.1792441890484 1508.4137644504876
1806.8873902657433 1850.3960203610181
1807.5953654261448 1742.1174092552083
1808.3031697135812 1632.0481871380357
1809.0108031713662 1546.7566602210777
1809.71826584279 1659.3112512048942
1810.425557771141 1648.748845055313
1811.1326789996747 1652.6615670608728
1811.839629571632 1656.4882957006103
1812.5464095302468 1636.4652836383843
1813.2530189187182 1770.6861075038373
1813.959457780249 1820.68050984116
1814.6657261580076 1853.1605891577994
1815.371824095153 1751.1968754601417
1816.0777516348262 1537.6226948023123
1816.78350882015 1744.4313880732975
1817.4890956942272 1560.4545872647698
1818.1945123001533 1521.1230177474981
1818.8997586809928 1661.8160852973137
1819.6048348798067 1623.3694303907228
1820.3097409396287 1742.4533387498147
1821.0144769034796 2058.7038328417993
1821.7190428143622 1834.7557222354312
1822.423438715261 1798.5486662973212
1823.1276646491478 1663.1224725801271
1823.8317206589727 1745.0857065896835
1824.5356067876692 1794.2594981102386
1825.2393230781581 1774.500715797889
1825.942869573335 1527.7535949423009
1826.646246316086 1539.0119250668347
1827.3494533492758 1831.1614191799868
1828.052490715756 1784.4976364877916
1828.7553584583547 1704.198737704884
1829.458056619891 1844.406722905118
1830.1605852431585 1637.069746818801
1830.8629443709433 1591.360677731611
1831.5651340460063 1626.5790366633028
1832.2671543110919 1563.2926211010852
1832.9690052089318 1807.041690338392
1833.6706867822395 1467.2026923031215
1834.3721990737104 1740.1887726194625
1835.0735421260233 1849.8475905559892
1835.774715981841 1653.7382507397137
1836.4757206838058 1667.6482290156232
1837.1765562745459 1682.0425912466112
1837.8772227966747 1560.1364036860343
1838.5777202927839 1607.7010495384377
1839.2780488054523 1549.9982147130331
1839.9782083772352 1492.2424854520984
1840.6781990506806 1571.9533988447702
1841.378020868313 1651.880058370428
1842.0776738726418 1739.093340786721
1842.777158106157 1496.1510576388057
1843.4764736113375 1510.3446534043542
1844.1756204306403 1776.6129447352898
1844.8745986065078 1715.094318826
1845.5734081813607 1458.8307148798863
1846.2720491976124 1607.2908837279747
1846.970521697649 1568.2847157052088
1847.6688257238511 1762.4859549924863
1848.3669613185684 1631.3964992902488
1849.0649285241452 1402.9813505539407
1849.7627273829057 1682.979737675981
1850.460357937156 1680.9507576690066
1851.1578202291857 1454.3897774879636
1851.8551143012664 1681.226315313048
1852.5522401956569 1623.3380728349844
1853.2491979545957 1611.4274967317972
1853.9459876203055 1599.821396265716
1854.6426092349902 1540.2216173373397
1855.3390628408451 1515.2540753497474
1856.0353484800362 1917.4590174684884
1856.7314661947203 1741.0305356516358
1857.4274160270397 1498.7195457439798
1858.123198019115 1722.1455148057698
1858.8188122130487 1480.325693326624
1859.5142586509319 1684.1583982107124
1860.209537374838 1635.1974992448952
1860.9046484268183 1591.3466711011397
1861.599591848917 1847.7727389413674
1862.294367683151 1592.8679000908182
1862.988975971528 1539.2552693586456
1863.6834167560355 1750.0281289700474
1864.3776900786452 1891.4373571287165
1865.0717959813119 1542.5387243620282
1865.7657345059724 1566.319154410418
1866.4595056945564 1680.0420547325143
1867.1531095889586 1808.840597424462
1867.846546231076 1515.8104481081307
1868.5398156627743 1893.196063442802
1869.2329179259123 1524.5306261035278
1869.9258530623283 1938.5143343116247
1870.618621113843 1519.2350281683414
1871.3112221222636 1465.1783804276363
1872.0036561293764 1546.246575529636
1872.695923176956 1609.824649396579
1873.3880233067594 1499.7584220232957
1874.0799565605212 1389.5329252057788
1874.7717229799673 1576.4835224216536
1875.4633226068036 1904.8194188655093
1876.1547554827175 1729.8872557928185
1876.8460216493859 1721.5825261775929
1877.5371211484617 1558.5985732105225
1878.2280540215852 1500.595076058651
1878.9188203103804 1442.4754327131782
1879.6094200564548 1614.5859610029033
1880.299853301396 1565.2932258139308
1880.9901200867826 1798.0552895296328
1881.6802204541673 1762.9934736439184
1882.3701544450942 1834.4806505058855
1883.059922101087 1870.0297935674103
1883.7495234636517 1905.5978256393014
1884.4389585742792 1528.462151540959
1885.1282274744517 1500.083431161312
1885.8173302056166 1582.2208771895325
1886.506266809225 1664.470411905546
1887.195037326701 1395.965219862436
1887.8836417994517 1580.992537247461
1888.5720802688702 1905.7998691527512
1889.260352776333 1886.6415570609715
1889.9484593632042 1888.0946144303045
1890.63640007082 1461.221388691157
1891.3241749405151 1480.345061301133
1892.0117840135954 1676.3564020285316
1892.6992273313572 1620.257858355818
1893.3865049350788 1808.6186256977319
1894.0736168660223 1545.9714737921242
1894.7605631654333 1675.4950923999509
1895.4473438745408 1797.9238061026008
1896.133959034556 1525.4346455319478
1896.820408686679 1662.649483136259
1897.506692872088 1883.0437226083511
1898.192811631945 1574.2473828922216
1898.8787650073991 1644.7741947493982
1899.5645530395832 1858.3542742784189
1900.2501757696118 1794.4351067589068
1900.9356332385796 1881.8207339493874
1901.620925487574 1969.4907115506037
1902.3060525576602 1695.4276004028118
1902.9910144898859 1731.5906343354739
1903.6758113252872 1421.5284363923286
1904.3604431048789 1793.4952122670297
1905.0449098696663 1726.2219313869816
1905.7292116606295 1557.5595990504535
1906.4133485187394 1611.3343233831224
1907.0973204849488 1300.4394597770083
1907.7811276001976 1312.812089160319
1908.4647699053967 1616.4882040503994
1909.1482474414588 1549.780387859722
1909.8315602492694 1482.8674299612335
1910.5147083696957 1836.9759244637735
1911.1976918436012 1476.240521461625
1911.880510711815 1456.24003058903
1912.5631650151681 1488.1779342494942
1913.2456547944657 1520.121845591288
1913.927980090495 1469.5525534395904
1914.6101409440362 1537.0392957974739
1915.2921373958416 1721.001160857916
1915.9739694866603 1603.9688113447396
1916.655637257214 1804.028106130644
1917.3371407482136 1673.9622751225002
1918.0184800003572 1841.9534809763165
1918.6996550543154 1724.6396546662181
1919.3806659507554 1610.7965729400264
1920.0615127303208 1735.2637457933592
1920.7421954336423 1765.0642822376954
1921.4227141013343 1858.0187481722394
1922.103068773993 1625.6380764916853
1922.783259492202 1832.0969884511123
1923.4632862965227 1524.1391682392891
1924.1431492275078 1473.8679943033087
1924.8228483256917 1499.0980235690745
1925.5023836315922 1581.32881542019
1926.1817551857057 1794.4181508810766
1926.8609630285227 1465.189502574594
1927.5400072005123 1684.2736387560376
1928.218887742125 1536.0755412802985
1928.8976046938005 1494.4768154859235
1929.5761580959588 1710.7476785037893
1930.2545479890086 1628.157578672898
1930.9327744133352 1325.5560206811053
1931.6108374093164 1660.195263392327
1932.2887370173066 1431.374120211995
1932.9664732776473 1887.1358072541366
1933.6440462306673 1711.290817425202
1934.3214559166754 1543.0226803749097
1934.9987023759659 1983.684428684041
1935.675785648813 1777.373253214455
1936.3527057754836 1282.3908018486386
1937.029462796223 1376.2825465432302
1937.70605675126 1470.4067881211845
1938.3824876808085 1522.4445881592699
1939.058755625072 1529.8739136209608
1939.7348606242267 1556.4122262645267
1940.4108027184448 1694.6974174222694
1941.0865819478713 1748.25239875318
1941.7621983526478 1546.4871905930493
1942.4376519728921 1458.2188201939905
1943.1129428487038 1613.2720980670533
1943.7880710201734 1730.2378222978884
1944.4630365273733 1624.4721032343793
1945.1378394103576 1412.6150125726506
1945.8124797091714 1388.523641124174
1946.4869574638324 1364.3358789905365
1947.161272714353 1503.587356321013
1947.8354255007234 1730.9354512960358
1948.5094158629272 1482.1738953599906
1949.1832438409183 1652.7979302067517
1949.8569094746435 1789.8346454630941
1950.530412804037 1899.007238549044
1951.2037538690092 1787.212538009248
1951.8769327094578 1590.732722745994
1952.5499493652678 1565.8558170994634
1953.222803876306 1816.0772021883895
1953.895496282421 1794.1138075842912
1954.5680266234522 1776.8926914377128
1955.2403949392155 1650.420836009612
1955.9126012695142 1457.4200411584466
1956.5846456541403 1495.424720502241
1957.2565281328643 1697.5371287204343
1957.9282487454457 1753.4071591885672
1958.5998075316202 1849.5182011145705
1959.27120453112 1497.6758645075843
1959.9424397836501 1516.4950061188579
1960.613513328908 1804.8959760153434
1961.2844252065697 1603.2973607758236
1961.9551754563017 1401.3348802211267
1962.6257641177453 1484.880671940216
1963.29619123054 1276.5064813072581
1963.966456834296 1450.4410302458514
1964.6365609686181 1456.225367759242
1965.306503673086 1679.6082490907672
1965.976284987275 1429.2450278937279
1966.645904950734 1545.3115332878037
1967.315363603002 1336.9452781972755
1967.9846609836077 1522.030776093804
1968.6537971320486 1482.1334699879947
1969.3227720878222 1612.9670479750214
1969.9915858904042 1584.8309871891483
1970.660238579252 1665.3944114863928
1971.3287301938108 1521.7403492316669
1971.997060773514 1322.7237516548018
1972.665230357772 1369.0555142151366
1973.3332389859843 1533.448773053572
1974.0010866975335 1369.1947852066264
1974.6687735317864 1595.556212953467
1975.3362995280932 1668.4257108072318
1976.003664725793 1658.8746206877354
1976.6708691642052 1391.648952991274
1977.3379128826364 1596.5781349149277
1978.004795920373 1786.7318280588984
1978.6715183166925 1520.7640889531249
1979.3380801108524 1813.6925490749443
1980.0044813420973 1571.4127889985268
1980.6707220496555 1602.3847972006538
1981.3368022727373 1633.522285141758
1982.0027220505417 1713.8239036462583
1982.66848142225 1555.2787697107763
1983.3340804270283 1396.5388613679654
1983.999519104027 1673.6087912514704
1984.6647974923835 1577.9681604318976
1985.329915631215 1755.3345683692103
1985.99487355963 1644.432836129712
1986.6596713167146 1833.1514303930567
1987.3243089415428 1500.36261879501
1987.9887864731754 1855.51703324978
1988.6531039506553 1383.8678288001206
1989.3172614130071 1395.6541902770023
1989.9812588992481 1407.482867871899
1990.645096448372 1204.3816648034317
1991.3087740993633 1516.3311022035984
1991.9722918911848 1501.511709698482
1992.635649862792 1663.19540800624
1993.2988480531185 1724.6922499915459
1993.9618865010852 1615.10048081019
1994.6247652455968 1505.358589931271
1995.287484325545 1465.2337000649084
1995.9500437798033 1545.419550448824
1996.6124436472292 1459.440734013734
1997.2746839666706 1470.9061599629633
1997.936764776954 1482.4127559652145
1998.598686116895 1430.9146404470837
1999.2604480252903 1944.497865706855
1999.9220505409212 1669.4257736434697
2000.5834937025593 1292.889871780288
2001.2447775489582 1494.8999984817383
2001.9059021188514 1654.9516847900209
2002.5668674509616 1393.4546051657205
2003.2276735839987 1545.1766230327733
2003.8883205566508 1510.650405795293
2004.5488084075987 1476.0268319354998
2005.2091371755014 1489.4469036020087
2005.8693068990033 1333.2559296716092
2006.5293176167397 1370.057279813816
2007.1891693673224 1407.0450139864563
2007.848862189354 1400.1352842531962
2008.5083961214223 1625.9850482080847
2009.1677712020955 1336.7043196085465
2009.8269874699254 1340.4133954602737
2010.4860449634598 1383.825104194942
2011.1449437212177 1427.4321852816288
2011.8036837817108 1762.865983841247
2012.4622651834325 1679.5844865280371
2013.1206879648653 1600.319953485106
2013.7789521644736 1409.0378958321812
2014.4370578207036 1681.964984273544
2015.0950049719922 1526.5467844942632
2015.7527936567585 1727.1154438097942
2016.4104239134067 1471.9154549213426
2017.067895780323 2043.1015458915117
2017.725209295886 1964.9343186311817
2018.3823644984514 1886.5015791688177
2019.0393614263648 1561.9267536643924
2019.6962001179545 1511.9217636031285
2020.3528806115355 1751.466894859845
2021.0094029454067 1572.5435973040176
2021.6657671578487 1379.274372477132
2022.321973287133 1525.6006181328478
2022.9780213715148 1569.5981387441855
2023.6339114492293 1536.5846237797446
2024.2896435585026 1426.2076107414064
2024.9452177375442 1501.713928029985
2025.600634024544 1729.5215875580457
2026.2558924576842 1610.4611231742138
2026.9109930751292 1747.3544338494362
2027.565935915025 1510.9185243737682
2028.2207210155066 1985.6261478283068
2028.8753484146964 2003.1178630688805
2029.529818150695 1912.2358885153117
2030.1841302615903 1820.9357078241242
2030.8382847854573 1453.3801757366546
2031.4922817603601 1647.9449976014464
2032.1461212243357 1647.8772053357775
2032.7998032154192 1587.8370655400981
2033.4533277716218 1527.4671454254271
2034.1066949309443 1382.755429060349
2034.7599047313688 1289.3478493607022
2035.4129572108704 1605.0967044619142
2036.0658524074006 1469.7422855982359
2036.7185903589016 1658.2362860465364
2037.3711711032956 1666.200475127473
2038.023594678496 1685.3464310852912
2038.675861122394 1495.8251210080318
2039.3279704728757 1418.3559217141815
2039.9799227678031 1340.8405827605397
2040.6317180450278 1450.098863465844
2041.2833563423865 1471.951482606365
2041.9348376977014 1572.7910754063446
2042.5861621487784 1673.8188927329327
2043.2373297334088 1831.8152540733154
2043.8883404893695 1711.0631415396201
2044.5391944544208 1640.1548039981662
2045.1898916663158 1699.7381813481359
2045.8404321627804 1566.2736624648621
2046.4908159815368 1432.4686389095289
2047.1410431602853 1509.5346448538412
2047.7911137367173 1453.207647305277
2048.441027748504 1392.2597892461054
2049.090785233302 1331.2010186083094
2049.7403862287592 1300.3676563711047
2050.389830772503 1306.5754851850202
2051.0391189021466 1312.8260118420562
2051.688250655294 1653.0053299381427
2052.337226069527 1345.8090893328485
2052.986045182417 1726.0315605724966
2053.634708031521 1220.4694765989063
2054.283214654375 1815.5884449957364
2054.931565088511 1350.04821784021
2055.579759371436 1336.5455961598734
2056.2277975406523 1656.3733452618021
2056.8756796336384 1777.4840943408278
2057.5234056878617 1323.5999623923935
2058.1709757407752 1414.799848419558
2058.8183898298194 1748.261569575089
2059.465647992416 1616.0892586744744
2060.1127502659747 1634.4420710833226
2060.759696687888 1624.4130195375465
2061.4064872955405 1614.3972916630605
2062.053122126292 1327.3095989418753
2062.699601217497 1650.1323465673236
2063.345924606485 1436.2592359765645
2063.992092330587 1676.1016691221073
2064.638104427102 1499.7038122332547
2065.283960933324 1730.7768307342121
2065.92966188653 1717.8734240764966
2066.5752073239855 1572.0315130425595
2067.2205972829397 1426.0742159897472
2067.86583180062 1584.7829681661428
2068.5109109142522 1462.6231758725266
2069.15583466104 1398.988733198508
2069.8006030781708 1335.2964949019038
2070.445216202821 1414.5282353520417
2071.089674072153 1800.4459396822283
2071.7339767233116 1787.5786148253846
2072.3781241934303 1686.8631952074225
2073.0221165196253 1647.7270989396293
2073.6659537390024 1395.0439439596673
2074.3096358886505 1630.0736076871653
2074.953163005637 1492.697880762105
2075.596535127028 1297.9887511018517
2076.2397522898664 1286.2270388301483
2076.882814531182 1535.6426588872114
2077.5257218879924 1634.0645841715557
2078.1684743973 1148.7638267437653
2078.8110720960885 1331.966582316583
2079.453515021336 1403.9659504997207
2080.095803209997 1476.0103479503973
2080.7379366990135 1528.5406068212592
2081.37991552532 1770.8834145169214
2082.0217397258275 1649.7769729104111
2082.6634093374414 1340.8826173432622
2083.3049243970418 1573.1953155491021
2083.9462849415067 1656.0229209964523
2084.587491007689 1609.8867722929508
2085.2285426324324 1458.7457591428483
2085.869439852564 1550.0946323759956
2086.510182704902 1436.9495616539157
2087.1507712262483 1680.1207959299536
2087.791205453381 1696.03809461006
2088.4314854230743 1711.9438830538743
2089.0716111720867 1511.437085291247
2089.7115827371617 1283.9023230547746
2090.351400155023 1355.914462292412
2090.991063462385 1428.1235401409554
2091.6305726959527 1154.6771201325512
2092.2699278924047 1320.2289370338108
2092.9091290884153 1486.1773131696577
2093.548176320641 1335.919310788501
2094.187069625721 1630.9380606839982
2094.8258090402887 1390.367940288003
2095.464394600951 1541.9268412464066
2096.102826344313 1535.413845477175
2096.741104306955 1424.347659907202
2097.379228525453 1313.0372285570863
2098.017199036358 1216.7803106244944
2098.6550158762147 1502.1698103041
2099.2926790815527 1788.1706786130603
2099.9301886888825 1555.0435282063052
2100.5675447347076 1568.5247695362004
2101.2047472555114 1856.6412646029444
2101.841796287761 1583.7063536005985
2102.47869186792 1545.0673012123455
2103.1154340324265 1521.7997394923232
2103.752022817709 1505.6258713960592
2104.388458260184 1463.2449823437325
2105.024740396251 1444.614849944458
2105.660869262292 1452.2029003857738
2106.296844894685 1441.3242049437426
2106.93266732978 1430.4552725686904
2107.5683366039284 1255.0163190289861
2108.2038527534532 1619.664663312882
2108.8392158146726 1741.6648497259782
2109.4744258238843 1436.302619136321
2110.1094828173755 1637.8264285308408
2110.744386831422 1658.01683859076
2111.3791379022787 1678.2869526233615
2112.01373606619 1843.5490409760328
2112.648181359389 1744.407898612501
2113.28247381809 1735.7856300819262
2113.916613478492 1653.1199770488288
2114.550600376786 1652.7079130579725
2115.1844345491445 1500.290356905724
2115.818116031729 1400.9691598045345
2116.451644860679 1535.1880665447168
2117.085021072133 1279.4815742289245
2117.718244702204 1342.9239924913427
2118.3513157869984 1284.8900207394513
2118.984234362604 1226.6947519817616
2119.617000465092 1484.600202643554
2120.249614130529 1499.8495209331863
2120.8820753949585 1515.125507113988
2121.5143842944162 1302.9926962898153
2122.14654086492 1354.4785264403924
2122.7785451424734 1230.4984486991266
2123.4103971630702 1626.6881673481914
2124.042096962681 1482.1210995982028
2124.6736445772767 1761.510989086709
2125.305040042802 1508.3085503235638
2125.936283395191 1591.9676699992758
2126.567374670365 1737.6721700686917
2127.198313904233 1895.3634039459423
2127.8291011326855 1559.2934045626575
2128.4597363916037 1722.3167092182618
2129.0902197168507 1523.6557641634768
2129.720551144279 1750.6791293514375
2130.3507307097225 1977.909164795739
2130.980758449008 1838.3887523931317
2131.6106343979427 1778.384344351593
2132.2403585923203 1718.2203105671276
2132.8699310679276 1868.8361851754394
2133.499351860526 1709.9243394336074
2134.1286210058715 1697.014218716989
2134.7577385397053 1749.7531332790702
2135.3867044977487 1802.6297310947998
2136.0155189157176 1897.5970590609872
2136.644181829308 1915.179879464491
2137.2726932742025 1629.6577680315968
2137.901053286074 1503.6764538426455
2138.5292619005777 1377.5514503861054
2139.1573191533535 1499.3611960074306
2139.7852250800315 1696.8650209797768
2140.4129797162295 1744.9948616812792
2141.0405830975433 1314.5459319536346
2141.6680352595613 1318.318437131055
2142.2953362378576 1322.1131708720745
2142.9224860679915 1514.1698570885046
2143.549484785508 1351.2523846754393
2144.1763324259373 1495.6066793434888
2144.803029024799 1376.6520346800446
2145.429574617594 1360.1314189592351
2146.0559692398165 1670.9482476577846
2146.682212926942 1453.727701507809
2147.308305714432 1625.015683439135
2147.9342476377333 1815.503277720461
2148.5600387322847 1898.0061993672298
2149.185679033506 1663.5930066266683
2149.8111685768017 1425.1611793196612
2150.4365073975678 1356.1087496556115
2151.061695531187 1331.758737074956
2151.686733013021 1404.5781467156553
2152.311619878423 1477.6351753560996
2152.9363561627342 1570.0648773677563
2153.560941901278 1394.8133659042255
2154.1853771293663 1671.848397082054
2154.809661882293 1605.1551803083184
2155.433796195348 2063.4897640712966
2156.0577801037944 1914.8870281400136
2156.681613642895 1765.9448751669072
2157.3052968478896 1387.1867211169103
2157.928829754006 1723.5173140750423
2158.552212396462 1765.3967152686503
2159.1754448104566 1740.4730408310947
2159.7985270311783 1343.3096698580543
2160.4214590938027 1032.1801448772471
2161.0442410334927 1092.3349245779436
2161.6668728853874 1189.4837664999432
2162.289354684628 1286.856658818671
2162.911686466332 1445.880492378855
2163.533868265602 1618.1165394468321
2164.1559001175337 1603.3077395619748
2164.7777820572046 1588.4055723028239
2165.399514119681 1674.0350676376456
2166.021096340013 1306.3605927107574
2166.6425287532384 1646.7595861402338
2167.263811394385 1214.8199817332472
2167.8849442984574 1240.0554708454813
2168.505927500455 1265.4687157494604
2169.126761035366 1772.1217318180975
2169.7474449381552 1376.9964419271223
2170.367979243778 1215.2241865221881
2170.9883639871823 1767.3308545060395
2171.608599203293 1410.1782836974412
2172.2286849270276 2145.414535404315
2172.8486211932886 2098.2653972038784
2173.4684080369625 1502.7772685688356
2174.0880454929265 1276.4346671746544
2174.7075335960417 1297.8376747163738
2175.3268723811543 1309.375849569681
2175.9460618831 1320.9621327942834
2176.565102136701 1526.8604832070728
2177.1839931767627 1512.268247163262
2177.802735038078 1497.6591665753733
2178.421327755432 1322.5950932603866
2179.0397713635866 1422.9684821757905
2179.658065897298 1378.0701248082034
2180.276211391305 1598.9171604888859
2180.8942078803357 1488.41790435745
2181.5120553991 1515.5579650754798
2182.129753982299 1235.6574057832177
2182.7473036646206 1555.1891790199488
2183.3647044807367 1608.0411737405436
2183.9819564653044 1398.6993933584313
2184.599059652968 1725.0771170795365
2185.216014078367 1754.1848644390866
2185.832819776113 1788.7259633067308
2186.4494767808137 1823.2467067020382
2187.065985127063 1490.8910070112038
2187.682344849436 1428.6721383140552
2188.298555982501 1432.6562526640705
2188.9146185608097 1436.5562407555635
2189.530532618901 1592.5501640847276
2190.1462981912937 1706.661764699627
2190.761915312507 1690.4105737260415
2191.377384017036 1512.163628992626
2191.9927043393654 1566.7267537908888
2192.6078763139667 1766.751858746092
2193.2228999753006 1334.2474769650628
2193.837775357808 1546.8129944978807
2194.452502495922 1230.9183252667844
2195.0670814240602 1454.0815948028148
2195.6815121766285 1259.4685894167355
2196.2957947880186 1205.8331576076407
2196.9099292926057 1152.0936484279614
2197.523915724758 1652.5421502691527
2198.137754118825 1524.873594137522
2198.7514445091456 2047.5743524697668
2199.3649869300443 2074.758621880873
2199.9783814158327 2102.0935182976837
2200.5916280008096 2157.2275306461015
2201.2047267192593 1907.8480539666884
2201.8176776054515 1494.2325087323547
2202.430480693649 1200.3851613345732
2203.0431360180955 1710.7828760752795
2203.6556436130195 1809.0912651086026
2204.268003512645 1139.6235842947378
2204.8802157511727 1392.4895835166456
2205.492280362796 1500.7466835317944
2206.1041973816937 1609.3562161877987
2206.715966842032 1622.9366598988208
2207.3275887779655 1705.2738086821817
2207.93906322363 1600.6788289459887
2208.550390213153 1750.3678135556888
2209.1615697806465 1715.5046650270156
2209.7726019602105 1403.9079634800264
2210.3834867859277 1272.2277352326985
2210.9942242918787 1617.4636069883945
2211.6048145121167 1686.0152455116781
2212.2152574806914 2230.810506368659
2212.825553231638 2279.1288483862254
2213.435701798975 2327.6396705938546
2214.045703216707 1704.8561676373406
2214.655557518832 1098.4665616547504
2215.2652647393297 1197.2687916453433
2215.874824912169 1382.2953096758436
2216.4842380713 1567.8913700816342
2217.09350425067 1352.1759983550382
2217.7026234842033 1831.0601639134275
2218.311595805819 1937.4738075815665
2218.9204212494133 1542.8592003543938
2219.52909984888 1887.702422533915
2220.137631638092 1924.059330403104
2220.7460166509154 1960.3695298440257
2221.354254921198 1497.6786242499722
2221.9623464827764 1642.5941382807316
2222.5702913694713 1648.4261619698111
2223.178089615096 1947.5956432566327
2223.7857412534486 1484.5505359215235
2224.39324631831 1122.9124243542076
2225.000604843457 1415.173894595449
2225.607816862641 1726.6488723437474
2226.214882409611 1729.4776185159583
2226.8218015180973 1655.5937816692597
2227.4285742218217 1397.806663386673
2228.0352005544864 1539.0078067023117
2228.6416805497847 1505.1041669664726
2229.248014241399 1471.1273593561675
2229.8542016629945 1271.8844494839705
2230.460242848223 1594.5250480196
2231.0661378307304 1419.8692611193726
2231.671886644139 1245.0468471357078
2232.277489322065 1104.9017448464006
2232.8829458981127 1165.2130367689326
2233.48825640587 1531.095224052846
2234.0934208789095 1627.440151931633
2234.6984393507955 1723.9398013172588
2235.3033118550793 1701.8180369935478
2235.9080384252975 1288.7895517408149
2236.5126190949723 1269.342594013998
2237.1170538976166 1428.1440797026758
2237.721342866729 1386.9070745026333
2238.32548603579 1404.1400800175757
2238.9294834382763 1623.4949243976457
2239.533335107646 1635.0448521446194
2240.1370410773434 1535.112812476844
2240.740601380803 1433.5508089266973
2241.3440160514474 1609.519989622894
2241.9472851226783 1882.8453985684196
2242.550408627896 1540.0516472334134
2243.1533866004793 1492.0145019370505
2243.756219073799 1443.920414446677
2244.3589060812064 1449.6132717465875
2244.961447656049 1400.7014548710083
2245.5638438316564 1399.0316037825196
2246.166094641343 1364.1077139297654
2246.7682001184166 1329.1514156392604
2247.3701602961664 1509.834240006503
2247.971975207871 1604.8120290005525
2248.5736448867974 1860.3561679605587
2249.175169366197 1497.851226812494
2249.7765486793123 1640.5182607022102
2250.3777828593684 1632.906476290143
2250.9788719395783 1723.5320608704508
2251.579815953146 1484.6120913759266
2252.1806149332606 1425.871232402744
2252.781268913097 1464.0744689329708
2253.381777925817 1345.4322956307044
2253.9821420045737 1736.436933794494
2254.5823611825035 1623.8327809602824
2255.1824354927303 1608.4158993554584
2255.782364968365 1426.0119637474374
2256.38214964251 1243.4000041545055
2256.9817895482483 1368.8279794159077
2257.5812847186553 1320.3510046030747
2258.180635186791 1292.8762802079186
2258.779840985704 1391.7113295976974
2259.37890214843 1389.9157123661537
2259.97781870799 1846.0738988377157
2260.5765906973957 1859.7938253282057
2261.175218149645 1814.6765943710693
2261.773701097718 1565.54585135128
2262.3720395745895 1315.9422390540062
2262.970233613216 1350.30381072209
2263.568283246548 1499.739543075245
2264.1661885075137 1305.3862458266378
2264.763949429038 1433.6810483244606
2265.3615660440246 1487.7820493569934
2265.959038385374 1541.9650889207992
2266.5563664859637 1623.6156099420966
2267.153550378669 1218.8485233057568
2267.7505900963424 1289.8810994007326
2268.3474856718312 1361.1293610245216
2268.9442371379664 1385.333251989432
2269.5408445275643 1395.9195308306357
2270.1373078734377 1352.3255399805687
2270.7336272083758 1308.6422707723582
2271.32980256516 1414.1540131094746
2271.925833976562 1688.4646199082533
2272.5217214753357 1481.4934495212642
2273.117465094223 1274.0777259523995
2273.7130648659586 1326.0638968572948
2274.308520823257 1541.2720940413294
2274.903832998827 1741.4915832266627
2275.4990014253563 1662.9961634896795
2276.094026135528 1837.4357722728353
2276.6889071620117 1794.3197238218822
2277.2836445374614 1751.0451195635396
2277.878238294519 1566.7861482997355
2278.472688465812 1470.4328840562318
2279.066995083962 1373.8845904324212
2279.6611581815705 1426.067925433519
2280.255177791232 1374.3675269133528
2280.8490539455233 1869.4014987557432
2281.442786677013 1897.4267776109089
2282.0363760182554 1807.3717416938466
2282.6298220017943 1464.9388701365647
2283.223124660155 1963.883059771057
2283.816284025859 1457.1899021603435
2284.4093001314086 1392.453867651432
2285.002173009292 1327.5964015449129
2285.5949026919952 1756.7999951448746
2286.1874892119777 1551.8193990074753
2286.7799326016993 1526.857545624531
2287.3722328936 1195.2713511146242
2287.964390120109 1097.3341287238068
2288.556404313642 1682.5240454702555
2289.1482755066027 2003.8738714878327
2289.7400037313873 1608.0232588786018
2290.3315890203703 1383.5635205879923
2290.9230314059205 1415.4675615591693
2291.5143309203904 1447.467348945166
2292.1054875961236 1568.9976325025057
2292.6965014654506 2023.4604324686902
2293.287372560684 1462.6312468895537
2293.878100914131 1470.5163984186916
2294.468686558086 1478.4657388765872
2295.059129524827 1519.8619431581458
2295.649429846617 1522.3228081281827
2296.239587555716 1524.7456070378416
2296.8296026843636 1728.9467942314782
2297.419475264791 2112.3437749807304
2298.0092053292137 2007.93484735999
2298.598792909839 1903.2161516392334
2299.1882380388597 1779.789661109478
2299.777540748455 1627.2185138275765
2300.3667010707904 1884.804192047257
2300.9557190380256 1906.764229995977
2301.544594682302 2129.3214402927533
2302.1333280357503 2038.1021941401407
2302.721919130485 1946.8210435752803
2303.3103679986198 2153.81820347775
2303.898674672242 1912.3694439024741
2304.486839183437 1757.7388378633973
2305.0748615642697 1603.0441091519456
2305.6627418468015 1557.9207632902442
2306.2504800630704 1540.2679609638362
2306.8380762451143 1614.8021075319398
2307.425530424949 1729.1843191684861
2308.012842634582 1843.8155968020997
2308.6000129060103 2133.13890966369
2309.187041271214 2234.6728584356797
2309.773927762164 2093.3193264502183
2310.3606724108213 1951.6883103836542
2310.9472752491274 1365.4822854430863
2311.5337363090184 1910.7618527624104
2312.120055622414 1473.4749874997535
2312.706233221221 1563.6845480497157
2313.2922691373424 1237.9193833670665
2313.8781634026564 1414.154944464018
2314.463916049037 1590.7994067664797
2315.049527108342 1586.130229925307
2315.6349966124235 2068.7601532127137
2316.2203245931123 1995.341743458292
2316.8055110822315 1746.7802859317678
2317.3905561115935 1497.6233163065037
2317.9754597129977 1414.9421416617229
2318.560221918229 1349.4726126115456
2319.1448427590603 1283.883870513561
2319.729322267256 1306.9816269756775
2320.313660474563 1619.334878848198
2320.8978574127195 2371.8241485294384
2321.481913113452 2000.1536713255678
2322.0658276084705 1472.3845287879433
2322.6496009294806 1815.3040915205195
2323.233233108165 1864.735813281783
2323.8167241762058 1621.0622022810112
2324.4000741652617 1591.4005526317385
2324.983283106987 1988.257838909197
2325.5663510330232 2094.9383503161703
2326.1492779749933 1615.6498528265058
2326.7320639645204 1701.4796909820627
2327.3147090332004 1316.6124422782782
2327.897213212629 1455.1472885476012
2328.4795765343843 1593.7621517789266
2329.0617990300307 1304.0267349026785
2329.643880731124 1976.2829471980026
2330.22582166921 1515.5932869524627
2330.807621875816 1349.055932991972
2331.3892813824623 1182.368052722934
2331.9708002206517 1163.0882157241829
2332.5521784218818 1449.5498948428121
2333.133416017634 1736.65398348801
2333.7145130393765 1522.3507229462887
2334.295469518571 2007.845278143565
2334.876285486658 1873.5917683088967
2335.456960975076 1829.565883884914
2336.037496015242 1785.4732791375475
2336.6178906385667 1624.943776949323
2337.198144876451 1798.1757355628474
2337.778258760278 1772.8434630766776
2338.3582323214214 1742.293666818121
2338.938065591243 1711.6291198132803
2339.517758601087 1975.1774438513366
2340.0973113822965 1820.5076406227695
2340.676723966193 1617.1460437495268
2341.255996384094 1694.7761466357927
2341.835128667295 1753.5394056154066
2342.4141208470883 1907.5795106173841
2342.992972954751 1479.9977537396862
2343.5716850215467 1755.4239154281167
2344.1502570787306 1024.7981767726776
2344.7286891575386 1241.1496876084097
2345.3069812892045 1814.2146511726412
2345.885133504944 1742.5808298564982
2346.4631458359618 1591.4864688863722
2347.04101831345 1440.0848649722261
2347.6187509685915 1395.653248987131
2348.196343832553 1434.8762439046518
2348.7737969364935 1692.3447855706502
2349.351110311558 1426.1701515074124
2349.9282839888765 1341.4668413892502
2350.5053179995757 1113.288616629609
2351.0822123747585 1140.3852591895325
2351.658967145526 1153.5722914414696
2352.2355823429643 1166.8489314476215
2352.812057998144 1776.8870384406837
2353.3883941421263 1458.9176092606979
2353.9645908059647 1539.5417329155298
2354.540648020693 1460.2070039130965
2355.116565817336 1790.4558012464245
2355.6923442269126 1415.7799532186696
2356.2679832804224 1669.8894314011818
2356.8434830088518 1691.12897059241
2357.41884344318 1556.598548991976
2357.994064614377 1719.3525583968917
