#exp_cfg={"servo_angle": 0.0, "laser_lim": 100.0, "servo_angle_to": 18.0, "laser_wup": 0.0, "bt_dev": "EnSpectr-25AE3", "laser_wdn_max": 0.0, "frames": 10.0, "servo_used": 0, "servo_calib_use": 0, "laser_wdn_min": 0.0, "servo_pix_from": 90.0, "cooler_tout": 300.0, "servo_angle_from": 0.0, "servo_calib": "[-1.9174921013161362e-09, 3.9322238269163779e-05, -0.27385609119055809, 653.59552119713567]", "laser_autoctl": 0, "servo_pix_to": 3682.0, "laser_pw": 100.0, "cooler_on": 0, "laser_volt": 4.0, "cooler_autoctl": 0, "cooler_curr": 70.0, "cooler_startup": 10.0, "laser_fixed_pw": 0, "gain": 1.3, "offset": 2.53059635486, "servo_calib_degree": 3.0, "laser_curr": 55.0, "shutter": 8200.0, "servo_calib_step": 1.0, "laser_fixed_curr": 0, "exp": 2000.0, "ccd_volt": 4.7, "bt_addr": "00:06:66:62:5A:E3", "servo_delay": 500.0, "laser_autooff": 1}
#proc_cfg={"flat_auto_wnd": 200.0, "flat_auto_fr": 200.0, "flat_auto_shift": 5.0, "yconv": 1, "flatten": 1, "flatten_strength": 100.0, "xfrom": 300.0, "auto_max_frame": 2000.0, "auto_signal": 48000.0, "flat_auto_tol": 0.1, "autoclip": 1, "xrel_range": 0.0, "flat_auto_to": 4000.0, "intensity_adj": 1.0, "xrel": 7852.0, "rmhot": 1, "flat_auto_slit": 4.999999999999997, "auto_ini_exp": 300.0, "auto_off": 0, "xto": 2860.0, "flat_auto_ref": "", "flat_auto_rank": 1, "autobackg": 0, "xrel_adj": 0.0, "auto_black_lvl": 1, "base_wnd": 100.0, "sub_baseline": 0, "xconv": 2, "auto_max_exp": 1000.0, "auto_total_exp": 10000.0, "auto_exp": 0, "rmripple": 0, "black_lvl": 8284.303125, "shutter_clip_adj": 0.0, "auto_bckg": 0, "flat_auto_thr": 0.9, "subbackg": 1}
316.8218498245369 13193.590507292824
317.89969571804795 13165.523249852176
318.977263876126 13190.325662332052
320.05455438786703 13101.424342866627
321.1315673423287 13075.978939366225
322.2083028285215 13084.728896255267
323.2847609354267 12973.684062329541
324.3609417519747 12885.70904092604
325.43684536705587 12764.40402583819
326.5124718695279 12776.126680534118
327.58782134820103 12780.97108019463
328.66289389184385 12767.459043787581
329.7376895891921 12575.579772537038
330.8122085289342 12605.07944614192
331.88645079971866 12621.447411596606
332.9604164901575 12550.209225269215
334.03410568881554 12436.75959121913
335.1075184842266 12635.014966431108
336.18065496487543 12383.171327788135
337.2535152192122 12478.712283286339
338.32609933564163 12470.998717101718
339.39840740253203 12440.514842856768
340.4704395082099 12337.42412006988
341.5421957409617 12199.325394684685
342.6136761890357 12413.971169926888
343.6848809406365 12296.784841969038
344.75581008392874 12233.9186531041
345.82646370703696 12134.523912628461
346.8968418980512 12103.52832515744
347.96694474501055 12184.962682575613
349.0367723359268 12115.138211303252
350.106324758759 12127.961584679206
351.1756021014353 11983.327307910844
352.2446044518383 12024.230276247255
353.31333189781435 12098.871312469068
354.38178452716966 12034.755340389951
355.449962427665 12085.634367593415
356.51786568702846 11988.402019076075
357.58549439294256 12128.244918936183
358.6528486330535 12098.535535638493
359.71992849496564 12022.227451319308
360.7867340662433 11961.014277156757
361.8532654344144 12081.521307373592
362.9195226869597 12134.692785963542
363.9855059113288 11968.133814872699
365.05121519492604 11847.117002905234
366.11665062511565 12063.875925655982
367.1818122892273 12082.72193427781
368.2467002745434 12069.052396304494
369.31131466831175 12118.953663430077
370.375655557742 12048.779132095275
371.4397230299983 12152.964967998614
372.5035171722102 12056.086050322283
373.5670380714637 12059.539938501655
374.6302858148101 12157.769586425991
375.6932604892554 12115.777051138542
376.7559621817709 12129.777094326282
377.81839097928605 11934.610465275422
378.8805469686886 12001.516693209529
379.94243023683157 12087.018816422935
381.0040408705263 12014.107416860987
382.0653789565458 11841.250342709829
383.1264445816196 11928.378050006178
384.1872378324406 11905.446738537652
385.2477587956637 11927.236849696388
386.3080075579037 11824.291348017177
387.3679842057336 11722.16879553001
388.4276888256918 11819.065038421324
389.48712150426945 11805.415432634758
390.54628232792857 11712.061814793746
391.6051713830857 11688.929280696531
392.66378875611736 11751.90974421814
393.7221345333637 11699.841466167563
394.7802088011249 11629.548787488491
395.838011645661 11645.341822237806
396.89554315319765 11578.496824117336
397.9528034099112 11467.2140783553
399.00979250194723 11420.855801438913
400.06651051541485 11483.030769416768
401.1229575363741 11442.578949701618
402.17913365085224 11358.139810661372
403.23503894483656 11403.293693735073
404.2906735042761 11399.548138723143
405.3460374150818 11216.293511741214
406.401130763119 11324.655777837068
407.455953634224 11312.7422041563
408.5105061141876 11232.506742705544
409.56478828876243 11176.222650167676
410.6188002436629 11077.897660187988
411.6725420645689 11146.260596578397
412.72601383711117 11190.159361250448
413.77921564689314 11209.68603376285
414.8321475794728 11047.169125506098
415.88480972036814 11079.619853741056
416.93720215506437 11056.20338194785
417.9893249690049 10967.76058376048
419.04117824759123 10890.081521209779
420.09276207619223 10875.713066442644
421.144076540133 10932.347651638824
422.1951217247042 10893.123870819381
423.24589771515275 10940.401491591338
424.2964045966928 10869.299508870528
425.34664245449494 10910.476418465543
426.3966113736933 10819.40108124852
427.4463114393875 10729.42530610904
428.49574273662984 10852.239253855547
429.5449053504417 10668.886998423242
430.5937993658026 10773.22132151247
431.6424248676558 10662.599537462589
432.6907819409007 10686.471410817285
433.73887067040596 10719.660953710378
434.7866911409965 10724.158543036558
435.8342434374608 10730.162554729091
436.88152764455117 10632.76282344143
437.9285438469724 10695.38976372611
438.9752921294057 10625.786285366685
440.02177257648145 10633.6058322202
441.06798527279716 10508.717779865143
442.1139303029122 10742.457928474567
443.1596077513459 10672.021731404859
444.2050177025794 10586.74325006195
445.25016024105753 10714.997244065828
446.2950354511886 10593.87086287457
447.33964341733736 10571.29894573477
448.383984223834 10555.247698527088
449.4280579549686 10502.771443018883
450.471864694995 10522.13315226099
451.5154045281306 10568.744048824781
452.5586775385509 10548.456124523142
453.60168381039693 10511.552219377278
454.64442342776783 10654.559215206045
455.6868964747264 10574.341518573388
456.7291030353008 10513.030034055888
457.77104319347563 10685.707837158592
458.8127170332027 10630.4519708634
459.854124638392 10624.220485766678
460.895266092919 10716.285551958452
461.93614148061897 10734.485197291706
462.97675088529104 10784.386245982761
464.01709439069236 10708.483474909552
465.0571720805492 10753.021326795748
466.0969840385442 10829.169545862293
467.1365303483253 10951.065560348168
468.17581109350067 10822.459461023042
469.2148263576437 10835.859813047302
470.2535762242878 10811.960175456592
471.29206077693016 10983.337815602243
472.33028009902773 11054.393771656367
473.3682342740012 10954.943856803253
474.40592338523857 10980.647977980741
475.4433475160804 10994.377459386742
476.4805067498364 10974.326538083435
477.51740116978 11007.269785293138
478.5540308591426 11136.140240824705
479.59039590112116 11305.08586934947
480.6264963788726 11239.32218502556
481.6623323755193 11336.622290717216
482.6979039741436 11449.793908210124
483.7332112577915 11570.23526774134
484.76825430947247 11819.596677487367
485.80303321215797 11927.451810326744
486.837548048783 11891.340322197646
487.8717989022425 12148.999137706829
488.90578585539697 12163.19027305717
489.9395089910686 12327.005325512775
490.97296839203955 12244.930620150486
492.00616414106116 12066.478933214388
493.0390963208429 12076.678872404818
494.0717650140559 12037.761538710478
495.10417030333883 11923.023199162786
496.1363122712901 11821.193739630411
497.16819100046814 11641.467907755827
498.1998065734024 11473.72493513594
499.2311590725767 11344.767126531677
500.26224858044407 11233.062272761188
501.2930751794156 11093.86753613329
502.3236389518679 11080.665304169917
503.35393998014115 10848.304788523923
504.38397834653733 10870.383547352068
505.4137541333221 10812.471297929274
506.4432674227228 10638.187084248602
507.4725182969323 10574.469816359098
508.5015068381035 10573.132612855585
509.53023312835467 10626.69889935473
510.55869724976765 10529.86484337447
511.58689928438434 10438.589815665964
512.6148393142121 10413.43880816881
513.6425174212218 10486.55557205569
514.6699336873462 10508.230898863212
515.6970881944835 10503.929275574366
516.7239810244901 10410.324164985886
517.7506122591931 10474.082042721437
518.7769819803761 10444.75454152893
519.8030902697901 10516.291041761908
520.8289372091476 10510.19960209021
521.8545228801249 10605.805233450423
522.8798473643619 10575.02456040154
523.9049107434621 10507.427000268879
524.9297130989908 10542.48369594235
525.9542545124805 10482.665647579492
526.9785350654201 10457.933907379329
528.0025548392696 10466.690837496755
529.0263139154504 10347.878899662279
530.0498123753423 10482.450547581997
531.073050300296 10333.201740573659
532.0960277716204 10275.689568016744
533.1187448705896 10327.637752845902
534.1412016784416 10259.606874690351
535.1633982763833 10226.777802784298
536.1853347455726 10150.100622072167
537.2070111671401 10131.710806678742
538.2284276221817 10045.836949912182
539.2495841917516 9994.74112090623
540.2704809568677 9943.901221083666
541.2911179985167 9915.174387849433
542.3114953976419 9824.627426052644
543.3316132351592 9822.869977990831
544.3514715919409 9767.21742789185
545.3710705488247 9765.709561318918
546.3904101866156 9699.332483214284
547.4094905860784 9697.173049616478
548.4283118279418 9697.386714509073
549.4468739929034 9718.510670255395
550.4651771616191 9683.429809007397
551.4832214147063 9582.397481409347
552.501006832761 9709.233452608058
553.5185334963226 9623.643593730592
554.5358014859103 9631.881596443061
555.5528108820035 9673.28040841891
556.5695617650363 9520.245499040142
557.5860542154242 9593.901438950681
558.6022883135283 9570.018576401006
559.6182641396881 9481.381400617573
560.6339817741991 9605.803700931201
561.6494412973225 9618.350432498803
562.6646427892883 9628.738387397156
563.6795863302796 9519.56527322072
564.694272000459 9449.037743269104
565.7086998799423 9720.240183277176
566.7228700488104 9528.991931732106
567.7367825871115 9520.215250070227
568.7504375748576 9509.717464026628
569.7638350920224 9572.60586950786
570.7769752185486 9567.430716966495
571.7898580343353 9581.341340011128
572.802483619258 9442.923581222285
573.8148520531431 9711.156833454395
574.8269634157932 9639.933192707893
575.8388177869692 9671.698954394977
576.8504152463938 9649.380974019567
577.8617558737587 9906.429425529843
578.8728397487175 9771.997298606295
579.883666950891 9830.120907868928
580.8942375598654 9954.809293845949
581.9045516551851 10044.789784675933
582.9146093163617 10275.155194036934
583.924410622878 10165.62430733434
584.9339556541727 10241.80735240611
585.9432444896538 10412.574302805724
586.9522772086875 10363.166141857922
587.9610538906127 10338.182826751621
588.9695746147318 10289.406854047327
589.9778394603054 10314.529953415442
590.985848506567 10111.640027210744
591.9936018327098 10148.639507962973
593.0010995178891 9874.637959643716
594.0083416412344 10034.900618863521
595.0153282818283 9810.843022770856
596.0220595187293 9795.722074470023
597.0285354309508 9702.063587666125
598.0347560974806 9675.750115685802
599.0407215972609 9612.842635640194
600.0464320092051 9539.39922691665
601.0518874121954 9550.394254368493
602.0570878850685 9505.08338203366
603.062033506636 9544.609439294794
604.0667243556636 9465.30962017678
605.0711605108936 9350.498013462895
606.0753420510264 9626.661501045839
607.0792690547278 9522.85243328355
608.082941600629 9446.210905147262
609.0863597673306 9554.081564724711
610.0895236333909 9585.973209034975
611.0924332773357 9734.214564220514
612.0950887776617 9611.950008980884
613.0974902128219 9711.134981255465
614.0996376612384 9936.398865033792
615.1015312013005 9941.819979532187
616.1031709113595 10111.125832499632
617.1045568697336 10002.955653719724
618.1056891547069 10166.550221875592
619.1065678445229 10358.088423999145
620.1071930173985 10640.218437584537
621.1075647515099 10638.393398284494
622.1076831250048 10776.046757403314
623.1075482159849 10924.207466695141
624.1071601025305 11031.326102001764
625.1065188626781 11149.943671266596
626.105624574433 11501.467804578187
627.1044773157682 11643.338920775135
628.1030771646128 11699.487072333086
629.1014241988742 11884.253002185662
630.0995184964158 12061.83527190801
631.0973601350688 12178.522485084894
632.0949491926294 12408.281752314542
633.0922857468631 12130.426871519612
634.089369875499 12237.90569200785
635.0862016562278 12228.246376008703
636.0827811667077 11989.226880514634
637.0791084845641 11976.425033512836
638.0751836873878 11708.126924331693
639.0710068527369 11803.92995815466
640.0665780581294 11477.805383359291
641.0618973810506 11366.64255641658
642.0569648989604 11339.45660823817
643.0517806892676 10974.514339157151
644.0463448293649 10909.585828729845
645.040657396592 10666.923810243245
646.0347184682723 10606.0268682731
647.0285281216875 10338.557839926892
648.0220864340772 10202.125901491469
649.0153934826558 10060.450124431933
650.0084493446047 10009.444804383746
651.0012540970674 9869.967688200662
651.9938078171526 9751.467910121006
652.9861105819346 9646.016687438485
653.9781624684565 9775.134002581382
654.9699635537254 9509.226500106945
655.9615139147136 9532.176367704069
656.9528136283589 9327.956318690452
657.9438627715699 9480.908004544262
658.9346614212154 9425.084190908072
659.925209654135 9233.67275585341
660.9155075471263 9186.867756490099
661.9055551769616 9218.405126952324
662.895352620375 9338.615072077233
663.8848999540678 9154.640221145457
664.8741972547068 9065.435957487422
665.863244598926 9015.815598230314
666.8520420633213 9022.773865431745
667.8405897244611 8964.86370642874
668.8288876588758 8763.23830324409
669.8169359430613 9003.15176510959
670.8047346534822 8964.2620962873
671.7922838665672 8843.839316588168
672.7795836587156 9005.82458650167
673.766634106285 9108.738634046258
674.7534352856092 8830.093156032457
675.7399872729766 8874.601074145901
676.7262901446538 8891.713554374535
677.712343976862 8916.932818413754
678.6981488457986 8948.51385595361
679.6837048276229 8825.653266497173
680.6690119984596 8852.745872671496
681.6540704344043 8809.322445955877
682.6388802115107 8857.831869809203
683.6234414058108 8825.26741814677
684.6077540932874 8735.057838636038
685.591818349907 8789.217594211757
686.575634251587 8769.129586370254
687.5592018742263 8719.550500411115
688.5425212936734 8525.25898217216
689.5255925857564 8755.780420356954
690.5084158262707 8684.847355601296
691.4909910909646 8621.310504348836
692.4733184555644 8586.19607415426
693.4553979957618 8585.02578268252
694.4372297872123 8672.31950683189
695.4188139055404 8561.432188591813
696.4001504263324 8450.411379477131
697.3812394251509 8616.05121179649
698.3620809775111 8450.272251791885
699.3426751589104 8485.719477784914
700.3230220448004 8404.136391726333
701.3031217106054 8511.104378811246
702.2829742317172 8672.648935489842
703.2625796834873 8336.557407852772
704.2419381412474 8341.167257404539
705.22104968028 8427.39030732122
706.1999143758458 8366.155643990252
707.178532303169 8394.854553633471
708.1569035374378 8408.31642221758
709.1350281538107 8449.947846077119
710.1129062274158 8413.235470342519
711.0905378333373 8567.55802701119
712.0679230466376 8510.396873896803
713.0450619423427 8635.567254762998
714.0219545954424 8752.533180371594
714.9986010808989 8747.519368184843
715.9750014736292 8742.084102725265
716.9511558485392 8881.618012804554
717.9270642804786 8998.553678903107
718.9027268442787 9068.186186573075
719.8781436147328 9067.663968870347
720.8533146666014 8994.801129145446
721.828240074612 8995.534221920856
722.8029199134635 9053.629205558304
723.7773542578125 8934.443578574372
724.751543182294 8818.412257112495
725.7254867615029 8915.195992817149
726.6991850700015 8688.820722773318
727.6726381823228 8738.931566348487
728.6458461729599 8730.313895991614
729.6188091163858 8676.989046468345
730.5915270870246 8585.04611300287
731.5640001592856 8467.406178672467
732.536228407529 8588.196237626235
733.5082119060917 8565.850597576755
734.4799507292755 8579.575734436248
735.4514449513481 8465.151751520767
736.4226946465496 8681.496504960462
737.3936998890786 8735.832108249033
738.3644607531078 8495.255290632853
739.3349773127793 8548.259350940749
740.3052496421951 8519.83194296066
741.27527781543 8450.285607184991
742.2450619065221 8370.036883839255
743.2146019894826 8431.601537772649
744.183898138288 8405.866733010498
745.1529504268801 8236.055306468585
746.1217589291682 8132.369935314382
747.0903237190341 8237.845845992833
748.058644870318 8149.417219866113
749.0267224568397 8247.422216555908
749.994556552374 8046.241493593026
750.9621472306771 8120.9652039367575
751.9294945654583 8161.172942147219
752.8965986304011 8130.628571027664
753.8634594991636 8108.857219643226
754.8300772453586 8135.869636257274
755.7964519425768 8131.276076059602
756.762583664371 8304.279882671388
757.7284724842611 8281.446753558599
758.6941184757416 8102.7472465274495
759.6595217122667 8118.207241192969
760.6246822672638 8218.870189093575
761.5896002141235 8027.658381302717
762.5542756262093 8126.706102695114
763.5187085768503 8140.016510452404
764.4828991393406 8106.219178603303
765.4468473869474 8058.801660572552
766.4105533929032 8111.006897199739
767.3740172304078 8041.731188951302
768.3372389726283 8102.544403173789
769.3002186926988 7932.839541530853
770.2629564637282 7921.050700122895
771.2254523587872 7972.40383320067
772.1877064509154 7900.90615104842
773.1497188131179 7787.903906128811
774.1114895183728 7695.201156995795
775.0730186396268 7782.382668876194
776.0343062497905 7740.577219132765
776.9953524217381 7721.616618694531
777.9561572283274 7672.501957902699
778.9167207423689 7692.836009877127
779.8770430366476 7576.099001850732
780.8371241839159 7602.754382017769
781.7969642568951 7621.370636949161
782.7565633282757 7824.377946407549
783.7159214707099 7618.23132963002
784.6750387568281 7682.405784905146
785.6339152592227 7684.070196047115
786.5925510504512 7584.152622896223
787.5509462030477 7740.688694755166
788.5091007895098 7622.007938777894
789.4670148823006 7607.352293794039
790.4246885538596 7618.252122445946
791.3821218765861 7718.243200714307
792.3393149228505 7531.697111726276
793.2962677649975 7676.576756392776
794.2529804753303 7728.166288262811
795.20945312613 7718.317182959904
796.1656857896378 7607.291535395607
797.1216785380675 7602.710982389404
798.0774314435985 7773.37919621006
799.0329445783846 7860.16943424708
799.9882180145414 7836.579542479875
800.9432518241574 7817.328553876056
801.89804607929 8055.006877200986
802.852600851962 8086.599375035781
803.8069162141637 8068.186104730831
804.760992237856 8138.3502559901735
805.714828994971 8199.208417802382
806.6684265574077 8253.45983085441
807.6217849970271 8206.347181970219
808.574904385674 8106.730423812934
809.527784795142 8201.306625743342
810.4804262972102 8316.15127748978
811.4328289636178 8074.9602597106295
812.3849928660748 7937.534638527157
813.3369180762638 7827.330779567468
814.2886046658241 7985.934467041856
815.2400527063783 7725.126078474345
816.1912622695108 7714.14202763785
817.1422334267718 7693.236973235435
818.0929662496856 7606.098225271909
819.0434608097457 7456.438212634489
819.9937171784059 7445.454376227232
820.9437354271013 7416.980291926778
821.8935156272255 7520.842674655643
822.8430578501484 7316.723375381775
823.7923621672016 7228.454906263965
824.7414286496896 7286.652242751882
825.6902573688876 7218.992513618818
826.6388483960363 7227.446671893866
827.5872018023492 7089.261068949936
828.5353176590033 7247.856410527695
829.4831960371503 7128.028558006956
830.4308370079016 7108.039825181213
831.3782406423525 7188.402684099665
832.3254070115545 7204.967772994278
833.2723361865319 7103.882207249873
834.2190282382799 6989.6610153822985
835.1654832377644 7131.93998993829
836.1117012559116 7073.129848862974
837.0576823636256 7196.452592519636
838.003426631778 6968.33447847478
838.9489341312074 6990.687621820101
839.8942049327197 7125.032449260945
840.8392391070975 7145.244623830027
841.7840367250865 7013.637083518042
842.7285978573982 6940.213699597535
843.672922574724 7135.624502856974
844.6170109477152 7057.1318972032
845.560863046996 6997.049721883903
846.5044789431595 7015.2071193590655
847.4478587067697 7030.067149357166
848.3910024083561 7206.908017518057
849.333910118421 7005.9563494607455
850.2765819074339 6991.032478614744
851.2190178458332 7078.676212010006
852.161218004032 7021.290392782248
853.1031824524016 7057.577669705157
854.0449112612987 7005.285767025614
854.9864045010327 7103.842997463104
855.9276622418947 6990.008822283604
856.8686845541379 6988.471390962079
857.8094715079915 7046.031804173927
858.7500231736467 7147.845703483758
859.690339621271 7086.692094764066
860.6304209209939 7073.973665893837
861.5702671429244 6938.467341479036
862.5098783571284 7131.797186591539
863.4492546336569 7062.546219104675
864.3883960425155 6967.412588547055
865.3273026536863 6983.605787060764
866.2659745371238 6995.624994958927
867.2044117627465 7250.209756505099
868.1426144004472 7073.294787159257
869.0805825200823 7170.931778428749
870.0183161914847 7190.217245988354
870.9558154844526 7282.788474256381
871.8930804687552 7229.054062932625
872.8301112141307 7109.850881989034
873.7669077902865 7375.510136089268
874.7034702669062 7477.561980322775
875.6397987136315 7377.736532983569
876.5758932000863 7397.928588567384
877.5117537958522 7459.615575094671
878.4473805704911 7408.198677121681
879.3827735935283 7449.092490007444
880.3179329344603 7610.517333059351
881.2528586627541 7595.06250600818
882.1875508478479 7719.215792541984
883.1220095591489 7510.074033065204
884.0562348660296 7506.53247011596
884.9902268378391 7620.275147132137
885.9239855438955 7504.548702883716
886.8575110534839 7419.41461722601
887.7908034358588 7495.5808573523755
888.7238627602474 7383.152739565779
889.6566890958475 7518.602605935605
890.5892825118208 7212.060012251795
891.5216430773125 7362.23345234936
892.4537708614189 7265.02049221356
893.3856659332196 7119.3337876359055
894.3173283617652 7023.194899627435
895.2487582160684 7129.941281563976
896.179955565116 7053.506704346076
897.110920477864 6963.948141832919
898.0416530232451 6900.2678527123035
898.9721532701478 6830.954183183373
899.9024212874428 6977.225526249768
900.8324571439662 6795.981572526277
901.7622609085302 6741.015238484931
902.6918326499072 6718.247599237788
903.6211724368477 6717.532530585273
904.5502803380696 6844.608900342854
905.4791564222614 6932.433935903556
906.4078007580792 6636.502154251766
907.3362134141571 6718.666041406835
908.2643944590909 6846.8624593588975
909.1923439614493 6677.902803576438
910.1200619897754 6607.881968288016
911.0475486125779 6906.283464575538
911.9748038983344 6696.74927787546
912.9018279155007 6678.31653887315
913.8286207324982 6519.09221488186
914.7551824177117 6643.305829162343
915.6815130395116 6570.080854607845
916.6076126662283 6509.0481058378855
917.533481366163 6575.961096398741
918.4591192075914 6619.293805037468
919.3845262587565 6597.035997106502
920.3097025878706 6589.356497619114
921.2346482631237 6510.729541940656
922.1593633526682 6568.394972818033
923.0838479246304 6666.482037546984
924.0081020471061 6722.425426718442
924.9321257881656 6361.522431379851
925.8559192158464 6534.566698022674
926.7794823981512 6460.5699805807035
927.7028154030686 6470.030366263034
928.6259182985414 6364.675898974159
929.5487911524906 6570.883873954406
930.4714340328119 6567.087109482393
931.3938470073608 6357.570327285223
932.3160301439748 6458.020237858931
933.2379835104548 6507.659840028575
934.1597071745709 6560.214448347322
935.0812012040769 6559.395509165925
936.002465666681 6578.784622924781
936.9235006300696 6541.504139915297
937.8443061619055 6590.593258899242
938.7648823298077 6379.377236216692
939.6852292013809 6407.693811088277
940.6053468441951 6549.465482923997
941.5252353257874 6328.066898919316
942.4448947136698 6441.874434422689
943.364325075323 6410.907943421725
944.2835264782043 6483.710425620617
945.2024989897309 6389.609210849874
946.1212426773054 6396.645690931423
947.0397576082851 6498.359306369269
947.9580438500125 6586.312945726415
948.8761014697939 6619.115553264695
949.7939305349064 6525.822286829068
950.7115311125999 6458.231893467244
951.6289032700952 6401.367849497767
952.5460470745875 6568.900179253762
953.4629625932339 6445.892369625186
954.3796498931715 6522.091303973282
955.2961090415029 6500.774833843847
956.2123401053068 6386.702248338068
957.1283431516276 6460.172466668728
958.0441182474842 6425.985777688755
958.9596654598663 6550.161234410494
959.8749848557309 6447.512442764482
960.7900765020167 6409.883344002829
961.7049404656209 6329.906343332952
962.6195768134185 6514.3953754323975
963.5339856122537 6491.959836721509
964.4481669289453 6577.372963207275
965.3621208302793 6468.897286510653
966.2758473830145 6349.425724267634
967.1893466538822 6562.549083580166
968.1026187095813 6398.861628934677
969.0156636167867 6351.70273568907
969.9284814421426 6535.143414677874
970.8410722522622 6436.869128100358
971.753436113735 6454.7984383993935
972.6655730931161 6349.644469624092
973.5774832569368 6483.104646751961
974.4891666716958 6356.591734544416
975.4006234038698 6365.589923709479
976.3118535198955 6285.820198852087
977.2228570861935 6562.325463875013
978.1336341691494 6484.775908109141
979.0441848351202 6354.219998090298
979.9545091504333 6558.4954283276265
980.864607181391 6485.4361043381605
981.7744789942699 6507.149279727188
982.6841246553086 6476.905120631052
983.5935442307236 6545.513521263021
984.5027377867027 6591.012484236531
985.4117053894024 6648.235893814529
986.3204471049557 6457.307847220208
987.2289629994648 6561.902470980318
988.1372531390007 6655.117060355517
989.0453175896091 6636.903208318619
989.9531564173067 6636.882788535391
990.860769688079 6540.730292343694
991.7681574678918 6607.292531592752
992.6753198226706 6607.0849676973085
993.582256818323 6573.259318476424
994.4889685207218 6614.09152219535
995.3954549957143 6810.529426414427
996.301716309119 6769.753512144562
997.2077525267232 6676.804843056455
998.1135637142943 6633.926130494549
999.0191499375615 6826.653092365125
999.924511262232 6863.146129213217
1000.8296477539861 6771.6426389754515
1001.7345594784656 6689.383871900277
1002.6392465012996 6634.017404119991
1003.5437088880753 6843.974728374698
1004.4479467043584 6808.838384298511
1005.3519600156869 6590.028107262568
1006.2557488875718 6790.857942890345
1007.1593133854858 6745.422400266636
1008.0626535748888 6608.791088419048
1008.9657695212009 6551.929897343379
1009.8686612898182 6804.157497684297
1010.7713289461135 6741.987727686998
1011.6737725554212 6652.241421690749
1012.5759921830577 6615.039243850619
1013.4779878943027 6673.869364901744
1014.379759754418 6697.943245237986
1015.2813078286254 6527.328668331373
1016.18263218213 6470.975324333163
1017.0837328801026 6435.008025697653
1017.9846099876886 6589.116037189667
1018.8852635700023 6463.445010922529
1019.7856936921362 6334.134200918181
1020.6859004191447 6536.312612004847
1021.5858838160675 6393.827983771159
1022.4856439479063 6345.303991702594
1023.3851808796389 6346.3883290388685
1024.2844946762143 6453.867471564974
1025.183585402554 6446.9777677236425
1026.082453123554 6119.386141442174
1026.9810979040776 6298.902318287021
1027.8795198089647 6194.268413453508
1028.777718903024 6347.714554811299
1029.6756952510368 6208.826682750108
1030.5734489177648 6259.5472088081
1031.4709799679313 6149.619899185185
1032.3682884662358 6335.019874737289
1033.2653744773506 6050.23375398785
1034.1622380659192 6094.926770551831
1035.058879296559 6230.730384634803
1035.9552982338591 6360.269709097329
1036.8514949423825 6200.334346424317
1037.7474694866614 6159.649550193234
1038.6432219312028 6095.091925643535
1039.5387523404825 6305.5206306467735
1040.4340607789582 6139.830438756567
1041.3291473110476 6128.691118300494
1042.2240120011465 6282.4801811760135
1043.1186549136273 6327.4026507514545
1044.0130761128294 6180.695893177532
1044.9072756630649 6236.266862929357
1045.8012536286205 6324.548838560164
1046.6950100737577 6307.704649082623
1047.588545062701 6323.69179548817
1048.481858659663 6354.272431708733
1049.3749509288118 6518.011567227745
1050.2678219343034 6344.095271214852
1051.1604717402515 6375.100373664059
1052.0529004107575 6269.179243255448
1052.9451080098825 6436.157177261143
1053.8370946016694 6341.36723352273
1054.7288602501267 6322.3946111963105
1055.6204050192446 6404.383440009327
1056.511728972977 6472.042317766445
1057.402832175254 6487.501645559942
1058.2937146899785 6348.461952980015
1059.1843765810263 6363.985608605168
1060.0748179122456 6452.589822356703
1060.9650387474576 6366.532980664033
1061.855039150456 6392.710911186676
1062.7448191850071 6414.573992036572
1063.6343789148505 6427.480641849701
1064.5237184037014 6547.431203793551
1065.412837715241 6352.880469598825
1066.3017369131267 6344.08137178272
1067.190416060992 6470.859979118418
1068.0788752224398 6305.141189137501
1068.9671144610438 6267.359714823341
1069.8551338403558 6435.3137241595
1070.7429334239023 6437.059407633717
1071.6305132751695 6235.79235514211
1072.517873457633 6322.618324702491
1073.4050140347335 6327.178119352373
1074.2919350698776 6325.871120872447
1075.1786366264623 6248.702194592521
1076.0651187678395 6234.241465727053
1076.95138155735 6123.887844847975
1077.8374250582929 6084.755362101143
1078.7232493339507 6213.107928100368
1079.608854447577 6091.370032138337
1080.4942404623907 6032.829473915035
1081.3794074415982 6215.476873512048
1082.2643554483657 6142.977815869115
1083.149084545841 6003.787706918913
1084.033594797138 5964.178779564264
1084.9178862653516 5948.821234251351
1085.8019590135427 6078.253986307542
1086.6858131047484 5843.513601919511
1087.5694486019802 6005.460000908969
1088.4528655682225 5857.209932167161
1089.3360640664287 6127.125325892671
1090.2190441595321 5998.164781261083
1091.1018059104317 5995.911354784605
1091.98434938201 6117.128006142367
1092.866674637111 6116.486154461977
1093.748781738559 5974.885732421789
1094.6306707491512 5824.99243853579
1095.5123417316554 5995.847939661261
1096.3937947488157 5873.178748089002
1097.2750298633455 5916.682243675683
1098.156047137938 5884.364892915388
1099.0368466352556 5976.728596153063
1099.9174284179317 6061.324118948911
1100.7977925485757 5766.216735696845
1101.6779390897755 5919.486874666186
1102.5578681040806 5921.602332822673
1103.4375796540226 5922.473970259157
1104.3170738021054 5938.803918172051
1105.1963506108077 5745.144898823107
1106.0754101425773 5783.11650790551
1106.9542524598382 5883.515632883786
1107.8328776249855 5805.097221340434
1108.7112857003904 5766.175483058103
1109.5894767483987 5875.667624001043
1110.4674508313292 6006.327451437382
1111.3452080114657 5805.540792796208
1112.2227483510815 5978.1261010248245
1113.1000719124077 5990.037497566216
1113.9771787576592 6083.291088894761
1114.854068949022 6001.149249446176
1115.7307425486542 6239.009056655335
1116.6071996186893 6234.046824008645
1117.483440221229 6474.143793544119
1118.3594644183577 6205.457199643441
1119.235272272128 6256.596150859914
1120.1108638445658 6375.0787948407615
1120.9862391976712 6677.819218034075
1121.8613983934229 6577.095951758612
1122.7363414937627 6617.543762617917
1123.6110685606182 6630.157519345948
1124.485579655884 6764.756866976279
1125.359874841426 6739.773415144429
1126.2339541790916 6844.230112803695
1127.1078177306936 7046.473336460287
1127.9814655580267 6817.614832945279
1128.854897722851 6900.7938221782915
1129.7281142869106 6926.069417884329
1130.6011153119125 6961.028937498461
1131.473900859548 7111.9639862737695
1132.3464709914697 6968.808277344402
1133.2188257693178 6849.288117720653
1134.0909652546961 6837.2973738355595
1134.96288950919 6690.57352861879
1135.8345985943506 6902.550486228165
1136.7060925717087 6567.588497674023
1137.57737150277 6691.284133916224
1138.4484354490069 6777.413761264182
1139.3192844718778 6485.618281979354
1140.1899186327992 6313.684169676557
1141.060337993178 6519.816378948173
1141.930542614382 6356.559292978499
1142.8005325577597 6288.380876095769
1143.670307884635 6002.530806202086
1144.5398686563003 6250.545152481018
1145.409214934025 6076.200771701327
1146.2783467790541 5805.603616547121
1147.1472642526023 5930.777384874382
1148.0159674158622 6031.024911316743
1148.8844563300026 5792.405798381389
1149.7527310561618 5732.233839380401
1150.6207916554504 5707.973473757855
1151.4886381889592 5580.387356748753
1152.3562707177498 5797.183457797783
1153.2236893028585 5615.309711739361
1154.090894005296 5527.520591784809
1154.9578848860474 5613.904346186714
1155.8246620060709 5581.713319577209
1156.6912254262988 5413.41937917486
1157.5575752076438 5447.361365801778
1158.42371141098 5692.471267415911
1159.2896340971656 5629.786106944079
1160.1553433270346 5477.819362448727
1161.0208391613887 5520.311290249121
1161.8861216610057 5542.304979537454
1162.75119088664 5518.998359075171
1163.6160468990201 5427.199791352966
1164.4806897588442 5324.832317789695
1165.3451195267917 5493.906068612356
1166.2093362635114 5551.160124154646
1167.0733400296285 5463.554211998816
1167.9371308857444 5414.750715221852
1168.8007088924278 5377.694726089258
1169.6640741102328 5452.146845218702
1170.5272265996773 5427.858468115074
1171.390166421259 5204.672934864697
1172.252893635452 5483.788840503605
1173.1154083026995 5555.829639172556
1173.977710483421 5574.202731261504
1174.8398002380145 5316.293024346915
1175.7016776268483 5462.368311957823
1176.563342710264 5458.321150665839
1177.4247955485826 5425.399781366823
1178.2860362020947 5438.866774392027
1179.147064731069 5281.931882430154
1180.0078811957483 5499.311982216619
1180.8684856563486 5444.367166635112
1181.7288781730604 5503.250014655454
1182.589058806052 5518.064432682162
1183.4490276154593 5683.870454615363
1184.3087846614017 5458.197814804613
1185.1683300039676 5547.821582758559
1186.027663703222 5751.389774220576
1186.8867858192025 5670.567260636346
1187.7456964119228 5712.597647063127
1188.6043955413716 5759.236444995501
1189.4628832675116 5805.120558062376
1190.3211596502842 5971.493290489181
1191.179224749596 5937.300189162181
1192.0370786253388 5766.496217896156
1192.8947213373758 6034.141553294547
1193.7521529455407 6116.366445600388
1194.6093735096438 5881.709960703787
1195.466383089477 5966.179215937156
1196.3231817447977 5974.719913671925
1197.1797695353398 6214.821952766048
1198.0361465208189 5902.723106726782
1198.8923127609214 5899.635580609842
1199.7482683153048 6114.112395620161
1200.6040132436028 6232.599539437814
1201.459547605431 6106.834611964355
1202.3148714603722 6154.812035575569
1203.1699848679855 6083.68858443535
1204.0248878878065 6243.033286889235
1204.8795805793507 5887.4078745717125
1205.7340630020935 6014.827599059785
1206.5883352155033 6139.055658675379
1207.4423972790064 6001.425020564568
1208.2962492520237 5836.499730563582
1209.1498911939307 5829.929302415846
1210.0033231640937 5949.056348088981
1210.8565452218427 5883.0986805577395
1211.7095574264913 5575.586624933223
1212.5623598373222 5699.845114217451
1213.4149525135963 5617.982585431111
1214.2673355145507 5753.97535640523
1215.1195088993936 5562.809044137579
1215.9714727273113 5553.327050690912
1216.8232270574663 5737.259530839592
1217.6747719489904 5397.786367454411
1218.5261074609934 5477.339685766372
1219.3772336525653 5577.182234793602
1220.2281505827668 5665.377928534859
1221.0788583106296 5617.873507503023
1221.9293568951707 5355.8415188444615
1222.7796463953746 5356.513587678399
1223.629726870202 5469.5294254224345
1224.4795983785934 5462.24997706584
1225.3292609794553 5399.606958270574
1226.1787147316809 5333.583240260019
1227.0279596941327 5390.628703736952
1227.8769959256424 5298.213125158289
1228.7258234850306 5411.761944499822
1229.5744424310833 5179.59829484886
1230.422852822563 5420.496341398043
1231.2710547182105 5549.036700856317
1232.119048176739 5356.256998879724
1232.9668332568417 5125.022725411853
1233.8144100171812 5418.051532826005
1234.6617785163999 5427.415397307394
1235.508938813111 5170.932953747934
1236.3558909659114 5179.801436020786
1237.2026350333617 5369.991136252575
1238.049171074008 5472.17604080459
1238.8954991463652 5255.130050316815
1239.741619308932 5286.781257992154
1240.587531620169 5350.6114326738825
1241.4332361385277 5413.193344360856
1242.2787329224248 5301.846348859523
1243.1240220302534 5155.229484614586
1243.9691035203869 5178.6218625450365
1244.813977451171 5504.103878282052
1245.6586438809263 5414.234123700082
1246.5031028679496 5101.5729296679365
1247.3473544705157 5396.164516316627
1248.1913987468706 5396.756811321947
1249.0352357552383 5114.756227419724
1249.8788655538228 5119.263911093092
1250.7222882007918 5386.08908758609
1251.565503754302 5448.307329931643
1252.4085122724755 5053.261597622112
1253.2513138134182 5405.970681195868
1254.0939084352049 5271.840754396505
1254.9362961958905 5275.264197380686
1255.7784771535007 5190.601667555675
1256.6204513660432 5326.507460179944
1257.4622188915 5527.149396024992
1258.3037797878242 5227.432374532727
1259.1451341129468 5227.301032323443
1259.9862819247755 5275.670310795516
1260.8272232811978 5240.661985878044
1261.6679582400666 5393.695078975221
1262.5084868592203 5150.455472936234
1263.34880919647 5141.6614752368405
1264.1889253095997 5276.154152127632
1265.0288352563712 5360.210829649468
1265.8685390945266 5086.477299451796
1266.7080368817751 5286.883949708847
1267.5473286758115 5418.528010565068
1268.386414534294 5260.800894424385
1269.2252945148703 4987.5723600562915
1270.0639686751547 5174.261281214547
1270.9024370727402 5095.845779705432
1271.7406997651997 5094.115018855849
1272.5787568100714 4924.045630528418
1273.4166082648808 5013.095357213859
1274.2542541871244 5189.87646399498
1275.091694634275 5384.241251816985
1275.9289296637817 4891.360391679457
1276.7659593330663 5215.5624961419435
1277.6027836995308 5061.047424061162
1278.4394028205552 5182.26157034415
1279.2758167534867 5127.193973585608
1280.112025555658 4988.017793560471
1280.9480292843746 5156.18493388837
1281.7838279969128 4934.079559415158
1282.6194217505326 5058.20684679599
1283.4548106024686 4967.471040229445
1284.289994609926 5021.745912738488
1285.1249738300921 5200.989857826378
1285.959748320127 5019.04396177126
1286.7943181371702 5090.353564021543
1287.6286833383328 4985.361510847401
1288.4628439807038 5049.051444254932
1289.2968001213521 4912.479183191753
1290.1305518173194 5031.092924688762
1290.9640991256183 5082.611019128785
1291.7974421032523 4954.803469283681
1292.630580807183 4850.77734248133
1293.463515294361 5156.072306709233
1294.29624562171 5308.160697436955
1295.12877184613 4998.896586205012
1295.961094024493 5073.597216429287
1296.79321221365 5188.93933429332
1297.6251264704333 5149.699603335384
1298.4568368516466 5445.001285974548
1299.2883434140658 5178.025397566039
1300.1196462144526 4985.454380341509
1300.9507453095375 5176.271331850383
1301.7816407560313 5197.063945897549
1302.6123326106172 5243.785684611832
1303.4428209299622 5106.921613880567
1304.2731057707024 5321.077371124207
1305.1031871894502 5180.99282776677
1305.933065242798 5351.603259559574
1306.7627399873181 5228.131513641582
1307.5922114795467 5602.478103204318
1308.4214797760123 5774.144345426286
1309.2505449332057 5343.738548154023
1310.0794070076026 5394.34343009395
1310.9080660556538 5505.101392846813
1311.736522133786 5550.083646257783
1312.5647752983987 5267.288383419541
1313.3928256058734 5117.7574661436565
1314.2206731125661 5489.411827617615
1315.048317874809 5441.476449578151
1315.8757599489109 5218.579075318769
1316.7029993911547 5396.398141453562
1317.5300362578055 5551.298903577759
1318.356870605101 5283.656241789022
1319.183502489257 5263.928287595742
1320.0099319664623 5440.080958309854
1320.836159092889 5442.478038238723
1321.66218392468 5568.697050519477
1322.4880065179532 5262.12410543644
1323.3136269288134 5405.4835942933505
1324.1390452133292 5563.459143408394
1324.9642614275563 5626.174972391461
1325.7892756275214 5366.723393522889
1326.6140878692295 5292.7212194461845
1327.4386982086617 5841.736848284147
1328.2631067017755 5543.546281533038
1329.0873134045069 5468.888119455929
1329.911318372764 5409.154159018566
1330.735121662441 5378.731014418894
1331.558723329399 5289.136503338317
1332.3821234294774 5287.857158346549
1333.2053220185007 5361.814397400233
1334.0283191522612 5322.436501974148
1334.851114886529 5439.061960530209
1335.6737092770582 5232.341873568503
1336.4961023795695 5337.929447729671
1337.3182942497697 5164.571825346195
1338.1402849433325 5279.302206388797
1338.962074515921 5134.2860110468955
1339.7836630231632 5047.410103777211
1340.6050505206676 5569.0892085960495
1341.426237064028 5450.554185888606
1342.2472227088037 5153.125496235008
1343.0680075105338 5113.199847689877
1343.888591524741 5156.495284868012
1344.7089748069138 5269.223691436505
1345.5291574125276 5191.431868028182
1346.3491393970307 5003.570673672477
1347.168920815846 5207.737631302365
1347.9885017243778 5330.63460900228
1348.8078821780036 5085.67434374539
1349.6270622320844 5141.94980334128
1350.4460419419447 5020.230057767153
1351.2648213629054 5320.719342483821
1352.0834005502438 4950.775113817288
1352.90177955923 5010.690081126095
1353.7199584451064 5131.8469669902515
1354.5379372630887 5162.404960058315
1355.355716068374 4973.57922565115
1356.1732949161305 4941.071438326802
1356.9906738615155 5072.071389038008
1357.8078529596478 5063.5212912485
1358.6248322656375 5143.269447433379
1359.441611834567 5012.716901111515
1360.2581917214866 5182.710281785013
1361.0745719814367 4977.893143439271
1361.890752669433 4885.908967264143
1362.7067338404577 4958.692993630973
1363.5225155494845 5172.406074434924
1364.3380978514506 5225.775873068748
1365.1534808012839 4830.73699426542
1365.9686644538815 4629.601356376767
1366.783648864117 5114.378388070369
1367.5984340868417 5220.8323868661155
1368.413020176893 5026.525227439097
1369.2274071890715 4789.2662329983195
1370.0415951781652 5082.694493459948
1370.8555841989346 4986.121867455144
1371.6693743061223 4819.008511222463
1372.48296555444 4612.142766010279
1373.2963579985844 5039.702814428989
1374.1095516932255 4994.02223674284
1374.9225466930166 4594.828637014178
1375.7353430525782 5004.948181941528
1376.5479408265164 4729.756914932028
1377.36034006941 4927.443353727836
1378.1725408358216 5005.173898486115
1378.9845431802805 4629.082022766964
1379.796347157304 5280.25300873994
1380.6079528213813 4925.285346369149
1381.4193602269788 4672.188104331036
1382.230569428546 4726.94310979989
1383.0415804805016 4973.205865762908
1383.852393437246 4943.9375624645845
1384.6630083531563 4817.4640437053895
1385.4734252825892 4781.590437773475
1386.2836442798798 4782.177193582329
1387.0936653993322 4842.915057718823
1387.9034886952395 4726.056105518258
1388.713114221864 4882.459126443664
1389.5225420334482 4843.94570897797
1390.331772184214 4763.806914592611
1391.1408047283585 4521.238389202628
1391.9496397200564 4751.414439357402
1392.758277213461 4925.605251930543
1393.5667172627054 4982.173087451256
1394.3749599218918 4739.498182878114
1395.1830052451114 4525.721326776746
1395.9908532864265 4694.368369787555
1396.7985040998774 4892.282657250433
1397.6059577394808 4586.269514970228
1398.4132142592352 4702.078348114464
1399.2202737131156 4608.075501156301
1400.027136155073 4980.950876309401
1400.8338016390353 4662.155619913675
1401.6402702189134 4593.32334492719
1402.446541948586 4766.8131566121165
1403.2526168819204 4570.845915072359
1404.058495072757 4598.31050258094
1404.8641765749107 4678.896409896326
1405.6696614421799 4747.288720278382
1406.4749497283356 5093.754421296935
1407.280041487129 4509.637696947922
1408.084936772295 4416.21176462356
1408.8896356375335 4847.162102005548
1409.6941381365323 4817.675125226916
1410.498444322955 4418.551710421924
1411.3025542504402 4611.745435352615
1412.106467972606 4625.4806729118645
1412.9101855430508 4641.555557152027
1413.7137070153458 4434.033470407865
1414.5170324430437 4524.318669015455
1415.320161879672 4716.608244594766
1416.1230953787435 4861.724560436035
1416.925832993742 4505.901056439679
1417.7283747781275 4233.737049104777
1418.5307207853439 4623.728871965591
1419.3328710688093 4510.346718489514
1420.134825681922 4365.2823457174145
1420.9365846780584 4355.912805584173
1421.7381481105713 4756.1473517462455
1422.539516032788 4461.689182459807
1423.3406884980232 4340.828053006595
1424.1416655595604 4289.970103758575
1424.942447270665 4424.015835842323
1425.7430336845828 4556.658726973654
1426.5434248545298 4228.308863484258
1427.3436208337116 4498.904970251387
1428.143621675301 4468.963957974288
1428.9434274324558 4627.1161877722425
1429.7430381583108 4231.613691098059
1430.5424539059713 4402.787211017541
1431.3416747285337 4754.75110249436
1432.1407006790632 4481.998327818235
1432.9395318106053 4521.1860088833
1433.7381681761835 4266.151693716964
1434.5366098288014 4486.177460835392
1435.3348568214424 4605.394972559808
1436.1329092070573 4320.981158935755
1436.9307670385879 4370.416024507769
1437.7284303689503 4549.64657298917
1438.5258992510335 4587.5038850980945
1439.3231737377118 4493.32469347973
1440.1202538818306 4392.869559801329
1440.9171397362225 4438.0098652962315
1441.7138313536925 4428.725709299932
1442.5103287870243 4331.714407403503
1443.3066320889775 4260.744038700566
1444.1027413122956 4627.245717500881
1444.8986565096966 4421.806174363737
1445.694377733882 4301.0551626737515
1446.4899050375207 4203.914369942024
1447.2852384732687 4319.793975543289
1448.0803780937622 4470.693179454775
1448.8753239516063 4225.056667722698
1449.6700760993954 4075.4777824112525
1450.464634589689 4234.675794442831
1451.2589994750397 4608.339040391046
1452.0531708079689 4130.339980075101
1452.8471486409799 4122.389545796806
1453.6409330265524 4501.225557370175
1454.4345240171442 4243.824920641303
1455.2279216651987 4146.204929444708
1456.0211260231263 4141.625086362017
1456.8141371433194 4324.692938396465
1457.6069550781594 4363.795370938411
1458.3995798799897 4026.088689723395
1459.1920116011424 4058.154557642084
1459.98425029393 3985.1464264867195
1460.7762960106338 4079.3660047930925
1461.5681488035225 4176.564488187066
1462.3598087248392 4141.680136811059
1463.1512758268036 4390.314129299916
1463.942550161617 4068.6357764154245
1464.7336317814625 4013.614438745545
1465.524520738496 4211.8052233847075
1466.3152170848552 4075.0537635074834
1467.1057208726506 4104.651217773564
1467.8960321539817 3959.374095451971
1468.6861509809169 3958.29817831281
1469.4760774055085 4017.9196473552956
1470.265811479785 4127.17651768707
1471.055353255755 3848.3946021678375
1471.844702785409 3946.826163813973
1472.6338601207044 3869.9636805288187
1473.4228253135934 4176.342828401468
1474.2115984159936 3811.5845127635685
1475.0001794798063 3712.8080421950167
1475.7885685569145 4116.201258088623
1476.576765699172 3960.8875432711284
1477.3647709584238 3918.460827262006
1478.1525843864802 4130.428068083274
1478.9402060351367 4056.5973079633904
1479.7276359561693 4212.503960878467
1480.514874201328 3869.0105844024656
1481.3019208223468 3895.820310416884
1482.0887758709323 3662.582875536292
1482.8754393987747 4017.247901553067
1483.6619114575406 3799.2174679471646
1484.4481920988783 3945.554966059165
1485.2342813744108 4062.5649968742896
1486.0201793357446 4199.378931407735
1486.8058860344572 3867.6184593773132
1487.591401522117 3899.1376971287646
1488.3767258502594 3863.1179233558787
1489.1618590704056 3974.977562160902
1489.9468012340494 3644.252857661183
1490.7315523926754 4030.8681064125694
1491.5161125977356 4070.403618576062
1492.3004819006637 3997.3612187648905
1493.084660352877 3810.3338588242104
1493.8686480057622 4045.1256907293136
1494.6524449106964 4184.100078225226
1495.4360511190262 4185.918062338617
1496.219466682087 4029.47298574015
1497.0026916511779 4020.4390406583434
1497.7857260775945 4023.350649266875
1498.5685700125996 4114.200299557047
1499.3512235074395 3822.6572647681155
1500.133686613337 3854.841438485183
1500.9159593814966 3902.719986854132
1501.698041863101 4488.705558052252
1502.4799341093094 3711.6174487718736
1503.2616361712662 3682.5062026261303
1504.043148100087 4038.2486888608387
1504.8244699468742 4050.7341929132926
1505.6056017626997 3760.041047516126
1506.3865435986281 3794.4582615896675
1507.1672955056893 4045.697558253185
1507.9478575348967 3810.7783277784606
1508.7282297372512 4039.069573850195
1509.5084121637192 3963.293200536859
1510.2884048652577 3932.569839881744
1511.0682078927948 3848.0593693752053
1511.8478212972423 3802.435474087405
1512.6272451294917 3753.270268120971
1513.4064794404076 3922.9426452132893
1514.1855242808433 4025.601145264085
1514.9643797016215 3971.2695813325467
1515.743045753552 4079.844381369009
1516.5215224874191 4006.6575892605374
1517.2998099539836 3730.2753402273497
1518.077908203999 3919.2119271016686
1518.8558172881785 3844.170480548638
1519.633537257234 3979.088367237484
1520.4110681618404 3952.6988581474952
1521.1884100526604 3954.528951926047
1521.9655629803365 3855.5840320284087
1522.7425269954856 4062.3430374853415
1523.5193021487103 4197.750662835732
1524.2958884905856 3797.2104994974725
1525.0722860716687 3800.0313047793716
1525.848494942502 3769.660568450939
1526.624515153595 3844.171063477831
1527.4003467554485 3891.0985390528485
1528.175989798534 4043.8206855884882
1528.9514443333064 4041.052711457209
1529.726710410203 4240.176716799131
1530.5017880796331 3766.751414710314
1531.276677391992 3861.0406246388548
1532.0513783976457 4068.266319566433
1532.825891146953 3936.1514149345066
1533.6002156902414 3940.291497784343
1534.3743520778207 3971.587653517924
1535.1483003599806 4017.7773934390448
1535.9220605869923 4067.219158662886
1536.6956328091019 4015.98816661828
1537.4690170765407 3857.746141709255
1538.242213439511 4067.7858395337353
1539.015221948208 3938.9224726486755
1539.78804265279 3859.006834673216
1540.560675603405 3809.408881560515
1541.3331208501804 4144.644160227921
1542.1053784432224 4200.038930415407
1542.8774484326168 3978.697823744295
1543.649330868422 4023.0727034276524
1544.4210258006842 4059.3444231615767
1545.1925332794308 3909.7612203440403
1545.9638533546604 3965.69467477343
1546.7349860763552 3889.4754005514565
1547.5059314944829 4334.613684466868
1548.27668965898 3987.33035871847
1549.0472606197673 3997.443147910263
1549.817644426752 3853.239336394117
1550.5878411298072 4115.704971423031
1551.3578507787988 4086.2405058628565
1552.1276734235635 3878.600138266041
1552.8973091139233 4019.487584676595
1553.6667578996767 4084.3643781453648
1554.436019830604 3948.6902304070077
1555.20509495646 3960.4676988589467
1555.9739833269869 3831.128619904878
1556.7426849919011 3930.973604868831
1557.511200000903 4266.805829917869
1558.2795284036674 4033.3215351351455
1559.0476702498509 3969.8891450570254
1559.8156255890954 4207.007158925027
1560.5833944710157 4372.849527142504
1561.3509769452048 3907.888402098517
1562.1183730612447 4106.171755906457
1562.8855828686865 4030.9513411085513
1563.6526064170703 4368.568729249441
1564.4194437559127 4246.86649322186
1565.1860949347047 3908.7031890429034
1565.9525600029283 4369.027570267747
1566.7188390100328 4405.578471486193
1567.4849320054564 3938.1896402074767
1568.250839038612 3967.5213297990063
1569.0165601588997 4033.207768458834
1569.7820954156887 4194.38182379864
1570.5474448583373 3988.80418695665
1571.31260853618 4007.758313776594
1572.0775864985299 3839.511610311126
1572.8423787946813 4056.0244411683766
1573.6069854739108 3939.995630374267
1574.371406585471 4066.5160209775
1575.1356421785986 4169.783619974593
1575.899692302506 3968.1230075591593
1576.6635570063845 4154.542226057099
1577.4272363394157 3982.984948081207
1578.190730350747 3844.9443073419216
1578.9540390895163 4028.0330804530786
1579.7171626048384 3670.4769025462365
1580.480100945806 3764.179643350063
1581.2428541614918 3907.856952922028
1582.0054223009538 4001.0696956187066
1582.767805413223 3879.7662452220793
1583.5300035473156 3923.808002037754
1584.292016752228 4132.352629861039
1585.0538450769309 4083.815665873728
1585.8154885703807 3771.32031693835
1586.5769472815136 3689.029022638777
1587.3382212592405 3943.593918445571
1588.099310552463 4191.999568439057
1588.8602152100484 3846.2276568723546
1589.6209352808564 4079.8845118423014
1590.3814708137234 3971.526505916151
1591.14182185746 4249.654386019404
1591.9019884608679 3820.792443691536
1592.6619706727215 3661.2841660528293
1593.4217685417734 3940.312495806844
1594.1813821167616 4126.034206714882
1594.9408114464022 3729.4865134814854
1595.7000565793933 3867.7311595987508
1596.459117564409 4109.842659256006
1597.2179944501113 3809.735042317072
1597.9766872851324 3904.8134828635143
1598.735196118092 4039.23026475418
1599.4935209975883 4089.294745351657
1600.2516619721973 4159.553374332982
1601.0096190904787 3940.2320434524618
1601.7673924009723 3782.362969151117
1602.524981952196 3879.3715920633595
1603.2823877926476 3895.280627370453
1604.0396099708087 3701.3446622874135
1604.7966485351371 3725.3841820733237
1605.5535035340745 3930.5735542748944
1606.3101750160404 4171.227227910429
1607.0666630294363 3679.9429027193173
1607.822967622642 3612.013614906773
1608.5790888440224 3835.884305808105
1609.3350267419137 4015.7051879523233
1610.0907813646445 3820.9281026035287
1610.8463527605145 3803.727152487178
1611.601740977805 3922.8749704749594
1612.356946064785 3859.860969415472
1613.1119680696902 3548.979674870504
1613.8668070407512 3752.475491107512
1614.6214630261748 3718.2449877061053
1615.375936074137 3948.1605636819636
1616.1302262328118 3841.5062925995744
1616.8843335503425 3774.2537961959765
1617.638258074854 3577.9864944577203
1618.391999854457 3798.3595625452967
1619.1455589372363 3938.988555783726
1619.8989353712623 3809.910454280798
1620.65212920458 3570.252987495889
1621.4051404852235 3679.7274246753595
1622.1579692611976 3778.433702711077
1622.9106155804966 3582.2516447024886
1623.663079491087 3659.0264015660623
1624.4153610409248 3802.9484540194208
1625.1674602779385 3542.933823015216
1625.9193772500403 3530.2850381999697
1626.6711120051277 3948.9203953496813
1627.4226645910676 3678.505028656686
1628.174035055721 3608.4687911073866
1628.9252234469168 3786.1109236526027
1629.676229812474 3580.518613740462
1630.4270542001905 3981.3841399226576
1631.1776966578382 3796.8509035551833
1631.9281572331747 3732.5924007676417
1632.678435973945 3873.140943392652
1633.4285329278573 3823.5639772733493
1634.1784481426203 3548.643992173895
1634.9281816659113 3679.4150149347633
1635.677733545388 3936.5020278806924
1636.4271038286934 3602.324263795269
1637.176292563452 3876.886726970618
1637.9252997972635 3709.1707009346983
1638.674125577716 3880.702722463946
1639.4227699523672 4113.076411282176
1640.171232968767 3528.4209010510663
1640.9195146744423 3773.536922809372
1641.6676151168977 4034.888598315515
1642.4155343436178 4124.6661542514985
1643.1632724020765 3859.893695248793
1643.9108293397167 3819.432411101585
1644.658205203974 3664.7941678479883
1645.4054000422566 4470.587404624733
1646.1524139019566 3788.4342600432856
1646.8992468304423 3655.3921780936407
1647.6458988750728 3895.603263940737
1648.3923700831765 3863.3310107191246
1649.1386605020743 3850.5945474128685
1649.8847701790564 4072.467790596546
1650.6306991614038 3945.012023704253
1651.3764474963682 4190.115269006443
1652.1220152311944 3660.8063497391586
1652.867402413096 4034.2078843993886
1653.6126090892776 3957.3934194595363
1654.3576353069184 4200.746249792998
1655.1024811131829 3929.4866682780057
1655.8471465552066 3843.651986771828
1656.5916316801213 4186.292124327803
1657.3359365350298 4086.352745186135
1658.0800611670165 3864.279950245474
1658.824005623148 3961.4570745678875
1659.5677699504722 3788.148923611955
1660.3113541960192 3927.864186084216
1661.054758406799 3827.187920003665
1661.7979826297997 3792.9313430809707
1662.5410269119966 3706.3622500026745
1663.283891300338 3946.3753617621232
1664.0265758417645 3752.840928530004
1664.7690805831826 3908.9915860679125
1665.5114055714948 3937.9671004545953
1666.2535508535748 4265.439338928543
1666.9955164762814 3510.616728205954
1667.7373024864555 3687.3588589231485
1668.478908930916 3874.7336172995556
1669.220335856462 3713.410229194999
1669.9615833098778 3671.780382190426
1670.7026513379296 3570.2789374817744
1671.44353998736 3712.0225695296713
1672.1842493048916 3781.475896531708
1672.9247793372379 3634.6678486837736
1673.6651301310812 3788.9090910288846
1674.4053017330934 3633.9667124862053
1675.1452941899242 3716.2029308854558
1675.885107548207 3188.604687915012
1676.6247418545518 3353.0091067435337
1677.3641971555535 3448.8310402143206
1678.1034734977893 3724.68319134095
1678.8425709278108 3537.626239274493
1679.5814894921605 3876.0088580825204
1680.320229237359 3611.3154383660476
1681.0587902098978 3672.7632527287956
1681.7971724562685 3355.4183577170324
1682.5353760229264 3401.4541105448093
1683.2734009563173 3552.0681748913203
1684.0112473028657 3365.255726249566
1684.7489151089794 3452.584042765692
1685.4864044210462 3559.6221054640437
1686.2237152854377 3093.023333284144
1686.960847748498 3587.3128669594576
1687.6978018565642 3200.7408176477957
1688.434577655944 3215.118560136883
1689.1711751929379 3137.5250542087297
1689.9075945138156 3339.337717294886
1690.6438356648396 3225.423159828668
1691.3798986922448 2964.3073578241924
1692.1157836422499 3169.9138448482545
1692.851490561059 3160.0142182144386
1693.587019494853 3152.0358761377465
1694.3223704897991 2968.7453165455145
1695.0575435920364 2821.530787151408
1695.792538847696 3432.722027174042
1696.527356302886 3009.917886718145
1697.2619960036936 2911.2051530008143
1697.9964579961907 2857.7763838505316
1698.730742326432 2562.1787557092675
1699.4648490404488 2726.786539299175
1700.1987781842563 2871.8533780357548
1700.9325298038548 3088.2354822716197
1701.6661039452174 3186.1350330737587
1702.3995006543082 3012.763564032183
1703.1327199770658 3067.643316010678
1703.865761959416 2734.78159975395
1704.598626647261 3183.2427376472688
1705.3313140864866 2818.622980712141
1706.0638243229587 2846.0937856433648
1706.7961574025303 2995.307737993032
1707.528313371029 2879.1151571740493
1708.260292274268 2674.7306621451753
1708.9920941580403 2909.589670198896
1709.7237190681226 2936.019594843673
1710.4551670502697 2906.0388798641598
1711.18643815022 2490.8359255019413
1711.9175324136959 2658.1885678938825
1712.6484498863938 2825.7915474113483
1713.379190614005 2543.487117619581
1714.109754642188 2787.280412479466
1714.8401420165883 2742.674015075115
1715.570352782839 3084.072002635141
1716.3003869865497 2818.929235158592
1717.0302446733076 2579.4267247885005
1717.7599258886876 2765.1661900973527
1718.4894306782444 3154.149598082208
1719.2187590875183 2637.81020062572
1719.9479111620203 2981.6602990071337
1720.6768869472544 2587.682749912962
1721.4056864887025 3058.6305264204357
1722.1343098318284 3011.0663188756157
1722.8627570220742 2718.909528954629
1723.591028104871 2551.5874091136434
1724.3191231256242 2586.7636852180904
1725.0470421297232 2715.837864625601
1725.7747851625427 2832.1153807937053
1726.5023522694337 2886.5770967420194
1727.2297434957363 2803.03691519182
1727.9569588867635 2528.5853371108687
1728.6839984878152 2786.2315289903236
1729.4108623441734 2369.7575880387703
1730.1375505011038 2837.0929303054263
1730.8640630038426 2505.327927106959
1731.5903998976264 2504.5982353918926
1732.316561227657 2787.3229147994657
1733.0425470391274 2516.9082992189296
1733.7683573772065 2788.5440272603005
1734.4939922870508 2641.4837955635858
1735.2194518137949 2682.629310366324
1735.9447360025606 2773.9804274601242
1736.669844898439 2629.0172673155853
1737.3947785465189 2488.897221619929
1738.1195369918605 2363.5698213850424
1738.8441202795093 2731.5866754242534
1739.5685284544943 2677.7424950810932
1740.292761561821 2750.710212935773
1741.0168196464838 2759.3072356354105
1741.7407027534518 2778.585893759393
1742.464410927687 2748.828765703022
1743.187944214118 2529.5967557067534
1743.9113026576688 2651.879909848798
1744.634486303241 2590.8697182949422
1745.3574951957125 2558.398053597572
1746.0803293799509 2776.9596757022846
1746.8029889008048 2615.4836810753523
1747.5254738031017 2776.9190156000045
1748.2477841316504 2460.1115737221153
1748.969919931249 2566.904153224404
1749.6918812466665 2485.9390508757688
1750.4136681226646 2671.9488660465618
1751.1352806039777 2583.220139986651
1751.856718735331 2322.13763352395
1752.5779825614281 2401.567557644991
1753.2990721269507 2691.2123058953853
1754.0199874765676 2702.841195820898
1754.7407286549314 2390.2312772598407
1755.4612957066693 2493.435299916944
1756.1816886763954 2424.033351371242
1756.9019076087097 2624.676817246262
1757.6219525481865 2711.1296913026576
1758.3418235393856 2555.519062955573
1759.061520626854 2536.5458410199344
1759.7810438551096 2848.0325031039324
1760.5003932686614 2556.92587929808
1761.2195689119999 2751.791298006874
1761.938570829594 2578.167220751203
1762.657399065898 2562.3108811820216
1763.376053665348 2332.9455426041723
1764.0945346723602 2388.0271823357407
1764.812842131334 2746.2482919051154
1765.5309760866512 2390.316656238403
1766.2489365826787 2390.110738874976
1766.9667236637597 2503.6096965485367
1767.684337374223 2219.4795004805246
1768.401777758383 2284.2263219742863
1769.1190448605284 2353.15378742055
1769.836138724937 2359.725557485379
1770.5530593958665 2495.632666600568
1771.2698069175603 2883.5323621431016
1771.9863813342326 2583.92296758266
1772.702782690094 2444.261501187687
1773.4190110293293 2701.598113550618
1774.1350663961111 2624.362636622449
1774.8509488345844 2352.0742404419457
1775.5666583888924 2559.8653543937608
1776.2821951031437 2698.310704394094
1776.9975590214362 2541.0359353353792
1777.7127501878585 2607.6194344609958
1778.4277686464684 2494.224116564647
1779.1426144413108 2701.3548944711183
1779.8572876164162 2653.940805419108
1780.571788215797 2283.8810247851075
1781.2861162834415 2436.362490573968
1782.0002718633277 2480.615684625345
1782.7142549994132 2542.659683405452
1783.4280657356376 2629.7172107187885
1784.141704115922 2388.458305027374
1784.855170184177 2466.320634280356
1785.5684639842839 2531.2164019564816
1786.2815855601148 2119.876622593497
1786.9945349555237 2504.906523683928
1787.707312214343 2320.54913574074
1788.4199173803918 2322.041316580536
1789.132350497468 2323.738000216107
1789.8446116093583 2375.579664510359
1790.556700759822 2277.33419373467
1791.2686179926077 2383.203845359661
1791.9803633514493 2392.4140246757247
1792.6919368800554 2267.8706333494733
1793.4033386221236 2568.359380071355
1794.1145686213295 2473.0482910207984
1794.8256269213307 2726.0278607959913
1795.536513565774 2514.3037194740746
1796.247228598284 2202.9211681644747
1796.9577720624693 2286.4619607200466
1797.6681440019165 2471.197068133359
1798.3783444602013 2489.284616034582
1799.0883734808776 2626.6641375443915
1799.7982311074884 2525.2148778023193
1800.5079173835475 2424.2596870434927
1801.2174323525633 2555.7108750707785
1801.9267760580187 2283.3727152227907
1802.635948543386 2529.528842028395
1803.3449498521113 2212.7790606390417
1804.0537800276325 2506.2404733124595
1804.7624391133668 2503.6464105689456
1805.47092715271 2080.2083010575607
1806.1792441890484 2248.197004336891
1806.8873902657433 2519.337390579305
1807.5953654261448 2301.9479834411695
1808.3031697135812 2189.7891574532373
1809.0108031713662 2292.78457379642
1809.71826584279 2327.655601577397
1810.425557771141 2363.319843793912
1811.1326789996747 2355.586453081621
1811.839629571632 2347.715111900897
1812.5464095302468 2408.9202582888165
1813.2530189187182 2332.4290113611255
1813.959457780249 2287.518656856235
1814.6657261580076 2519.7421230159594
1815.371824095153 2382.140409377055
1816.0777516348262 2561.1855098960023
1816.78350882015 2040.6935435067303
1817.4890956942272 2107.808935175127
1818.1945123001533 2370.0650418802843
1818.8997586809928 2337.891788148273
1819.6048348798067 2237.8228962126805
1820.3097409396287 2287.660144378708
1821.0144769034796 2794.581449466132
1821.7190428143622 2532.3685602481123
1822.423438715261 2568.631955851671
1823.1276646491478 2263.00015850386
1823.8317206589727 2411.4971110773995
1824.5356067876692 2371.7786100150593
1825.2393230781581 2299.2073032059848
1825.942869573335 2047.529461035625
1826.646246316086 2163.993720966681
1827.3494533492758 2315.8454503601033
1828.052490715756 2436.685608054652
1828.7553584583547 2507.1636825898795
1829.458056619891 2522.2071586673155
1830.1605852431585 2294.888988670224
1830.8629443709433 2099.5133340060047
1831.5651340460063 2247.849999887004
1832.2671543110919 2134.283179765773
1832.9690052089318 2428.945734275929
1833.6706867822395 2093.7093845604677
1834.3721990737104 2370.519447600041
1835.0735421260233 2494.2335098849953
1835.774715981841 2252.2431900168494
1836.4757206838058 2638.7983470311747
1837.1765562745459 2248.2559810743555
1837.8772227966747 2047.475667459489
1838.5777202927839 2354.9963669003205
1839.2780488054523 2048.8955943490932
1839.9782083772352 2122.4787323661194
1840.6781990506806 2177.184081273187
1841.378020868313 2231.9122066314685
1842.0776738726418 2339.353352084975
1842.777158106157 2201.9992911156282
1843.4764736113375 2176.5328893276196
1844.1756204306403 2393.2157474196983
1844.8745986065078 2382.2130079385124
1845.5734081813607 2106.9277855249356
1846.2720491976124 2262.114097650394
1846.970521697649 2117.166114770008
1847.6688257238511 2294.5212469517787
1848.3669613185684 2210.4872535123113
1849.0649285241452 1947.9071667068256
1849.7627273829057 2286.104633219022
1850.460357937156 2273.3157956046266
1851.1578202291857 1944.803038968405
1851.8551143012664 2261.026797530826
1852.5522401956569 2174.656629918973
1853.2491979545957 2426.2694880536264
1853.9459876203055 2127.2277971291815
1854.6426092349902 2136.7964732025407
1855.3390628408451 2061.309177494127
1856.0353484800362 2599.3357582155904
1856.7314661947203 2356.0713559937612
1857.4274160270397 2055.482468992869
1858.123198019115 2224.0061490308863
1858.8188122130487 2063.068796684629
1859.5142586509319 2349.6397538826086
1860.209537374838 2170.313399032574
1860.9046484268183 2151.162286228518
1861.599591848917 2516.524725346405
1862.294367683151 2165.6867889734503
1862.988975971528 2278.542813809023
1863.6834167560355 2337.5939866370145
1864.3776900786452 2434.1470137238944
1865.0717959813119 2161.43009627585
1865.7657345059724 2106.316936242215
1866.4595056945564 2187.287068084722
1867.1531095889586 2380.2250410273423
1867.846546231076 1975.8011386414983
1868.5398156627743 2382.44037961623
1869.2329179259123 2194.5296719995154
1869.9258530623283 2454.886550439337
1870.618621113843 2118.4697388666796
1871.3112221222636 2009.6100291854013
1872.0036561293764 2085.8334251142724
1872.695923176956 2308.9118477401134
1873.3880233067594 2392.4446077147304
1874.0799565605212 1965.5512313150866
1874.7717229799673 2124.7543986327173
1875.4633226068036 2322.156891072886
1876.1547554827175 2460.801260127267
1876.8460216493859 2114.8714580728547
1877.5371211484617 2121.014238750282
1878.2280540215852 2364.2004852859914
1878.9188203103804 1906.6474263694752
1879.6094200564548 2269.592288869574
1880.299853301396 2062.1037446723117
1880.9901200867826 2399.0521888904436
1881.6802204541673 2302.2844269857987
1882.3701544450942 2301.3027933508283
1883.059922101087 1905.473286196228
1883.7495234636517 2399.776623633549
1884.4389585742792 2168.1214123718173
1885.1282274744517 2025.2274929736795
1885.8173302056166 2160.321021586152
1886.506266809225 2295.5982001123584
1887.195037326701 1998.0584884782645
1887.8836417994517 2142.406897510303
1888.5720802688702 2506.9600923618236
1889.260352776333 2369.245432033647
1889.9484593632042 2415.843258408938
1890.63640007082 2158.7647604931176
1891.3241749405151 1973.9615835452216
1892.0117840135954 2299.641031087408
1892.6992273313572 2180.276807969033
1893.3865049350788 2020.2378366385256
1894.0736168660223 2101.507738387002
1894.7605631654333 2182.830723117916
1895.4473438745408 1915.855306295341
1896.133959034556 2050.615231301193
1896.820408686679 2185.45186935423
1897.506692872088 2477.4863982963393
1898.192811631945 2196.134457553647
1898.8787650073991 2069.9615092350623
1899.5645530395832 2326.317133343685
1900.2501757696118 2258.1871388656155
1900.9356332385796 1960.0453501642041
1901.620925487574 2474.763999082494
1902.3060525576602 2307.3183877572874
1902.9910144898859 2238.71989761828
1903.6758113252872 2033.7381797224377
1904.3604431048789 2256.18634427648
1905.0449098696663 2270.516652653596
1905.7292116606295 2058.6735890671525
1906.4133485187394 2267.3314146310663
1907.0973204849488 1847.4493686330243
1907.7811276001976 1972.0565613423291
1908.4647699053967 2166.482680794447
1909.1482474414588 1691.7897389574161
1909.8315602492694 2032.0961807506046
1910.5147083696957 2411.5001250499595
1911.1976918436012 2067.7970061499786
1911.880510711815 2015.1356401211851
1912.5631650151681 2402.4954636284224
1913.2456547944657 2085.3671642803542
1913.927980090495 2065.6302166070714
1914.6101409440362 2066.1702608635505
1915.2921373958416 2210.8007030790222
1915.9739694866603 2165.292190255738
1916.655637257214 2424.0421876421274
1917.3371407482136 2134.318171095754
1918.0184800003572 2315.623473290872
1918.6996550543154 2263.541568879902
1919.3806659507554 2187.171203496061
1920.0615127303208 2151.425963492968
1920.7421954336423 2330.0653742844643
1921.4227141013343 2389.8747817764506
1922.103068773993 2167.0719422610578
1922.783259492202 2318.0098828089344
1923.4632862965227 2155.5310632508704
1924.1431492275078 2071.194833119749
1924.8228483256917 1921.6180988894564
1925.5023836315922 2051.7214212180975
1926.1817551857057 1816.221087589712
1926.8609630285227 2358.5486088562416
1927.5400072005123 2253.9761257057994
1928.218887742125 2058.5696108582556
1928.8976046938005 2009.98372324361
1929.5761580959588 2139.5883408155705
1930.2545479890086 2190.765084013129
1930.9327744133352 1927.3446218749698
1931.6108374093164 2137.5589201820994
1932.2887370173066 2465.0797196177327
1932.9664732776473 2344.8728906159863
1933.6440462306673 2224.3048274420244
1934.3214559166754 2069.8281477005808
1934.9987023759659 2461.8461514601345
1935.675785648813 2346.960873192179
1936.3527057754836 1805.1634618783623
1937.029462796223 2484.7564463533686
1937.70605675126 1911.628295740993
1938.3824876808085 1779.6161901715107
1939.058755625072 2005.4104533508914
1939.7348606242267 2069.674764486254
1940.4108027184448 2136.9655253984506
1941.0865819478713 2214.9198800966933
1941.7621983526478 2035.694168241142
1942.4376519728921 1956.6030872778715
1943.1129428487038 2044.1381957844817
1943.7880710201734 2190.37570382004
1944.4630365273733 2241.7363683538288
1945.1378394103576 1848.7167797673676
1945.8124797091714 1844.805066476847
1946.4869574638324 1840.821069627579
1947.161272714353 1960.2636705196703
1947.8354255007234 2243.0748331297136
1948.5094158629272 2057.600783483703
1949.1832438409183 2171.6656841068584
1949.8569094746435 2267.5323668653778
1950.530412804037 2321.8921602927717
1951.2037538690092 2266.7337215988937
1951.8769327094578 2069.704598211638
1952.5499493652678 1958.7582933273643
1953.222803876306 2300.7098806616177
1953.895496282421 2189.583721504236
1954.5680266234522 2140.5067573447955
1955.2403949392155 2214.0627352105694
1955.9126012695142 1766.9021941968392
1956.5846456541403 2096.866579268484
1957.2565281328643 1985.9345973242393
1957.9282487454457 2283.3422557291933
1958.5998075316202 2276.189065273823
1959.27120453112 1996.1060862167992
1959.9424397836501 2112.2745637924136
1960.613513328908 2194.3536201607585
1961.2844252065697 2383.465850633979
1961.9551754563017 1824.783091583356
1962.6257641177453 1973.4759009480313
1963.29619123054 1869.6392383697669
1963.966456834296 2003.6186957883328
1964.6365609686181 1813.864807686173
1965.306503673086 2142.822701486756
1965.976284987275 1984.343209367001
1966.645904950734 2000.1356841972743
1967.315363603002 1759.4361984164993
1967.9846609836077 2032.519537626223
1968.6537971320486 2022.4273146152925
1969.3227720878222 2138.6296840796363
1969.9915858904042 2097.8187189148457
1970.660238579252 2195.3508784715827
1971.3287301938108 1971.8421364989536
1971.997060773514 1992.5920634500767
1972.665230357772 1867.1539205671677
1973.3332389859843 1785.3332650220812
1974.0010866975335 1876.9847600045782
1974.6687735317864 2140.4895355163007
1975.3362995280932 2099.6602308553033
1976.003664725793 2157.0384776635365
1976.6708691642052 1828.538690614354
1977.3379128826364 1990.9767321199538
1978.004795920373 2333.7083306207214
1978.6715183166925 2394.817789259244
1979.3380801108524 2172.8986501090058
1980.0044813420973 1950.7816615163647
1980.6707220496555 1633.6830200066227
1981.3368022727373 1987.4497726956633
1982.0027220505417 2156.0048087500063
1982.66848142225 1647.683485888046
1983.3340804270283 1827.5226243082548
1983.999519104027 1969.6923014483514
1984.6647974923835 2140.2705236593015
1985.329915631215 2179.583714188616
1985.99487355963 1918.2771777132816
1986.6596713167146 2286.3876920760567
1987.3243089415428 1902.6302201941817
1987.9887864731754 2369.028020888346
1988.6531039506553 1793.8869753146378
1989.3172614130071 2479.101189869873
1989.9812588992481 1861.6721139208428
1990.645096448372 1611.4273547008393
1991.3087740993633 2054.3667215380983
1991.9722918911848 1860.6538895212132
1992.635649862792 2092.669429296151
1993.2988480531185 2139.3450438237433
1993.9618865010852 2405.7289874148455
1994.6247652455968 1870.9949596239417
1995.287484325545 1883.2148293192906
1995.9500437798033 1901.6724318782599
1996.6124436472292 1869.2020619833347
1997.2746839666706 1870.427508014187
1997.936764776954 1871.6730301517332
1998.598686116895 1863.677584447499
1999.2604480252903 2350.073768503592
1999.9220505409212 2265.462430381614
2000.5834937025593 1791.9025342361606
2001.2447775489582 2043.82278812658
2001.9059021188514 2153.91437847692
2002.5668674509616 1987.6990300677164
2003.2276735839987 2027.4105101117195
2003.8883205566508 2204.385059163142
2004.5488084075987 1858.70404273525
2005.2091371755014 2029.5497252296675
2005.8693068990033 1786.836177133405
2006.5293176167397 1752.031961289195
2007.1891693673224 1717.326610917506
2007.848862189354 1751.1863509611928
2008.5083961214223 1895.362408055639
2009.1677712020955 1828.9126669708755
2009.8269874699254 1796.7828304141942
2010.4860449634598 2287.975424447357
2011.1449437212177 2334.8818185911723
2011.8036837817108 2382.0420987360976
2012.4622651834325 2219.055463158
2013.1206879648653 1989.6338969478584
2013.7789521644736 1869.2895947409102
2014.4370578207036 1748.5903104096712
2015.0950049719922 1948.1823336442649
2015.7527936567585 2190.515212557112
2016.4104239134067 2019.437966745254
2017.067895780323 2478.2256339917394
2017.725209295886 2373.6577373911064
2018.3823644984514 2268.7408580651095
2019.0393614263648 1974.4275714295097
2019.6962001179545 1951.5701390839727
2020.3528806115355 2141.652495519032
2021.0094029454067 1972.8574168637715
2021.6657671578487 1742.7612357273024
2022.321973287133 1963.3938708625374
2022.9780213715148 1925.5620380674566
2023.6339114492293 1844.8200031487881
2024.2896435585026 1891.7843822473078
2024.9452177375442 1802.3324641809163
2025.600634024544 2251.616843064593
2026.2558924576842 2149.6434464771114
2026.9109930751292 2196.6104078033745
2027.565935915025 2238.8592926686247
2028.2207210155066 2281.225643791166
2028.8753484146964 2530.7834203530683
2029.529818150695 2402.6605449612503
2030.1841302615903 2273.9669380751207
2030.8382847854573 1818.6154860673378
2031.4922817603601 2030.1016940488648
2032.1461212243357 2020.6685850762383
2032.7998032154192 1585.4897402352196
2033.4533277716218 1895.5912383352031
2034.1066949309443 1798.4661834795727
2034.7599047313688 1770.286744783943
2035.4129572108704 2053.3957690291277
2036.0658524074006 2069.2616745145906
2036.7185903589016 1954.0147053140463
2037.3711711032956 2010.7539047125
2038.023594678496 1995.9806694401316
2038.675861122394 1765.8765965340876
2039.3279704728757 1777.7635679787254
2039.9799227678031 1789.8412312258981
2040.6317180450278 1812.0473937321065
2041.2833563423865 1829.9233925665444
2041.9348376977014 2349.2924961144777
2042.5861621487784 2145.132199031699
2043.2373297334088 2030.6094844792374
2043.8883404893695 1990.408647850582
2044.5391944544208 2058.2690663697367
2045.1898916663158 2273.6070164286803
2045.8404321627804 2308.9692696248785
2046.4908159815368 1847.1006914205202
2047.1410431602853 1891.937485569068
2047.7911137367173 1825.7347315072916
2048.441027748504 1862.5375556301399
2049.090785233302 1899.3065720281108
2049.7403862287592 1754.2379723631177
2050.389830772503 1753.9150674692082
2051.0391189021466 1753.6413355482255
2051.688250655294 2035.603006157608
2052.337226069527 1696.0178690334856
2052.986045182417 2062.972196050702
2053.634708031521 1591.4591095533854
2054.283214654375 2053.8609789809443
2054.931565088511 1622.3779620320397
2055.579759371436 1640.7334571698418
2056.2277975406523 1967.5934519174025
2056.8756796336384 1789.201206151162
2057.5234056878617 1610.3395766850715
2058.1709757407752 1751.4935161567137
2058.8183898298194 2216.4526899183497
2059.465647992416 2126.298145086672
2060.1127502659747 2107.331036331821
2060.759696687888 1817.4586912582708
2061.4064872955405 2023.924281805451
2062.053122126292 1747.100371157757
2062.699601217497 2037.7016745604792
2063.345924606485 1848.3175225235004
2063.992092330587 1873.8958815958927
2064.638104427102 1773.6071758849223
2065.283960933324 2169.409169833361
2065.92966188653 2034.026305244282
2066.5752073239855 2092.8462901062385
2067.2205972829397 1737.9530182984568
2067.86583180062 1954.799627314246
2068.5109109142522 2070.6020995979843
2069.15583466104 1878.053044432115
2069.8006030781708 1689.882031527352
2070.445216202821 1906.0001131395722
2071.089674072153 2182.7127659778653
2071.7339767233116 2122.122613523031
2072.3781241934303 1913.1747224270607
2073.0221165196253 2030.5291417446438
2073.6659537390024 1786.0388383160673
2074.3096358886505 2114.98734101001
2074.953163005637 1816.6847641489462
2075.596535127028 1592.4312130473213
2076.2397522898664 1636.9544367905505
2076.882814531182 1848.7925466080246
2077.5257218879924 1988.682372713121
2078.1684743973 1618.3094138517408
2078.8110720960885 1680.1433248162325
2079.453515021336 1802.88169858013
2080.095803209997 1925.7133145977666
2080.7379366990135 1856.6175274852303
2081.37991552532 1955.3425735785902
2082.0217397258275 2006.9574188520917
2082.6634093374414 1672.9142923029408
2083.3049243970418 1885.8254237401616
2083.9462849415067 2017.2652900163666
2084.587491007689 1996.762140870018
2085.2285426324324 1755.870614133782
2085.869439852564 1748.096983183356
2086.510182704902 1791.2493070714572
2087.1507712262483 2040.5174406062742
2087.791205453381 2043.9995052495592
2088.4314854230743 2047.44118741565
2089.0716111720867 1989.9382563175218
2089.7115827371617 1585.1120902785842
2090.351400155023 1632.3933706262237
2090.991063462385 1679.841652949242
2091.6305726959527 1679.1465818716897
2092.2699278924047 1657.5493338954595
2092.9091290884153 1635.9711494703602
2093.548176320641 1652.9366049124867
2094.187069625721 1924.9122293830703
2094.8258090402887 1709.2519492768345
2095.464394600951 2048.698872461939
2096.102826344313 1934.7919551676557
2096.741104306955 2061.459702574679
2097.379228525453 1623.927370460012
2098.017199036358 1533.9029317576967
2098.6550158762147 1785.4622154078522
2099.2926790815527 2037.5555287527495
2099.9301886888825 1782.2548088802887
2100.5675447347076 1813.7147316846263
2101.2047472555114 2117.4791562669907
2101.841796287761 1758.3200835748462
2102.47869186792 2010.4910005530826
2103.1154340324265 1743.1014878240708
2103.752022817709 1678.4281892908434
2104.388458260184 1677.8904452571473
2105.024740396251 1872.7626435794962
2105.660869262292 1668.5209541168304
2106.296844894685 1705.6543582329505
2106.93266732978 1742.914958169543
2107.5683366039284 1637.272165011155
2108.2038527534532 1982.014003749748
2108.8392158146726 2117.662875079375
2109.4744258238843 2046.449182854746
2110.1094828173755 1975.0829281478677
2110.744386831422 2270.3370974366953
2111.3791379022787 1889.7853690228808
2112.01373606619 2153.1502479250053
2112.648181359389 2088.2785168559008
2113.28247381809 2043.7790277832032
2113.916613478492 1872.9992364724894
2114.550600376786 1906.843737415751
2115.1844345491445 1837.3615022870538
2115.818116031729 1631.349572137074
2116.451644860679 1830.3587196774267
2117.085021072133 1513.9900180100183
2117.718244702204 1744.8306958509188
2118.3513157869984 1614.4855226508278
2118.984234362604 1626.8579555437684
2119.617000465092 1734.6109674716627
2120.249614130529 2009.0075036073456
2120.8820753949585 1805.9663474107977
2121.5143842944162 1770.6643884464822
2122.14654086492 1761.1960642842355
2122.7785451424734 1616.1174689187835
2123.4103971630702 1970.2989203404566
2124.042096962681 1818.7612636679278
2124.6736445772767 2028.305002385956
2125.305040042802 1703.848250715358
2125.936283395191 1807.5568889349918
2126.567374670365 1936.2107671342633
2127.198313904233 1722.8850823936914
2127.8291011326855 1656.534739403322
2128.4597363916037 1589.848724720086
2129.0902197168507 1802.5966833891005
2129.720551144279 1984.4231484098648
2130.3507307097225 2166.371330530026
2130.980758449008 2293.600851947404
2131.6106343979427 2182.751197636966
2132.2403585923203 2071.663730357453
2132.8699310679276 2062.7181165951806
2133.499351860526 1916.3856713852085
2134.1286210058715 1928.5592147103139
2134.7577385397053 2027.6600410110648
2135.3867044977487 2126.961227961624
2136.0155189157176 2247.1559555749054
2136.644181829308 2168.5637593584997
2137.2726932742025 1982.2252284012216
2137.901053286074 1753.6915427121392
2138.5292619005777 2020.641520425125
2139.1573191533535 1813.8766695117451
2139.7852250800315 1864.5495253049678
2140.4129797162295 1922.9022567208965
2141.0405830975433 1539.23024449763
2141.6680352595613 1610.6760849511757
2142.2953362378576 1682.2771427644493
2142.9224860679915 1671.2818822833083
2143.549484785508 1801.9069600544367
2144.1763324259373 1649.227916346555
2144.803029024799 1781.2911611425814
2145.429574617594 1635.7799113929398
2146.0559692398165 1580.0205180268824
2146.682212926942 1524.0434361450348
2147.308305714432 1752.5742014315524
2147.9342476377333 1899.8986151234974
2148.5600387322847 2033.3522525544527
2149.185679033506 1821.9404328646538
2149.8111685768017 1835.8966726568676
2150.4365073975678 1615.416108456284
2151.061695531187 1884.183866867387
2151.686733013021 1740.3683123027386
2152.311619878423 1994.7165743938735
2152.9363561627342 1776.6213061303438
2153.560941901278 1590.045191511519
2154.1853771293663 1872.3900441854416
2154.809661882293 1864.902593752436
2155.433796195348 2167.991852262153
2156.0577801037944 2080.490087263457
2156.681613642895 1992.692156959853
2157.3052968478896 1566.4307394529005
2157.928829754006 1920.8405353612645
2158.552212396462 1879.1317304189088
2159.1754448104566 1890.3198879479792
2159.7985270311783 1538.3403314475831
2160.4214590938027 1277.6284048862158
2161.0442410334927 1522.498381688349
2161.6668728853874 1521.2154424265286
2162.289354684628 1519.9988183896205
2162.911686466332 1750.3966185054846
2163.533868265602 1736.4264771245028
2164.1559001175337 1783.2846987440698
2164.7777820572046 1830.1454600244458
2165.399514119681 1642.0468780113983
2166.021096340013 1656.3108709843539
2166.6425287532384 1974.8844128146836
2167.263811394385 2005.850892259124
2167.8849442984574 2037.0377318843662
2168.505927500455 1750.993243062992
2169.126761035366 1756.9258812845576
2169.7474449381552 1821.8627896393732
2170.367979243778 1440.80496904682
2170.9883639871823 2044.3331657151607
2171.608599203293 1515.640729175141
2172.2286849270276 2268.1052815595085
2172.8486211932886 2468.5136603661854
2173.4684080369625 1899.857333491323
2174.0880454929265 1520.9776244378272
2174.7075335960417 1528.1547913678269
2175.3268723811543 1472.5286143990338
2175.9460618831 1416.784185032975
2176.565102136701 1690.4297399599914
2177.1839931767627 1721.8577515473994
2177.802735038078 1753.3935521907165
2178.421327755432 1564.0256389468427
2179.0397713635866 1522.087450087188
2179.658065897298 1658.8309802778974
2180.276211391305 1952.1835386221567
2180.8942078803357 1710.9876074191172
2181.5120553991 1873.6605147586554
2182.129753982299 1493.591487248826
2182.7473036646206 1808.0424469825289
2183.3647044807367 2004.9854560605286
2183.9819564653044 1621.1953827752611
2184.599059652968 1795.6142959422202
2185.216014078367 1894.9487526755875
2185.832819776113 1969.4997759935475
2186.4494767808137 2044.1150725970595
2187.065985127063 1575.2938327907648
2187.682344849436 1746.1854131080588
2188.298555982501 1720.6197992567527
2188.9146185608097 1694.9009847385146
2189.530532618901 1977.4183991252594
2190.1462981912937 1784.6321620489769
2190.761915312507 1893.6101647051194
2191.377384017036 1733.2446621397055
2191.9927043393654 1783.924842142141
2192.6078763139667 1459.5991031969015
2193.2228999753006 1604.4513151970605
2193.837775357808 1749.6243424238842
2194.452502495922 1409.305158244616
2195.0670814240602 1734.0164341160907
2195.6815121766285 1479.3533582044188
2196.2957947880186 1395.0562069553011
2196.9099292926057 1310.5937398533529
2197.523915724758 1833.2113812835328
2198.137754118825 1781.460935699834
2198.7514445091456 2187.283994791681
2199.3649869300443 2265.686006622417
2199.9783814158327 2344.366288621835
2200.5916280008096 2224.1214901823123
2201.2047267192593 1948.5105520486454
2201.8176776054515 1905.2054933631832
2202.430480693649 1625.7670019296856
2203.0431360180955 1923.998041576008
2203.6556436130195 1971.0783354264345
2204.268003512645 1821.097621140927
2204.8802157511727 1670.78683130551
2205.492280362796 2032.4791122810043
2206.1041973816937 1962.666880294272
2206.715966842032 1758.0408078125372
2207.3275887779655 1714.2028627049228
2207.93906322363 1660.2333517658965
2208.550390213153 1954.975111030195
2209.1615697806465 1973.8618119333955
2209.7726019602105 1532.7458750909648
2210.3834867859277 1450.547330615939
2210.9942242918787 1697.0428252771992
2211.6048145121167 1775.5196222944219
2212.2152574806914 2480.0474099606718
2212.825553231638 1782.6729109458738
2213.435701798975 2541.742824896198
2214.045703216707 1948.8114451115266
2214.655557518832 1356.7665483787564
2215.2652647393297 1370.7375312589288
2215.874824912169 1260.0469813597083
2216.4842380713 1736.0581258815405
2217.09350425067 1435.1963549683248
2217.7026234842033 2040.955614497064
2218.311595805819 2029.2611974651536
2218.9204212494133 1804.6765143705438
2219.52909984888 2186.9856660530413
2220.137631638092 2102.022911742554
2220.7460166509154 2016.750997511744
2221.354254921198 1562.7171595488949
2221.9623464827764 1902.878786030523
2222.5702913694713 1850.054846396423
2223.178089615096 2025.7564853806603
2223.7857412534486 1764.2712762812466
2224.39324631831 1417.2973909426073
2225.000604843457 1528.154410720004
2225.607816862641 1727.1674735433749
2226.214882409611 1926.4107375617532
2226.8218015180973 1930.7168709177774
2227.4285742218217 1843.7661263728507
2228.0352005544864 1881.0422016481116
2228.6416805497847 1775.6559674257016
2229.248014241399 1670.113105761166
2229.8542016629945 1482.5705311696488
2230.460242848223 1889.4381986963908
2231.0661378307304 1639.4983794022205
2231.671886644139 1389.3090307864427
2232.277489322065 1518.0282596381671
2232.8829458981127 1238.4235874347855
2233.48825640587 1745.4590110815777
2234.0934208789095 2323.036453505643
2234.6984393507955 2187.670390159283
2235.3033118550793 1966.174803570335
2235.9080384252975 1608.7703903099068
2236.5126190949723 1334.0996179390593
2237.1170538976166 1625.9032613408256
2237.721342866729 1407.903163811058
2238.32548603579 1666.6117694852717
2238.9294834382763 1707.501547379727
2239.533335107646 1774.815960413478
2240.1370410773434 1686.7286097585124
2240.740601380803 1714.4714412278518
2241.3440160514474 1739.3366504606481
2241.9472851226783 1901.018384429433
2242.550408627896 1556.7680953803697
2243.1533866004793 1506.5358282789177
2243.756219073799 1456.2431093649077
2244.3589060812064 1516.5369422969977
2244.961447656049 1544.4749622476866
2245.5638438316564 1695.1800141577983
2246.166094641343 1708.6195216319004
2246.7682001184166 1622.9063506428365
2247.3701602961664 1769.7846837526563
2247.971975207871 1813.0849454302152
2248.5736448867974 1954.4635800572153
2249.175169366197 1583.1261427354584
2249.7765486793123 1831.5141013460313
2250.3777828593684 1824.0563787186243
2250.9788719395783 1820.93582771619
2251.579815953146 1687.964777977369
2252.1806149332606 1401.0392067865203
2252.781268913097 1681.1204234607771
2253.381777925817 1836.770826093103
2253.9821420045737 1992.6149320043253
2254.5823611825035 1983.3885748588048
2255.1824354927303 1659.8475991429011
2255.782364968365 1544.8833511634991
2256.38214964251 1429.8081232199563
2256.9817895482483 1579.375431327572
2257.5812847186553 1634.6465705338355
2258.180635186791 1344.4993067395624
2258.779840985704 1532.0971819831286
2259.37890214843 1820.8942295903223
2259.97781870799 1814.228400321435
2260.5765906973957 1807.5655282764274
2261.175218149645 1868.036258786315
2261.773701097718 1982.9570920291833
2262.3720395745895 1544.7493840599502
2262.970233613216 1471.8810327340245
2263.568283246548 1600.214261726209
2264.1661885075137 1528.6682104672789
2264.763949429038 1412.9978305830289
2265.3615660440246 1427.6334818109208
2265.959038385374 1442.2959654989495
2266.5563664859637 1897.6727128968619
2267.153550378669 1555.4652266153585
2267.7505900963424 1923.5615561720188
2268.3474856718312 1492.6841739716676
2268.9442371379664 1552.0878728626635
2269.5408445275643 1611.6909261291162
2270.1373078734377 1545.4057582292376
2270.7336272083758 1478.9835025549926
2271.32980256516 1459.1112145413788
2271.925833976562 1745.7311547423687
2272.5217214753357 1571.0404537767938
2273.117465094223 1763.8233258603018
2273.7130648659586 1544.9325435170801
2274.308520823257 1668.0182008433926
2274.903832998827 1880.6847863529988
2275.4990014253563 1495.4798675861118
2276.094026135528 1495.356756750541
2276.6889071620117 1495.181954779217
2277.2836445374614 1850.5547130774564
2277.878238294519 1886.1106133634628
2278.472688465812 1650.6286037087975
2279.066995083962 1414.735239991959
2279.6611581815705 1735.2524597604618
2280.255177791232 1949.1850500800672
2280.8490539455233 2163.530375917974
2281.442786677013 2117.185589294571
2282.0363760182554 1728.5725997479817
2282.6298220017943 1671.1006691651369
2283.223124660155 2065.7937997507406
2283.816284025859 1409.3608051959714
2284.4093001314086 2039.2215238107215
2285.002173009292 1368.838554742708
2285.5949026919952 1874.8468120442121
2286.1874892119777 1619.818243648094
2286.7799326016993 1518.0017178908754
2287.3722328936 1415.8684490346755
2287.964390120109 1366.9173233142951
2288.556404313642 1823.2326075239866
2289.1482755066027 2125.7901320741935
2289.7400037313873 1706.3791084116904
2290.3315890203703 1524.6156227368192
2290.9230314059205 1588.2264326613165
2291.5143309203904 1651.9897694035317
2292.1054875961236 1653.4347618183583
2292.6965014654506 2134.9028356610006
2293.287372560684 1670.8990758999105
2293.878100914131 1548.0634037959492
2294.468686558086 1425.0152538329908
2295.059129524827 1650.8643846146006
2295.649429846617 1533.2454151849493
2296.239587555716 1415.3281665929123
2296.8296026843636 1684.8411358711714
2297.419475264791 1653.7180315133696
2298.0092053292137 1622.434337323208
2298.598792909839 1913.3911043342268
2299.1882380388597 2036.5615420148656
2299.777540748455 1733.5499191823951
2300.3667010707904 1838.8822417857677
2300.9557190380256 2138.363450674776
2301.544594682302 1861.027490602993
2302.1333280357503 1583.3642715375638
2302.721919130485 1693.5035627773257
2303.3103679986198 2123.845789046823
2303.898674672242 2069.0245941681196
2304.486839183437 1608.5535941556502
2305.0748615642697 1701.9483215769592
2305.6627418468015 1529.4564948172022
2306.2504800630704 1650.6927430894698
2306.8380762451143 1815.9164174270452
2307.425530424949 1842.2910312513836
2308.012842634582 1868.7118308051554
2308.6000129060103 2182.404785895151
2309.187041271214 1812.0464749193204
2309.773927762164 2045.1091167563277
2310.3606724108213 1797.5735056643557
2310.9472752491274 1336.7210776248507
2311.5337363090184 1486.1055970171944
2312.120055622414 1635.8721215883702
2312.706233221221 1649.36974616779
2313.2922691373424 1507.2237490452703
2313.8781634026564 1460.6791015849044
2314.463916049037 1413.9982917674592
2315.049527108342 1953.4410827948218
2315.6349966124235 2011.7269231783605
2316.2203245931123 1665.441876511649
2316.8055110822315 1867.014051867259
2317.3905561115935 1584.1244406828605
2317.9754597129977 1387.420117647153
2318.560221918229 1525.5785169087562
2319.1448427590603 1664.083820790318
2319.729322267256 1262.7681456163089
2320.313660474563 1490.3208652677863
2320.8978574127195 1784.2560801669617
2321.481913113452 2079.0581235503646
2322.0658276084705 1611.4608812088222
2322.6496009294806 1685.5854376993098
2323.233233108165 1662.8876839886675
2323.8167241762058 1678.6309718877026
2324.4000741652617 1890.6483461955518
2324.983283106987 1992.2214924001905
2325.5663510330232 2082.0869351981264
2326.1492779749933 1633.0931567790856
2326.7320639645204 1794.7846878888317
2327.3147090332004 1492.6510085701252
2327.897213212629 1657.4789394828845
2328.4795765343843 1822.4077015157957
2329.0617990300307 1299.5635127911985
2329.643880731124 1424.6889917675833
2330.22582166921 1550.0500079913031
2330.807621875816 2174.4949271648848
2331.3892813824623 1276.2084687261006
2331.9708002206517 1294.3409168399132
2332.5521784218818 1543.5682980909235
2333.133416017634 1793.3674493054518
2333.7145130393765 1541.6829204620872
2334.295469518571 1984.6056503302493
2334.876285486658 1945.8385115545466
2335.456960975076 1894.2091044494348
2336.037496015242 1842.4971007498177
2336.6178906385667 1651.2288850264868
2337.198144876451 1726.831241298008
2337.778258760278 1780.3213272568635
2338.3582323214214 1693.9659412418848
2338.938065591243 1607.367311171475
2339.517758601087 1865.6351210506327
2340.0973113822965 1765.9869139969044
2340.676723966193 1647.0896989320358
2341.255996384094 1821.4452650027165
2341.835128667295 1909.7210560747376
2342.4141208470883 1866.6763516547264
2342.992972954751 1702.3126899603435
2343.5716850215467 1398.0327067084497
2344.1502570787306 1093.103593312523
2344.7286891575386 1450.2199940583118
2345.3069812892045 2058.2378631436504
2345.885133504944 2012.897399918485
2346.4631458359618 1695.7137739157529
2347.04101831345 1416.3180334483068
2347.6187509685915 1530.5248988170315
2348.196343832553 1468.6486203070351
2348.7737969364935 1420.6652031588587
2349.351110311558 1372.651586203127
2349.9282839888765 1303.6432715245467
2350.5053179995757 1374.5235108624297
2351.0822123747585 1270.5407487567193
2351.658967145526 1325.8759472636086
2352.2355823429643 1381.3816946285745
2352.812057998144 1826.6555601420437
2353.3883941421263 1712.5051733108849
2353.9645908059647 1770.5293178854736
2354.540648020693 1469.6411805286327
2355.116565817336 1562.879988908067
2355.6923442269126 1637.818222005811
2356.2679832804224 1712.91089164203
2356.8434830088518 1698.836388185485
2357.41884344318 1619.1788491637476
2357.994064614377 1762.5073027908306
