#exp_cfg={"servo_angle": 0.0, "laser_lim": 100.0, "servo_angle_to": 18.0, "laser_wup": 0.0, "bt_dev": "EnSpectr-25AE3", "laser_wdn_max": 0.0, "frames": 10.0, "servo_used": 0, "servo_calib_use": 0, "laser_wdn_min": 0.0, "servo_pix_from": 90.0, "cooler_tout": 300.0, "servo_angle_from": 0.0, "servo_calib": "[-1.9174921013161362e-09, 3.9322238269163779e-05, -0.27385609119055809, 653.59552119713567]", "laser_autoctl": 0, "servo_pix_to": 3682.0, "laser_pw": 100.0, "cooler_on": 0, "laser_volt": 4.0, "cooler_autoctl": 0, "cooler_curr": 70.0, "cooler_startup": 10.0, "laser_fixed_pw": 0, "gain": 1.3, "offset": 2.53059635486, "servo_calib_degree": 3.0, "laser_curr": 55.0, "shutter": 8200.0, "servo_calib_step": 1.0, "laser_fixed_curr": 0, "exp": 2000.0, "ccd_volt": 4.7, "bt_addr": "00:06:66:62:5A:E3", "servo_delay": 500.0, "laser_autooff": 1}
#proc_cfg={"flat_auto_wnd": 200.0, "flat_auto_fr": 200.0, "flat_auto_shift": 5.0, "yconv": 1, "flatten": 1, "flatten_strength": 100.0, "xfrom": 300.0, "auto_max_frame": 2000.0, "auto_signal": 48000.0, "flat_auto_tol": 0.1, "autoclip": 1, "xrel_range": 0.0, "flat_auto_to": 4000.0, "intensity_adj": 1.0, "xrel": 7852.0, "rmhot": 1, "flat_auto_slit": 4.999999999999997, "auto_ini_exp": 300.0, "auto_off": 0, "xto": 2860.0, "flat_auto_ref": "", "flat_auto_rank": 1, "autobackg": 0, "xrel_adj": 0.0, "auto_black_lvl": 1, "base_wnd": 100.0, "sub_baseline": 0, "xconv": 2, "auto_max_exp": 1000.0, "auto_total_exp": 10000.0, "auto_exp": 0, "rmripple": 0, "black_lvl": 8281.0625, "shutter_clip_adj": 0.0, "auto_bckg": 0, "flat_auto_thr": 0.9, "subbackg": 1}
316.8218498245369 13663.801463801603
317.89969571804795 13443.301612840747
318.977263876126 13502.648309625616
320.05455438786703 13418.606042077987
321.1315673423287 13341.269448966841
322.2083028285215 13452.117564003504
323.2847609354267 13317.783995954136
324.3609417519747 13262.190295479868
325.43684536705587 13193.090690806657
326.5124718695279 13346.636132858583
327.58782134820103 13249.025013140426
328.66289389184385 13294.4641731115
329.7376895891921 13036.047182320472
330.8122085289342 13194.96221432865
331.88645079971866 13094.358447131508
332.9604164901575 13146.641262005567
334.03410568881554 13099.082853407295
335.1075184842266 13232.713954296643
336.18065496487543 13146.358510725457
337.2535152192122 13067.208765583055
338.32609933564163 13196.551026613457
339.39840740253203 13080.951186817034
340.4704395082099 13088.894376316153
341.5421957409617 13021.84624479264
342.6136761890357 13117.197077896326
343.6848809406365 13008.546995182729
344.75581008392874 12944.661846186844
345.82646370703696 12907.83160942074
346.8968418980512 12906.63657489485
347.96694474501055 12945.219910871407
349.0367723359268 12929.049734746535
350.106324758759 12940.260502659905
351.1756021014353 12786.51455964667
352.2446044518383 12828.148931281798
353.31333189781435 12916.56293471933
354.38178452716966 12786.830388236143
355.449962427665 12757.43731883112
356.51786568702846 12797.267613200296
357.58549439294256 12888.019686126736
358.6528486330535 12873.38304533193
359.71992849496564 12819.923445007964
360.7867340662433 12776.844979519514
361.8532654344144 12800.520188429213
362.9195226869597 12843.96696006226
363.9855059113288 12712.378235178809
365.05121519492604 12669.321423997611
366.11665062511565 12815.511805674107
367.1818122892273 12858.821172652988
368.2467002745434 12838.673626765803
369.31131466831175 12749.990684009423
370.375655557742 12693.972468495012
371.4397230299983 12772.341263754974
372.5035171722102 12745.079049277609
373.5670380714637 12649.576159511014
374.6302858148101 12863.79816311513
375.6932604892554 12764.337389321994
376.7559621817709 12762.210728514936
377.81839097928605 12598.054800757744
378.8805469686886 12660.345685062939
379.94243023683157 12618.125426799326
381.0040408705263 12749.352018325399
382.0653789565458 12546.357041938074
383.1264445816196 12594.573882440169
384.1872378324406 12660.830542190135
385.2477587956637 12626.1829165023
386.3080075579037 12537.3249506943
387.3679842057336 12507.662614861434
388.4276888256918 12590.066144882272
389.48712150426945 12491.040289163675
390.54628232792857 12534.40451872573
391.6051713830857 12464.897391723895
392.66378875611736 12526.082249570703
393.7221345333637 12490.035840686563
394.7802088011249 12379.829201379158
395.838011645661 12514.192130187328
396.89554315319765 12417.654628106997
397.9528034099112 12346.833350506098
399.00979250194723 12267.284936076734
400.06651051541485 12248.938985677267
401.1229575363741 12360.028422871535
402.17913365085224 12234.21876960177
403.23503894483656 12329.643933419917
404.2906735042761 12201.59612061729
405.3460374150818 12164.344800582336
406.401130763119 12166.912797990351
407.455953634224 12169.791468259524
408.5105061141876 12206.25526598367
409.56478828876243 12045.458230052809
410.6188002436629 12035.091256602977
411.6725420645689 12086.920976772575
412.72601383711117 12112.206094060604
413.77921564689314 12167.01394760365
414.8321475794728 12027.042079501014
415.88480972036814 12013.938359508269
416.93720215506437 12031.189693145807
417.9893249690049 11899.089518392864
419.04117824759123 11908.096090080282
420.09276207619223 11871.402717762872
421.144076540133 12033.698342025402
422.1951217247042 11910.206166295666
423.24589771515275 11947.967683354267
424.2964045966928 11947.911875291094
425.34664245449494 11891.071830077006
426.3966113736933 11783.94220112749
427.4463114393875 11774.414895127291
428.49574273662984 11875.935922349872
429.5449053504417 11741.508410527998
430.5937993658026 11879.942580258361
431.6424248676558 11739.012830411251
432.6907819409007 11797.021015033424
433.73887067040596 11894.169049948392
434.7866911409965 11855.12365486755
435.8342434374608 11711.312793042793
436.88152764455117 11749.425003580487
437.9285438469724 11753.253979123267
438.9752921294057 11677.868386296923
440.02177257648145 11740.367133828908
441.06798527279716 11618.723210791988
442.1139303029122 11803.482462928116
443.1596077513459 11754.810672736017
444.2050177025794 11707.032912232451
445.25016024105753 11749.656556017264
446.2950354511886 11670.159754764712
447.33964341733736 11723.131716117558
448.383984223834 11728.427082041973
449.4280579549686 11621.51179982795
450.471864694995 11678.052773215712
451.5154045281306 11660.384786118158
452.5586775385509 11650.34045697263
453.60168381039693 11576.328270036776
454.64442342776783 11854.877251787704
455.6868964747264 11756.996755679227
456.7291030353008 11581.516278234265
457.77104319347563 11719.292477228946
458.8127170332027 11662.929605303023
459.854124638392 11729.625496252947
460.895266092919 11852.084076226429
461.93614148061897 11870.341379221982
462.97675088529104 11893.533078042983
464.01709439069236 11823.446166624679
465.0571720805492 11805.278189480907
466.0969840385442 11917.90998176188
467.1365303483253 12043.009033116086
468.17581109350067 11967.448202185955
469.2148263576437 11921.917683364874
470.2535762242878 12065.236423492785
471.29206077693016 12119.97460873749
472.33028009902773 12164.445223390643
473.3682342740012 12077.43545193948
474.40592338523857 12100.991506449831
475.4433475160804 12095.51978823514
476.4805067498364 12030.170586893859
477.51740116978 11928.641409847038
478.5540308591426 12028.037065847533
479.59039590112116 12089.730319998733
480.6264963788726 11987.99496650993
481.6623323755193 12015.875475985105
482.6979039741436 11954.19790566828
483.7332112577915 12076.313914748247
484.76825430947247 12165.753713265518
485.80303321215797 12038.085937427442
486.837548048783 12038.186584411495
487.8717989022425 12187.377360280227
488.90578585539697 12103.274133713105
489.9395089910686 12269.75448392566
490.97296839203955 12094.888418430866
492.00616414106116 11945.020439562588
493.0390963208429 12013.47054988847
494.0717650140559 12090.218064527535
495.10417030333883 11983.850101095542
496.1363122712901 12019.011800076787
497.16819100046814 11817.322103070655
498.1998065734024 11753.188960847747
499.2311590725767 11805.97776839931
500.26224858044407 11738.19697922911
501.2930751794156 11638.301957760927
502.3236389518679 11677.50970550806
503.35393998014115 11590.621655269655
504.38397834653733 11596.657771374137
505.4137541333221 11610.606924955453
506.4432674227228 11482.80790409339
507.4725182969323 11454.503348761438
508.5015068381035 11434.429643634288
509.53023312835467 11457.361058886883
510.55869724976765 11421.069545345905
511.58689928438434 11355.968252360024
512.6148393142121 11368.962399662658
513.6425174212218 11541.150365719925
514.6699336873462 11455.505626011207
515.6970881944835 11515.12140611541
516.7239810244901 11422.307191710566
517.7506122591931 11432.298962641074
518.7769819803761 11475.793451722198
519.8030902697901 11498.998956928433
520.8289372091476 11479.47949695747
521.8545228801249 11541.15852363974
522.8798473643619 11503.187729066924
523.9049107434621 11472.234131314286
524.9297130989908 11497.408029610468
525.9542545124805 11442.753752026058
526.9785350654201 11439.019469648552
528.0025548392696 11473.826636498372
529.0263139154504 11350.896392919278
530.0498123753423 11428.170245691148
531.073050300296 11384.76937236822
532.0960277716204 11246.343861071033
533.1187448705896 11360.303737791008
534.1412016784416 11280.343295778568
535.1633982763833 11307.074569376806
536.1853347455726 11239.231380701172
537.2070111671401 11319.065891333492
538.2284276221817 11207.29395173799
539.2495841917516 11129.324003991107
540.2704809568677 11101.612189513637
541.2911179985167 11171.527155145859
542.3114953976419 11073.554942615887
543.3316132351592 11065.586007313741
544.3514715919409 10966.445044281565
545.3710705488247 10945.9989502231
546.3904101866156 10916.917691550228
547.4094905860784 10955.83442161974
548.4283118279418 10850.515961543642
549.4468739929034 10954.213066943923
550.4651771616191 10931.944132310065
551.4832214147063 10737.566279560455
552.501006832761 10878.099999504537
553.5185334963226 10793.630790394944
554.5358014859103 10943.707433826403
555.5528108820035 10861.03794539411
556.5695617650363 10827.136018079858
557.5860542154242 10805.661568637839
558.6022883135283 10784.274796363305
559.6182641396881 10789.984613160947
560.6339817741991 10849.13814917364
561.6494412973225 10810.769158146082
562.6646427892883 10864.427175783489
563.6795863302796 10746.922630276178
564.694272000459 10714.533582763119
565.7086998799423 10896.06298869399
566.7228700488104 10753.656088028396
567.7367825871115 10662.480252048415
568.7504375748576 10765.139303070227
569.7638350920224 10642.555595970467
570.7769752185486 10713.25933995101
571.7898580343353 10707.788630231411
572.802483619258 10574.758234225545
573.8148520531431 10898.197448812945
574.8269634157932 10796.832272223204
575.8388177869692 10693.607982695132
576.8504152463938 10755.97928265776
577.8617558737587 10884.050981315148
578.8728397487175 10593.615112173084
579.883666950891 10681.543357261444
580.8942375598654 10787.397930429166
581.9045516551851 10856.96839499903
582.9146093163617 10980.949713093014
583.924410622878 10820.904987291558
584.9339556541727 10821.925219712914
585.9432444896538 10986.415872891057
586.9522772086875 10882.752078723706
587.9610538906127 10934.9624680504
588.9695746147318 10896.224596510565
589.9778394603054 10984.330324139832
590.985848506567 10833.049398020714
591.9936018327098 10851.60143366335
593.0010995178891 10661.265569289671
594.0083416412344 10817.714286360488
595.0153282818283 10599.228557032682
596.0220595187293 10677.896712658732
597.0285354309508 10576.879015434719
598.0347560974806 10632.521089212954
599.0407215972609 10559.40926028063
600.0464320092051 10543.001152695304
601.0518874121954 10566.752250327518
602.0570878850685 10509.165144580282
603.062033506636 10492.024813532284
604.0667243556636 10433.83683297873
605.0711605108936 10391.362262523955
606.0753420510264 10684.209584075656
607.0792690547278 10523.031310133667
608.082941600629 10292.377479616644
609.0863597673306 10486.617976684101
610.0895236333909 10569.02576205812
611.0924332773357 10702.061604013887
612.0950887776617 10527.12748203218
613.0974902128219 10547.952272905262
614.0996376612384 10711.867707846408
615.1015312013005 10733.256891456605
616.1031709113595 10814.975969068766
617.1045568697336 10666.65607506885
618.1056891547069 10725.266155325899
619.1065678445229 10836.16767527934
620.1071930173985 11020.27431342491
621.1075647515099 11023.095288437013
622.1076831250048 10922.749510123018
623.1075482159849 10954.458318871366
624.1071601025305 10996.846525047447
625.1065188626781 11056.976721864752
626.105624574433 11262.446148074212
627.1044773157682 11318.454220732501
628.1030771646128 11234.514604914357
629.1014241988742 11374.571832362886
630.0995184964158 11447.364231436786
631.0973601350688 11437.382406338553
632.0949491926294 11561.947425766915
633.0922857468631 11385.901773238427
634.089369875499 11465.69225505783
635.0862016562278 11511.652314510218
636.0827811667077 11298.350981015199
637.0791084845641 11313.458661950324
638.0751836873878 11206.675458054347
639.0710068527369 11310.367760642404
640.0665780581294 11128.5470388491
641.0618973810506 11129.370262246219
642.0569648989604 11099.076389158341
643.0517806892676 10946.480583900346
644.0463448293649 10867.638086307765
645.040657396592 10708.634433835821
646.0347184682723 10690.042684479737
647.0285281216875 10570.96997233581
648.0220864340772 10569.216075393375
649.0153934826558 10401.00170572561
650.0084493446047 10461.908220602256
651.0012540970674 10451.472375196616
651.9938078171526 10443.45271696776
652.9861105819346 10280.260574312655
653.9781624684565 10498.601994547453
654.9699635537254 10257.921336591635
655.9615139147136 10355.514504757326
656.9528136283589 10174.727678340503
657.9438627715699 10325.70692998313
658.9346614212154 10289.242731658387
659.925209654135 10055.451523560907
660.9155075471263 10074.288203341826
661.9055551769616 10137.37470709231
662.895352620375 10294.595324771108
663.8848999540678 10099.624829239136
664.8741972547068 9980.135351082352
665.863244598926 9979.895798693378
666.8520420633213 10005.046305611475
667.8405897244611 9958.300007874557
668.8288876588758 9858.102100027405
669.8169359430613 9909.009179187855
670.8047346534822 9957.109307228908
671.7922838665672 9844.496342989349
672.7795836587156 9938.210000721165
673.766634106285 10035.0730628399
674.7534352856092 9810.245231627188
675.7399872729766 9854.069462784239
676.7262901446538 9853.753549998775
677.712343976862 9922.078338423946
678.6981488457986 9935.943636852044
679.6837048276229 9789.06885136302
680.6690119984596 9865.683684650598
681.6540704344043 9962.98750635611
682.6388802115107 9760.782235852557
683.6234414058108 9787.478089836808
684.6077540932874 9786.56775748805
685.591818349907 9863.566466582286
686.575634251587 9881.477329397916
687.5592018742263 9773.566259775256
688.5425212936734 9599.667446320334
689.5255925857564 9889.466329179808
690.5084158262707 9743.568978183419
691.4909910909646 9647.483717257299
692.4733184555644 9625.621113455914
693.4553979957618 9706.497625078639
694.4372297872123 9658.423565705134
695.4188139055404 9596.738914066713
696.4001504263324 9451.693635398611
697.3812394251509 9657.73252650025
698.3620809775111 9481.979662521191
699.3426751589104 9528.495676006109
700.3230220448004 9445.785594347939
701.3031217106054 9477.837955561596
702.2829742317172 9645.43938984528
703.2625796834873 9393.453234316445
704.2419381412474 9453.660937173958
705.22104968028 9533.013763649931
706.1999143758458 9428.75862927473
707.178532303169 9493.44638570702
708.1569035374378 9506.741027971013
709.1350281538107 9473.242364994408
710.1129062274158 9478.139333998259
711.0905378333373 9647.33086500051
712.0679230466376 9526.042812191608
713.0450619423427 9726.400743927636
714.0219545954424 9786.439722892905
714.9986010808989 9543.488918271101
715.9750014736292 9687.99493267805
716.9511558485392 9785.297363518363
717.9270642804786 9875.6582707392
718.9027268442787 9855.044644017296
719.8781436147328 9849.192822409497
720.8533146666014 9768.194166416635
721.828240074612 9748.982359319305
722.8029199134635 9767.415243920685
723.7773542578125 9716.861312096295
724.751543182294 9694.060713306037
725.7254867615029 9768.641035556255
726.6991850700015 9546.255059477953
727.6726381823228 9564.507369867148
728.6458461729599 9650.516992029392
729.6188091163858 9524.341459509507
730.5915270870246 9556.291080969955
731.5640001592856 9386.377457954486
732.536228407529 9449.709861502972
733.5082119060917 9474.950486897971
734.4799507292755 9340.361562301568
735.4514449513481 9433.217805430326
736.4226946465496 9440.608912773001
737.3936998890786 9509.292277759141
738.3644607531078 9330.829711069211
739.3349773127793 9378.917015488518
740.3052496421951 9357.249953961413
741.27527781543 9292.783684071677
742.2450619065221 9208.810572747072
743.2146019894826 9246.7111166321
744.183898138288 9257.498225118321
745.1529504268801 9167.101610596643
746.1217589291682 9029.240305118972
747.0903237190341 9139.949778765002
748.058644870318 9103.968505438392
749.0267224568397 9071.223094663783
749.994556552374 8978.063501887444
750.9621472306771 9040.215613502214
751.9294945654583 9056.33804937653
752.8965986304011 9104.436481726958
753.8634594991636 8945.657760981203
754.8300772453586 8988.69534952311
755.7964519425768 8987.77887803172
756.762583664371 9147.201325058579
757.7284724842611 9093.497984527658
758.6941184757416 9029.405294857463
759.6595217122667 8987.205545335584
760.6246822672638 9070.822946833257
761.5896002141235 8882.767922573306
762.5542756262093 8940.218102772944
763.5187085768503 8978.68159302362
764.4828991393406 8922.081274553313
765.4468473869474 8905.713625548311
766.4105533929032 8988.761438497906
767.3740172304078 8839.034131977774
768.3372389726283 8993.445095919811
769.3002186926988 8757.128770387633
770.2629564637282 8909.22361298844
771.2254523587872 8880.25491159197
772.1877064509154 8762.37691699591
773.1497188131179 8704.097877871482
774.1114895183728 8624.198403729219
775.0730186396268 8779.43209380309
776.0343062497905 8684.761333049126
776.9953524217381 8677.237788912253
777.9561572283274 8739.784330003049
778.9167207423689 8725.375355670425
779.8770430366476 8616.680212010053
780.8371241839159 8724.251277336742
781.7969642568951 8558.937559058333
782.7565633282757 8844.928185637633
783.7159214707099 8601.081610855594
784.6750387568281 8629.810721287939
785.6339152592227 8628.094872887214
786.5925510504512 8473.074803114678
787.5509462030477 8622.277904250655
788.5091007895098 8573.136932345871
789.4670148823006 8600.006498398801
790.4246885538596 8623.776251449137
791.3821218765861 8541.348586910808
792.3393149228505 8513.5426542613
793.2962677649975 8653.260294579655
794.2529804753303 8572.52866472521
795.20945312613 8618.663009804459
796.1656857896378 8472.653448835194
797.1216785380675 8463.708517440315
798.0774314435985 8703.029729925393
799.0329445783846 8760.73733151384
799.9882180145414 8654.573073740303
800.9432518241574 8577.404183553655
801.89804607929 8640.746732060623
802.852600851962 8711.962760821616
803.8069162141637 8627.206862361914
804.760992237856 8683.046675842274
805.714828994971 8717.544657159246
806.6684265574077 8752.8810056625
807.6217849970271 8605.187381636095
808.574904385674 8608.749535701978
809.527784795142 8745.018916294648
810.4804262972102 8800.919179140557
811.4328289636178 8578.914696112774
812.3849928660748 8498.616060450706
813.3369180762638 8473.315189097253
814.2886046658241 8605.800598762404
815.2400527063783 8398.124309514144
816.1912622695108 8490.717061573761
817.1422334267718 8543.652698828466
818.0929662496856 8487.562053386375
819.0434608097457 8281.040998938652
819.9937171784059 8412.648782499127
820.9437354271013 8378.064659452568
821.8935156272255 8474.270459734458
822.8430578501484 8320.010902950202
823.7923621672016 8116.526010725873
824.7414286496896 8335.576684234522
825.6902573688876 8359.829248284654
826.6388483960363 8329.234389953646
827.5872018023492 8238.868919811375
828.5353176590033 8425.646849787936
829.4831960371503 8261.085142911326
830.4308370079016 8282.166436382513
831.3782406423525 8315.033493790352
832.3254070115545 8243.793632318184
833.2723361865319 8186.605237092275
834.2190282382799 8117.297870239117
835.1654832377644 8167.956883552202
836.1117012559116 8107.9738748345
837.0576823636256 8205.051692879471
838.003426631778 8021.1940440559165
838.9489341312074 8017.950205920504
839.8942049327197 8149.703053060459
840.8392391070975 8169.778131154992
841.7840367250865 8051.879061913501
842.7285978573982 8008.205615398705
843.672922574724 8097.660108614694
844.6170109477152 8006.880214522974
845.560863046996 8017.03975905635
846.5044789431595 8006.552408402931
847.4478587067697 8017.19440051443
848.3910024083561 8126.231062762685
849.333910118421 7963.831507787337
850.2765819074339 7940.60223312245
851.2190178458332 8029.868830875585
852.161218004032 8063.183152983278
853.1031824524016 8040.686363372797
854.0449112612987 7980.050929031773
854.9864045010327 8087.750658769798
855.9276622418947 7927.41591089422
856.8686845541379 7935.344272604603
857.8094715079915 7961.663682186952
858.7500231736467 8185.6494294743
859.690339621271 7971.119688318332
860.6304209209939 7964.791611291788
861.5702671429244 7829.715252806859
862.5098783571284 7910.91068574071
863.4492546336569 7942.646736309721
864.3883960425155 7888.041634590253
865.3273026536863 7867.635556577299
866.2659745371238 7758.385254542062
867.2044117627465 8041.099928135908
868.1426144004472 7868.886177892871
869.0805825200823 7978.5480624914635
870.0183161914847 7896.9287936399705
870.9558154844526 8015.467377049336
871.8930804687552 7883.14227733626
872.8301112141307 7830.736979981557
873.7669077902865 8004.787288251665
874.7034702669062 8022.370577634504
875.6397987136315 7929.148479003142
876.5758932000863 7993.753201868807
877.5117537958522 8095.100992224613
878.4473805704911 7988.36195743584
879.3827735935283 7971.900652903763
880.3179329344603 8061.072630039205
881.2528586627541 8075.5900247559575
882.1875508478479 8190.45600157662
883.1220095591489 8022.6108078815205
884.0562348660296 7985.249875587717
884.9902268378391 8021.208462789284
885.9239855438955 7980.369110808075
886.8575110534839 7845.110455113367
887.7908034358588 7963.2486334226005
888.7238627602474 7917.088081527616
889.6566890958475 7979.634674999074
890.5892825118208 7763.348750774426
891.5216430773125 7852.18759954217
892.4537708614189 7902.670530785641
893.3856659332196 7751.395945877247
894.3173283617652 7751.537637640455
895.2487582160684 7793.6709286417345
896.179955565116 7763.634583938666
897.110920477864 7713.071529223419
898.0416530232451 7720.3092232994195
898.9721532701478 7635.193660686213
899.9024212874428 7769.253598929603
900.8324571439662 7666.323060455021
901.7622609085302 7645.470113250206
902.6918326499072 7518.626009653184
903.6211724368477 7675.974176858841
904.5502803380696 7778.815941625767
905.4791564222614 7724.4461518695
906.4078007580792 7548.540734060676
907.3362134141571 7591.934467448242
908.2643944590909 7729.711309631971
909.1923439614493 7500.291931481396
910.1200619897754 7591.065461758046
911.0475486125779 7733.011603328489
911.9748038983344 7624.128235536316
912.9018279155007 7527.782632907618
913.8286207324982 7460.846842448242
914.7551824177117 7605.9527501543025
915.6815130395116 7483.427969081914
916.6076126662283 7400.0423390722035
917.533481366163 7483.767133602521
918.4591192075914 7550.569843626877
919.3845262587565 7598.639884220803
920.3097025878706 7410.80528736328
921.2346482631237 7435.228629913979
922.1593633526682 7465.637486598047
923.0838479246304 7595.272045592838
924.0081020471061 7618.291010990823
924.9321257881656 7350.289317791183
925.8559192158464 7403.239554734151
926.7794823981512 7338.379469707024
927.7028154030686 7308.521917705417
928.6259182985414 7289.1711474748245
929.5487911524906 7471.398284905265
930.4714340328119 7608.229472984977
931.3938470073608 7251.072558943517
932.3160301439748 7301.102293595608
933.2379835104548 7343.361094031051
934.1597071745709 7481.94485523724
935.0812012040769 7364.5758372810915
936.002465666681 7463.479391462471
936.9235006300696 7450.808288763574
937.8443061619055 7432.71690954405
938.7648823298077 7248.808080314843
939.6852292013809 7302.1259280955255
940.6053468441951 7407.155188937619
941.5252353257874 7209.769467847766
942.4448947136698 7294.500972812141
943.364325075323 7230.999905287451
944.2835264782043 7321.40722064713
945.2024989897309 7240.543684001818
946.1212426773054 7283.9787154033575
947.0397576082851 7359.86406078179
947.9580438500125 7454.311354527107
948.8761014697939 7419.544906919548
949.7939305349064 7416.7381889159515
950.7115311125999 7246.869480569405
951.6289032700952 7227.234775787625
952.5460470745875 7382.344862405696
953.4629625932339 7219.747929309879
954.3796498931715 7251.088288603889
955.2961090415029 7350.966476078599
956.2123401053068 7228.441113323851
957.1283431516276 7298.89735738465
958.0441182474842 7197.454268022894
958.9596654598663 7423.752015744506
959.8749848557309 7255.055050705239
960.7900765020167 7153.679645857921
961.7049404656209 7140.6575545246915
962.6195768134185 7225.294358483245
963.5339856122537 7300.384888880719
964.4481669289453 7292.053214799516
965.3621208302793 7226.764811839477
966.2758473830145 7174.83934872961
967.1893466538822 7323.192683305197
968.1026187095813 7224.67261600707
969.0156636167867 7182.203296746254
969.9284814421426 7300.343759633397
970.8410722522622 7231.076654915103
971.753436113735 7140.089473677102
972.6655730931161 7193.409325844028
973.5774832569368 7326.046559621837
974.4891666716958 7130.956296940992
975.4006234038698 7134.555108906547
976.3118535198955 7090.659822830254
977.2228570861935 7257.135731480911
978.1336341691494 7284.125475494274
979.0441848351202 7043.734916477699
979.9545091504333 7211.332484208548
980.864607181391 7234.597860962455
981.7744789942699 7208.740080421781
982.6841246553086 7210.317114884425
983.5935442307236 7212.630493038334
984.5027377867027 7159.692698312222
985.4117053894024 7175.066091791179
986.3204471049557 7155.943247262165
987.2289629994648 7177.437908336135
988.1372531390007 7325.896272977816
989.0453175896091 7215.965732982595
989.9531564173067 7230.944013591584
990.860769688079 7095.297317719352
991.7681574678918 7148.186046688505
992.6753198226706 7221.569635830007
993.582256818323 7136.837545688768
994.4889685207218 7137.335899376985
995.3954549957143 7372.710439233056
996.301716309119 7251.275341829334
997.2077525267232 7247.201503234406
998.1135637142943 7107.449833664317
999.0191499375615 7322.77003684863
999.924511262232 7323.9813099682015
1000.8296477539861 7267.271609466511
1001.7345594784656 7185.852311258173
1002.6392465012996 7180.461617145906
1003.5437088880753 7273.2513926666625
1004.4479467043584 7291.7481020933365
1005.3519600156869 6974.188253464997
1006.2557488875718 7229.108494264641
1007.1593133854858 7205.09482246828
1008.0626535748888 7097.532375566368
1008.9657695212009 6992.48688418683
1009.8686612898182 7366.50026448998
1010.7713289461135 7202.519998790565
1011.6737725554212 7150.75475834579
1012.5759921830577 7122.215110579464
1013.4779878943027 7099.515609803115
1014.379759754418 7229.818782194886
1015.2813078286254 7037.684483536899
1016.18263218213 6984.229501111993
1017.0837328801026 7072.623777545756
1017.9846099876886 7092.452244012619
1018.8852635700023 7037.561771617735
1019.7856936921362 6845.512157647255
1020.6859004191447 7097.717645018216
1021.5858838160675 6985.13699141038
1022.4856439479063 6943.72005522661
1023.3851808796389 6858.817288521745
1024.2844946762143 7069.847198571081
1025.183585402554 7064.525841751371
1026.082453123554 6746.278360667771
1026.9810979040776 6896.520605474339
1027.8795198089647 6739.097383754341
1028.777718903024 6877.222168197429
1029.6756952510368 6750.93331579207
1030.5734489177648 6828.46544956452
1031.4709799679313 6842.218953951609
1032.3682884662358 7068.1481577976465
1033.2653744773506 6670.736922347292
1034.1622380659192 6671.559450929968
1035.058879296559 6840.397691723227
1035.9552982338591 6953.422841881959
1036.8514949423825 6774.687846544866
1037.7474694866614 6701.9653429227965
1038.6432219312028 6633.231532923148
1039.5387523404825 6890.510947852183
1040.4340607789582 6833.8607759564275
1041.3291473110476 6680.64530043189
1042.2240120011465 6898.816103383341
1043.1186549136273 6951.979536368152
1044.0130761128294 6805.501249306259
1044.9072756630649 6892.861248479365
1045.8012536286205 6932.20689257861
1046.6950100737577 6914.761938618396
1047.588545062701 7012.208064641064
1048.481858659663 6919.262184637453
1049.3749509288118 7094.990013714077
1050.2678219343034 6890.601657207075
1051.1604717402515 6988.751007860965
1052.0529004107575 6724.26563314922
1052.9451080098825 6932.69622541931
1053.8370946016694 6977.736241036847
1054.7288602501267 6988.11718897698
1055.6204050192446 6914.845367610584
1056.511728972977 6949.018290506703
1057.402832175254 6945.944891618259
1058.2937146899785 6761.338705544726
1059.1843765810263 6808.750489338096
1060.0748179122456 6907.647860567811
1060.9650387474576 6794.421615181507
1061.855039150456 6843.237187295965
1062.7448191850071 6792.655148208229
1063.6343789148505 6869.958266351996
1064.5237184037014 6978.12533893475
1065.412837715241 6806.218659554582
1066.3017369131267 6715.101232087365
1067.190416060992 6745.921044065265
1068.0788752224398 6665.138802339541
1068.9671144610438 6665.031995370268
1069.8551338403558 6827.638213883032
1070.7429334239023 6802.3238868850185
1071.6305132751695 6607.351972083164
1072.517873457633 6747.052116286739
1073.4050140347335 6670.648374483867
1074.2919350698776 6662.104252881104
1075.1786366264623 6644.517263478789
1076.0651187678395 6717.688468235453
1076.95138155735 6551.591342769881
1077.8374250582929 6551.590269644446
1078.7232493339507 6661.520181245542
1079.608854447577 6566.142373296859
1080.4942404623907 6533.230998120295
1081.3794074415982 6636.656925645284
1082.2643554483657 6708.459395209167
1083.149084545841 6620.457054014037
1084.033594797138 6504.320495886174
1084.9178862653516 6526.537137826681
1085.8019590135427 6672.462115315204
1086.6858131047484 6402.132642190159
1087.5694486019802 6538.228898183429
1088.4528655682225 6589.661539655909
1089.3360640664287 6668.116312177888
1090.2190441595321 6503.385049877491
1091.1018059104317 6547.86051133864
1091.98434938201 6645.4475529071615
1092.866674637111 6640.040796614422
1093.748781738559 6589.002532358865
1094.6306707491512 6399.336742249981
1095.5123417316554 6600.2110286110055
1096.3937947488157 6457.895796727809
1097.2750298633455 6499.938498180267
1098.156047137938 6406.474654451215
1099.0368466352556 6469.283213108448
1099.9174284179317 6611.88964483897
1100.7977925485757 6361.851294543505
1101.6779390897755 6326.3060298375
1102.5578681040806 6425.94507871617
1103.4375796540226 6486.7324351395
1104.3170738021054 6394.473505147217
1105.1963506108077 6263.190250288291
1106.0754101425773 6258.58756485519
1106.9542524598382 6480.312146843053
1107.8328776249855 6315.25502155515
1108.7112857003904 6272.4840845373565
1109.5894767483987 6268.158027496259
1110.4674508313292 6449.071812275448
1111.3452080114657 6296.2447629505405
1112.2227483510815 6429.52956220504
1113.1000719124077 6422.220444144444
1113.9771787576592 6476.441819730461
1114.854068949022 6363.670374902025
1115.7307425486542 6545.741914779087
1116.6071996186893 6544.819783883506
1117.483440221229 6828.7274505509295
1118.3594644183577 6378.509464541398
1119.235272272128 6488.444336207288
1120.1108638445658 6453.276258796068
1120.9862391976712 6799.754069212613
1121.8613983934229 6624.871837916279
1122.7363414937627 6613.863913755102
1123.6110685606182 6577.345112952219
1124.485579655884 6752.45945176776
1125.359874841426 6623.626149592483
1126.2339541790916 6674.5303920224615
1127.1078177306936 6905.789654818162
1127.9814655580267 6647.543790127766
1128.854897722851 6675.725931347653
1129.7281142869106 6600.517799591525
1130.6011153119125 6649.628478054304
1131.473900859548 6861.462301391903
1132.3464709914697 6634.101097650203
1133.2188257693178 6727.1337580070585
1134.0909652546961 6613.088020858582
1134.96288950919 6522.582004872288
1135.8345985943506 6660.091699309747
1136.7060925717087 6370.19358431289
1137.57737150277 6491.604846120716
1138.4484354490069 6727.022132650041
1139.3192844718778 6424.7434585449655
1140.1899186327992 6330.8002229999765
1141.060337993178 6521.906348376365
1141.930542614382 6376.6486633521
1142.8005325577597 6267.0087518657
1143.670307884635 6090.643659788632
1144.5398686563003 6329.523065035994
1145.409214934025 6358.41617938026
1146.2783467790541 6052.348217821546
1147.1472642526023 6192.964755650019
1148.0159674158622 6272.386166436736
1148.8844563300026 6155.226414787008
1149.7527310561618 6059.032099401314
1150.6207916554504 6049.439543185673
1151.4886381889592 6011.052691016492
1152.3562707177498 6093.825672763815
1153.2236893028585 6049.120016934763
1154.090894005296 5868.671217379588
1154.9578848860474 6059.692388764145
1155.8246620060709 6017.125083583079
1156.6912254262988 5836.738733542252
1157.5575752076438 5921.9370571519885
1158.42371141098 6090.296991554441
1159.2896340971656 6099.790841718588
1160.1553433270346 5956.6379965354845
1161.0208391613887 5987.9437180064
1161.8861216610057 5939.8941066595125
1162.75119088664 6030.045385971693
1163.6160468990201 5945.098451651551
1164.4806897588442 5880.416785971811
1165.3451195267917 6060.726179837841
1166.2093362635114 6053.400547619381
1167.0733400296285 5937.979136359831
1167.9371308857444 5877.613226428185
1168.8007088924278 5892.562674650635
1169.6640741102328 6018.65952444852
1170.5272265996773 5857.08027533562
1171.390166421259 5735.48613084175
1172.252893635452 5962.406975448239
1173.1154083026995 6121.127308261852
1173.977710483421 5999.603123710689
1174.8398002380145 5803.016073846535
1175.7016776268483 5994.981537199268
1176.563342710264 5937.764255019972
1177.4247955485826 5801.721824716816
1178.2860362020947 5934.063781191193
1179.147064731069 5738.533912672618
1180.0078811957483 5936.791227750037
1180.8684856563486 5826.103473173112
1181.7288781730604 5830.4334898724155
1182.589058806052 5914.427144230724
1183.4490276154593 6147.347754789199
1184.3087846614017 5826.42018881846
1185.1683300039676 5901.066972399427
1186.027663703222 6116.324701835147
1186.8867858192025 5965.7479241559495
1187.7456964119228 5935.265293665128
1188.6043955413716 5965.84975844337
1189.4628832675116 6078.1710056138545
1190.3211596502842 6180.589725925938
1191.179224749596 6137.2925333368785
1192.0370786253388 5913.386707378196
1192.8947213373758 6202.234828655002
1193.7521529455407 6295.121637171991
1194.6093735096438 5931.932506830556
1195.466383089477 6023.928343758106
1196.3231817447977 5979.572433283217
1197.1797695353398 6326.511391267939
1198.0361465208189 5911.117148211925
1198.8923127609214 5997.344789015555
1199.7482683153048 6207.468599759488
1200.6040132436028 6212.232833133032
1201.459547605431 6015.12493201756
1202.3148714603722 6070.140494035838
1203.1699848679855 6113.850045059744
1204.0248878878065 6152.502286967398
1204.8795805793507 5843.00769829123
1205.7340630020935 6133.881415771389
1206.5883352155033 6146.167284760817
1207.4423972790064 6120.618499495661
1208.2962492520237 5955.776597835158
1209.1498911939307 5976.914942495474
1210.0033231640937 6017.708521871479
1210.8565452218427 6086.119937843362
1211.7095574264913 5710.020170134926
1212.5623598373222 5828.148768000754
1213.4149525135963 5722.691547088705
1214.2673355145507 5917.006990925804
1215.1195088993936 5769.023721963191
1215.9714727273113 5727.865795141248
1216.8232270574663 5975.266520681382
1217.6747719489904 5604.980823299829
1218.5261074609934 5701.347500867673
1219.3772336525653 5845.937694362916
1220.2281505827668 5880.281478026296
1221.0788583106296 5937.545439751111
1221.9293568951707 5635.593558498085
1222.7796463953746 5551.57708365868
1223.629726870202 5802.087478034371
1224.4795983785934 5826.222887267957
1225.3292609794553 5746.162655756745
1226.1787147316809 5654.543233244526
1227.0279596941327 5694.112374601805
1227.8769959256424 5610.03601720024
1228.7258234850306 5779.564250062342
1229.5744424310833 5517.253892703699
1230.422852822563 5847.90881699843
1231.2710547182105 5886.847146988394
1232.119048176739 5770.942301985215
1232.9668332568417 5429.072192994629
1233.8144100171812 5726.261823652223
1234.6617785163999 5701.899850185096
1235.508938813111 5357.510350410168
1236.3558909659114 5498.173249026465
1237.2026350333617 5701.015227900129
1238.049171074008 5740.205697136955
1238.8954991463652 5457.554838386226
1239.741619308932 5537.190990244848
1240.587531620169 5549.891483434449
1241.4332361385277 5561.17750537476
1242.2787329224248 5496.373313486731
1243.1240220302534 5361.496734734001
1243.9691035203869 5443.1105889501105
1244.813977451171 5710.597155309249
1245.6586438809263 5545.450213842287
1246.5031028679496 5290.573954813782
1247.3473544705157 5574.532800236948
1248.1913987468706 5534.658853268299
1249.0352357552383 5189.789041243534
1249.8788655538228 5386.395466734728
1250.7222882007918 5553.51716888781
1251.565503754302 5510.363734139182
1252.4085122724755 5163.441153191519
1253.2513138134182 5583.041377074375
1254.0939084352049 5422.413004214396
1254.9362961958905 5489.647320742778
1255.7784771535007 5421.620490292678
1256.6204513660432 5535.741957410208
1257.4622188915 5640.812241172314
1258.3037797878242 5364.73807000592
1259.1451341129468 5312.980021674716
1259.9862819247755 5427.428825168436
1260.8272232811978 5386.93222081111
1261.6679582400666 5681.853251855454
1262.5084868592203 5276.262349121777
1263.34880919647 5379.853176839975
1264.1889253095997 5490.938900420889
1265.0288352563712 5608.973700085668
1265.8685390945266 5412.55562738516
1266.7080368817751 5492.9552890860505
1267.5473286758115 5698.701198382579
1268.386414534294 5520.790827884937
1269.2252945148703 5116.525788802226
1270.0639686751547 5329.189663171968
1270.9024370727402 5322.777315408394
1271.7406997651997 5329.481528225557
1272.5787568100714 5178.914534751404
1273.4166082648808 5269.736618925095
1274.2542541871244 5330.873351205128
1275.091694634275 5558.658892565337
1275.9289296637817 5218.902270248014
1276.7659593330663 5431.914259312498
1277.6027836995308 5288.746516536027
1278.4394028205552 5480.841522851051
1279.2758167534867 5351.950336201484
1280.112025555658 5299.287849180881
1280.9480292843746 5278.96424077657
1281.7838279969128 5148.290611008339
1282.6194217505326 5293.034149796311
1283.4548106024686 5110.053998463869
1284.289994609926 5233.139137790053
1285.1249738300921 5401.367799222077
1285.959748320127 5264.021180143789
1286.7943181371702 5321.891471284245
1287.6286833383328 5286.560053462135
1288.4628439807038 5242.38214286079
1289.2968001213521 5170.183009195254
1290.1305518173194 5257.664057605988
1290.9640991256183 5292.711828360799
1291.7974421032523 5198.026210273174
1292.630580807183 5117.3447804367825
1293.463515294361 5284.064935964824
1294.29624562171 5470.27015006281
1295.12877184613 5179.403562716761
1295.961094024493 5186.14773541749
1296.79321221365 5251.195489134332
1297.6251264704333 5316.857901685011
1298.4568368516466 5606.868163599402
1299.2883434140658 5312.29596177625
1300.1196462144526 5172.913366528952
1300.9507453095375 5423.968911136032
1301.7816407560313 5318.297096656904
1302.6123326106172 5336.289070448425
1303.4428209299622 5159.191162876677
1304.2731057707024 5571.712566093292
1305.1031871894502 5223.386906474895
1305.933065242798 5451.44776818602
1306.7627399873181 5243.122034450562
1307.5922114795467 5636.987592831822
1308.4214797760123 5755.122250680898
1309.2505449332057 5270.590697834149
1310.0794070076026 5489.615521628556
1310.9080660556538 5633.07011219648
1311.736522133786 5542.047962355818
1312.5647752983987 5334.638103084921
1313.3928256058734 5161.01373632765
1314.2206731125661 5524.142595768325
1315.048317874809 5505.950858987313
1315.8757599489109 5309.81583927397
1316.7029993911547 5335.865766848847
1317.5300362578055 5566.443112010366
1318.356870605101 5307.399889491483
1319.183502489257 5289.206771478788
1320.0099319664623 5416.300566048917
1320.836159092889 5408.044393764793
1321.66218392468 5478.99277394717
1322.4880065179532 5160.167320224287
1323.3136269288134 5296.834484655191
1324.1390452133292 5342.402113858582
1324.9642614275563 5566.153622657178
1325.7892756275214 5319.883017159057
1326.6140878692295 5191.309299634923
1327.4386982086617 5669.844173486617
1328.2631067017755 5488.411380504565
1329.0873134045069 5368.746621968957
1329.911318372764 5258.315768649981
1330.735121662441 5322.957740804847
1331.558723329399 5225.645616332042
1332.3821234294774 5209.980593804427
1333.2053220185007 5289.017118110555
1334.0283191522612 5099.297742268702
1334.851114886529 5497.061512430171
1335.6737092770582 5131.679173327341
1336.4961023795695 5378.528417715412
1337.3182942497697 5105.947060217737
1338.1402849433325 5151.164740108058
1338.962074515921 5078.153193413363
1339.7836630231632 5045.8640119278325
1340.6050505206676 5589.719524129785
1341.426237064028 5374.1629388793845
1342.2472227088037 5132.9797050785255
1343.0680075105338 5026.867306376373
1343.888591524741 5174.085636877595
1344.7089748069138 5393.48715010577
1345.5291574125276 5188.841042277772
1346.3491393970307 5041.425932360986
1347.168920815846 5249.77370530782
1347.9885017243778 5369.586524889328
1348.8078821780036 5084.634846696374
1349.6270622320844 5132.587445789708
1350.4460419419447 4978.0689478845325
1351.2648213629054 5227.481905676752
1352.0834005502438 4879.363751739668
1352.90177955923 4870.893868730889
1353.7199584451064 5177.26211936765
1354.5379372630887 5148.299850054235
1355.355716068374 4951.097703850117
1356.1732949161305 4930.082994637262
1356.9906738615155 5094.067232901723
1357.8078529596478 4972.31382689961
1358.6248322656375 5226.691896678311
1359.441611834567 5021.119679609692
1360.2581917214866 5173.247864919789
1361.0745719814367 4970.526185206932
1361.890752669433 4914.879279304735
1362.7067338404577 4776.792746918212
1363.5225155494845 5168.184079093133
1364.3380978514506 5219.965273561147
1365.1534808012839 4737.6844231193
1365.9686644538815 4639.655497711642
1366.783648864117 5103.786186373503
1367.5984340868417 5194.860403774306
1368.413020176893 5035.5429623571345
1369.2274071890715 4768.563066185774
1370.0415951781652 5155.472319842924
1370.8555841989346 4866.517137096007
1371.6693743061223 4760.4987706096545
1372.48296555444 4661.106908058594
1373.2963579985844 5019.467054029755
1374.1095516932255 4957.7907163077
1374.9225466930166 4557.510773071262
1375.7353430525782 4947.872983191918
1376.5479408265164 4768.71845013649
1377.36034006941 4978.176361230826
1378.1725408358216 4960.822988115864
1378.9845431802805 4687.895417798003
1379.796347157304 5264.2034042351015
1380.6079528213813 4919.39697827263
1381.4193602269788 4714.502462870181
1382.230569428546 4717.832092595383
1383.0415804805016 4951.755475863268
1383.852393437246 4934.815782696366
1384.6630083531563 4822.832962857507
1385.4734252825892 4753.118597285658
1386.2836442798798 4856.8913634349965
1387.0936653993322 4841.301626641418
1387.9034886952395 4766.413529244985
1388.713114221864 4813.547076361951
1389.5225420334482 4854.179918668485
1390.331772184214 4662.493751234147
1391.1408047283585 4543.8826585658735
1391.9496397200564 4698.014881582274
1392.758277213461 4912.654315809449
1393.5667172627054 4932.50723716663
1394.3749599218918 4706.014469021838
1395.1830052451114 4454.946784503195
1395.9908532864265 4624.1085642904245
1396.7985040998774 4920.937156382564
1397.6059577394808 4444.569004889336
1398.4132142592352 4593.871099750761
1399.2202737131156 4586.967022990355
1400.027136155073 4870.49019728429
1400.8338016390353 4556.516118307718
1401.6402702189134 4680.0524665142275
1402.446541948586 4740.776483182262
1403.2526168819204 4498.102156688809
1404.058495072757 4532.565047187555
1404.8641765749107 4547.278441345707
1405.6696614421799 4791.386873788903
1406.4749497283356 5050.156924411212
1407.280041487129 4579.462585458917
1408.084936772295 4452.79568663395
1408.8896356375335 4803.985734534088
1409.6941381365323 4813.298839540812
1410.498444322955 4490.2790016210165
1411.3025542504402 4526.250132342766
1412.106467972606 4694.600597577125
1412.9101855430508 4687.680770975818
1413.7137070153458 4399.404929785171
1414.5170324430437 4638.21240624072
1415.320161879672 4730.927908807457
1416.1230953787435 4911.340323267376
1416.925832993742 4547.837588689979
1417.7283747781275 4390.585591762433
1418.5307207853439 4701.667367274505
1419.3328710688093 4652.524674934548
1420.134825681922 4365.836043276764
1420.9365846780584 4547.110492306486
1421.7381481105713 4803.299021778574
1422.539516032788 4701.574647612984
1423.3406884980232 4473.128426186544
1424.1416655595604 4407.391088259303
1424.942447270665 4544.910754396989
1425.7430336845828 4731.231065172556
1426.5434248545298 4420.380995803699
1427.3436208337116 4605.105146592523
1428.143621675301 4626.753811471275
1428.9434274324558 4777.789603664715
1429.7430381583108 4417.2089383697385
1430.5424539059713 4460.601375921343
1431.3416747285337 5031.207271183595
1432.1407006790632 4680.563868783655
1432.9395318106053 4596.643520077628
1433.7381681761835 4402.007869748649
1434.5366098288014 4672.963383826195
1435.3348568214424 4718.935826489805
1436.1329092070573 4434.068095294587
1436.9307670385879 4573.602342959996
1437.7284303689503 4725.267590328706
1438.5258992510335 4818.867359208637
1439.3231737377118 4676.6706755719115
1440.1202538818306 4494.581675338631
1440.9171397362225 4544.38273653685
1441.7138313536925 4609.248869290041
1442.5103287870243 4373.903422904265
1443.3066320889775 4362.3415120525915
1444.1027413122956 4740.385850198061
1444.8986565096966 4496.1715169685385
1445.694377733882 4460.250108032755
1446.4899050375207 4351.231578522085
1447.2852384732687 4450.038299223564
1448.0803780937622 4590.143290256374
1448.8753239516063 4349.781587803072
1449.6700760993954 4244.022039049019
1450.464634589689 4365.932250151087
1451.2589994750397 4665.375256733808
1452.0531708079689 4340.781129973364
1452.8471486409799 4256.823915071378
1453.6409330265524 4620.744365762514
1454.4345240171442 4341.472111585788
1455.2279216651987 4289.598702520139
1456.0211260231263 4354.553927922008
1456.8141371433194 4498.980575350803
1457.6069550781594 4486.060157336805
1458.3995798799897 4199.475149688077
1459.1920116011424 4281.000146921824
1459.98425029393 4179.703169778174
1460.7762960106338 4213.041868959702
1461.5681488035225 4333.021166143766
1462.3598087248392 4377.403846883043
1463.1512758268036 4493.987368112631
1463.942550161617 4158.973813601936
1464.7336317814625 4119.176398736528
1465.524520738496 4278.336207427781
1466.3152170848552 4158.5652463273345
1467.1057208726506 4289.317058896369
1467.8960321539817 4169.889674954282
1468.6861509809169 4066.5463222900253
1469.4760774055085 4208.778697685926
1470.265811479785 4223.826561211596
1471.055353255755 3978.493561213237
1471.844702785409 4000.178488523964
1472.6338601207044 4107.515208954892
1473.4228253135934 4325.982581979039
1474.2115984159936 4051.1341777228504
1475.0001794798063 3910.789222237299
1475.7885685569145 4236.714871643302
1476.576765699172 4062.661829142455
1477.3647709584238 4129.223345512394
1478.1525843864802 4363.140687676819
1478.9402060351367 4198.678068218325
1479.7276359561693 4269.725643684176
1480.514874201328 4094.4858288948076
1481.3019208223468 3897.001421264192
1482.0887758709323 3843.9727152716696
1482.8754393987747 4243.650821897368
1483.6619114575406 3902.716221719732
1484.4481920988783 3991.709593635809
1485.2342813744108 4136.571099376781
1486.0201793357446 4268.688565866616
1486.8058860344572 3951.7889333299295
1487.591401522117 4019.5423218770507
1488.3767258502594 3976.479375736048
1489.1618590704056 3997.546211263435
1489.9468012340494 3745.2860629699026
1490.7315523926754 4095.691465297024
1491.5161125977356 4115.0360528520105
1492.3004819006637 4096.210364967519
1493.084660352877 3727.5118480145284
1493.8686480057622 4096.3986779844545
1494.6524449106964 4220.4893929438
1495.4360511190262 4188.305624108841
1496.219466682087 4042.014930373857
1497.0026916511779 4081.9897117376686
1497.7857260775945 4086.7305112530594
1498.5685700125996 4078.902607266019
1499.3512235074395 3828.643378283911
1500.133686613337 3735.648097057863
1500.9159593814966 3923.6963108068944
1501.698041863101 4472.513564188974
1502.4799341093094 3721.219240106436
1503.2616361712662 3618.2472013123397
1504.043148100087 4022.6218962935736
1504.8244699468742 4044.7187349594196
1505.6056017626997 3719.0982278069887
1506.3865435986281 3743.8323368415536
1507.1672955056893 4010.7057848636296
1507.9478575348967 3801.1153069984202
1508.7282297372512 4094.085620583649
1509.5084121637192 3802.313491603217
1510.2884048652577 3961.6467016996817
1511.0682078927948 3763.178493083719
1511.8478212972423 3794.547705277091
1512.6272451294917 3825.5200567217425
1513.4064794404076 3947.241304727221
1514.1855242808433 3978.19733868099
1514.9643797016215 3856.3607763000173
1515.743045753552 3950.902352954611
1516.5215224874191 3962.848200862617
1517.2998099539836 3663.922809850216
1518.077908203999 3899.1130139768056
1518.8558172881785 3746.6626388606237
1519.633537257234 4012.629218241995
1520.4110681618404 3907.5382343122483
1521.1884100526604 3827.492982582914
1521.9655629803365 3763.287785061516
1522.7425269954856 4089.2586312360677
1523.5193021487103 4262.6434267056575
1524.2958884905856 3758.6127121157747
1525.0722860716687 3777.959041790515
1525.848494942502 3747.572264169971
1526.624515153595 3849.0830555728376
1527.4003467554485 3876.352256371244
1528.175989798534 3979.875825559796
1528.9514443333064 3858.931157287659
1529.726710410203 4096.105370690628
1530.5017880796331 3706.989825337469
1531.276677391992 3761.7846853830256
1532.0513783976457 4042.974116287035
1532.825891146953 3844.797827258676
1533.6002156902414 3927.3216321594723
1534.3743520778207 3787.4339052735063
1535.1483003599806 3825.4793314788585
1535.9220605869923 3983.69542472826
1536.6956328091019 3926.838569008795
1537.4690170765407 3846.594572013257
1538.242213439511 3890.4639502877662
1539.015221948208 3791.2409968019733
1539.78804265279 3723.001122167986
1540.560675603405 3602.4323715876976
1541.3331208501804 4023.9663796775994
1542.1053784432224 4056.860206340107
1542.8774484326168 3863.4522463073326
1543.649330868422 3854.7661232838677
1544.4210258006842 3842.9001130239253
1545.1925332794308 3880.424942503859
1545.9638533546604 3785.176746635055
1546.7349860763552 3811.334257396229
1547.5059314944829 4073.7062768674696
1548.27668965898 3832.643703396438
1549.0472606197673 3836.965571375514
1549.817644426752 3708.2928447773616
1550.5878411298072 3983.808964861203
1551.3578507787988 3859.2926303088666
1552.1276734235635 3647.0372251826475
1552.8973091139233 3722.208471568401
1553.6667578996767 3929.2828806594953
1554.436019830604 3767.594555577004
1555.20509495646 3803.207913419773
1555.9739833269869 3735.6802858597707
1556.7426849919011 3686.7852664359903
1557.511200000903 4026.2396153562063
1558.2795284036674 3816.0360871639887
1559.0476702498509 3750.567883784889
1559.8156255890954 3860.6979176423165
1560.5833944710157 4126.5946072010975
1561.3509769452048 3673.52465825936
1562.1183730612447 3814.4118014242003
1562.8855828686865 3763.1066448974207
1563.6526064170703 4146.952166589216
1564.4194437559127 3982.308903251007
1565.1860949347047 3705.1273907931945
1565.9525600029283 4109.014889658879
1566.7188390100328 4193.897104926061
1567.4849320054564 3762.1454014904907
1568.250839038612 3762.4773285012284
1569.0165601588997 3756.1557112984965
1569.7820954156887 3937.643519007889
1570.5474448583373 3795.4621212509874
1571.31260853618 3731.3556473359777
1572.0775864985299 3591.2149913368476
1572.8423787946813 3894.4497178587944
1573.6069854739108 3648.8062216749117
1574.371406585471 3907.9013439527507
1575.1356421785986 4024.5708872573864
1575.899692302506 3736.1814327609522
1576.6635570063845 3828.537238892818
1577.4272363394157 3728.4573219756503
1578.190730350747 3712.647937676892
1578.9540390895163 3968.939352089823
1579.7171626048384 3524.8249924206166
1580.480100945806 3735.5342810225484
1581.2428541614918 3644.5468924253532
1582.0054223009538 3866.675898696797
1582.767805413223 3734.8106366912193
1583.5300035473156 3870.8795983382493
1584.292016752228 3950.5778271788063
1585.0538450769309 3877.0691753694964
1585.8154885703807 3567.7261374833492
1586.5769472815136 3550.163342416929
1587.3382212592405 3752.8660355715438
1588.099310552463 3981.4773255183272
1588.8602152100484 3882.977928595408
1589.6209352808564 3901.9236317812565
1590.3814708137234 3820.3898433675845
1591.14182185746 3922.195184930467
1591.9019884608679 3635.242820336287
1592.6619706727215 3472.9815569326624
1593.4217685417734 3805.9134740676172
1594.1813821167616 3965.18224107594
1594.9408114464022 3469.590833737646
1595.7000565793933 3615.5972313209763
1596.459117564409 3718.201063218996
1597.2179944501113 3604.209753709668
1597.9766872851324 3643.6053580969296
1598.735196118092 3908.865805757793
1599.4935209975883 3936.3156022635403
1600.2516619721973 3924.9276218261402
1601.0096190904787 3627.7929277360354
1601.7673924009723 3775.7236046413614
1602.524981952196 3504.5835779445683
1603.2823877926476 3573.382717026234
1604.0396099708087 3596.1791161024316
1604.7966485351371 3496.2476183859135
1605.5535035340745 3625.2927593016416
1606.3101750160404 3854.4103850318215
1607.0666630294363 3551.8027041616597
1607.822967622642 3461.092198351772
1608.5790888440224 3676.8596859056815
1609.3350267419137 3849.9126774352612
1610.0907813646445 3656.3965290542264
1610.8463527605145 3587.609142811792
1611.601740977805 3724.7525073170536
1612.356946064785 3642.257844445715
1613.1119680696902 3405.6508266862597
1613.8668070407512 3631.2090704338743
1614.6214630261748 3536.617897753942
1615.375936074137 3712.16429641257
1616.1302262328118 3595.3708917076124
1616.8843335503425 3759.4945661177553
1617.638258074854 3512.2230104193927
1618.391999854457 3586.2535128862537
1619.1455589372363 3744.2841038945553
1619.8989353712623 3783.718002002729
1620.65212920458 3323.675330623834
1621.4051404852235 3508.3076364463222
1622.1579692611976 3614.9692514354488
1622.9106155804966 3324.3988705025586
1623.663079491087 3468.9952415040666
1624.4153610409248 3626.2200776447958
1625.1674602779385 3428.8171695615756
1625.9193772500403 3418.756994487839
1626.6711120051277 3722.9536902126356
1627.4226645910676 3543.765594986174
1628.174035055721 3441.7950853571733
1628.9252234469168 3592.225165392186
1629.676229812474 3457.751192824637
1630.4270542001905 4043.138644106394
1631.1776966578382 3565.992862699699
1631.9281572331747 3506.3489442900873
1632.678435973945 3688.2159912736743
1633.4285329278573 3628.299338562088
1634.1784481426203 3313.741547794474
1634.9281816659113 3385.0549998507436
1635.677733545388 3796.0313927563525
1636.4271038286934 3396.9207254651556
1637.176292563452 3552.496777339695
1637.9252997972635 3577.2586990403493
1638.674125577716 3695.3169281730925
1639.4227699523672 4000.0962663879413
1640.171232968767 3283.7284285890833
1640.9195146744423 3490.1721646793653
1641.6676151168977 3688.052496756021
1642.4155343436178 3761.000511950777
1643.1632724020765 3519.3072509611484
1643.9108293397167 3555.0200986079717
1644.658205203974 3422.949275288068
1645.4054000422566 4057.644694800686
1646.1524139019566 3531.1762705576075
1646.8992468304423 3338.004470395163
1647.6458988750728 3477.3205099909974
1648.3923700831765 3524.2893831111637
1649.1386605020743 3358.033463372524
1649.8847701790564 3658.4386052239215
1650.6306991614038 3585.36068977316
1651.3764474963682 3719.461616110673
1652.1220152311944 3238.262415712169
1652.867402413096 3496.9028021610648
1653.6126090892776 3503.5635009839366
1654.3576353069184 3843.7310051998807
1655.1024811131829 3534.5826005868576
1655.8471465552066 3434.432627611637
1656.5916316801213 3690.2525174926814
1657.3359365350298 3590.456041155525
1658.0800611670165 3454.380498090503
1658.824005623148 3454.552778397972
1659.5677699504722 3397.49360457844
1660.3113541960192 3592.0639147709453
1661.054758406799 3380.0172300956365
1661.7979826297997 3231.288950860674
1662.5410269119966 3301.65110631781
1663.283891300338 3579.9180411761627
1664.0265758417645 3296.3368593877676
1664.7690805831826 3470.3326400403685
1665.5114055714948 3686.2257186204124
1666.2535508535748 3767.1101677118
1666.9955164762814 3203.120038573747
1667.7373024864555 3451.220394052087
1668.478908930916 3451.767663699787
1669.220335856462 3347.6707024257753
1669.9615833098778 3359.8100736806214
1670.7026513379296 3320.6874007364663
1671.44353998736 3398.2328097285294
1672.1842493048916 3425.463384795722
1672.9247793372379 3284.089451535752
1673.6651301310812 3455.865203207227
1674.4053017330934 3327.0242543883205
1675.1452941899242 3403.951496117855
1675.885107548207 2959.001546323846
1676.6247418545518 3089.515558168861
1677.3641971555535 3156.403854469171
1678.1034734977893 3404.0026305552215
1678.8425709278108 3298.5234534968135
1679.5814894921605 3578.510738966641
1680.320229237359 3468.211165114554
1681.0587902098978 3584.971698893148
1681.7971724562685 3260.369622886453
1682.5353760229264 3173.771848478527
1683.2734009563173 3420.8538843257547
1684.0112473028657 3091.122512396069
1684.7489151089794 3311.0987494260007
1685.4864044210462 3365.3115057897767
1686.2237152854377 2939.0543648077282
1686.960847748498 3497.609699304904
1687.6978018565642 3144.9923418463127
1688.434577655944 3015.8437092479935
1689.1711751929379 3080.226940120253
1689.9075945138156 3358.212747735858
1690.6438356648396 3099.716036593533
1691.3798986922448 2763.5777400710776
1692.1157836422499 3157.5395435508763
1692.851490561059 3042.7304585089323
1693.587019494853 3154.2228282648116
1694.3223704897991 2907.472032577377
1695.0575435920364 2850.725013939925
1695.792538847696 3426.149953199608
1696.527356302886 3024.529581911412
1697.2619960036936 2841.766747443252
1697.9964579961907 2914.0854473585737
1698.730742326432 2534.3757094220773
1699.4648490404488 2794.8669844563474
1700.1987781842563 2964.142350684081
1700.9325298038548 3158.591296408981
1701.6661039452174 3365.0623780652713
1702.3995006543082 3047.9844733568807
1703.1327199770658 3240.1942370560687
1703.865761959416 2957.4217541722064
1704.598626647261 3230.3052042718364
1705.3313140864866 2945.9435265950224
1706.0638243229587 2898.3917142204223
1706.7961574025303 3071.2433001290274
1707.528313371029 2960.2819468044563
1708.260292274268 2778.858226835417
1708.9920941580403 2913.284973796545
1709.7237190681226 3041.7787943304693
1710.4551670502697 2940.8206917001908
1711.18643815022 2699.6474095765725
1711.9175324136959 3384.99286991218
1712.6484498863938 3014.8262992303075
1713.379190614005 2658.4637508392334
1714.109754642188 2797.672749314837
1714.8401420165883 2786.5047966940574
1715.570352782839 3156.9380017933227
1716.3003869865497 2964.7920553654585
1717.0302446733076 2752.9837913518963
1717.7599258886876 2900.1114444959558
1718.4894306782444 3251.903517313027
1719.2187590875183 2698.305723896131
1719.9479111620203 3152.836434752835
1720.6768869472544 2872.719684672628
1721.4056864887025 3217.3696975336597
1722.1343098318284 3292.8473438943706
1722.8627570220742 2997.935521511923
1723.591028104871 2773.7991330215946
1724.3191231256242 2697.210408298963
1725.0470421297232 2939.909761814299
1725.7747851625427 2935.9530275140482
1726.5023522694337 3037.9127549064474
1727.2297434957363 2970.2755875934954
1727.9569588867635 2649.1781025455684
1728.6839984878152 3014.7177844885655
1729.4108623441734 2468.5957283764405
1730.1375505011038 2957.888557847287
1730.8640630038426 2735.016829686373
1731.5903998976264 2715.5913760370977
1732.316561227657 2901.6358016124946
1733.0425470391274 2655.6049435542527
1733.7683573772065 2872.0134903028893
1734.4939922870508 2872.4415015068053
1735.2194518137949 2972.4274368237593
1735.9447360025606 2893.532958664527
1736.669844898439 2851.6037751061403
1737.3947785465189 2627.7680533761513
1738.1195369918605 2586.5715218881105
1738.8441202795093 2703.3068091752384
1739.5685284544943 2784.825424152069
1740.292761561821 2896.1340077137766
1741.0168196464838 2980.6415286926594
1741.7407027534518 2935.6817970160346
1742.464410927687 2876.115093707959
1743.187944214118 2739.0617534115327
1743.9113026576688 2608.8831960269217
1744.634486303241 2717.6518509418124
1745.3574951957125 2846.007558627214
1746.0803293799509 2984.7770508717726
1746.8029889008048 2754.159497591001
1747.5254738031017 2944.2648485948184
1748.2477841316504 2690.1529932849126
1748.969919931249 2671.995092780685
1749.6918812466665 2809.262927276087
1750.4136681226646 2943.721692353612
1751.1352806039777 2763.036986546124
1751.856718735331 2365.5873958686325
1752.5779825614281 2410.111642750015
1753.2990721269507 2845.956770481128
1754.0199874765676 2893.572743752814
1754.7407286549314 2485.3144534002768
1755.4612957066693 2629.9710459913263
1756.1816886763954 2538.0549757279578
1756.9019076087097 2877.9308212779156
1757.6219525481865 2706.4362796395662
1758.3418235393856 2738.678130525267
1759.061520626854 2660.2845598285176
1759.7810438551096 2888.7760472867185
1760.5003932686614 2579.6584642376147
1761.2195689119999 3003.531530035717
1761.938570829594 2819.045932440059
1762.657399065898 2784.480535159123
1763.376053665348 2524.616475689039
1764.0945346723602 2488.646029174065
1764.812842131334 2922.4676115274865
1765.5309760866512 2567.4719237160302
1766.2489365826787 2532.7509873970453
1766.9667236637597 2718.1681897031826
1767.684337374223 2351.3434491015933
1768.401777758383 2483.4131494798085
1769.1190448605284 2528.0256253491584
1769.836138724937 2484.885773366438
1770.5530593958665 2659.7942433986036
1771.2698069175603 3043.9105516878703
1771.9863813342326 2765.1463110236864
1772.702782690094 2480.0675699741596
1773.4190110293293 2840.9840490203387
1774.1350663961111 2791.7797328641695
1774.8509488345844 2546.758925059792
1775.5666583888924 2634.1251049949606
1776.2821951031437 2858.9208695862353
1776.9975590214362 2651.3810430178028
1777.7127501878585 2777.25322529548
1778.4277686464684 2757.6695949064
1779.1426144413108 2919.3305035625694
1779.8572876164162 2816.7604899040402
1780.571788215797 2424.37197055158
1781.2861162834415 2624.400857193406
1782.0002718633277 2555.423275292981
1782.7142549994132 2680.3455657986224
1783.4280657356376 2688.551630174781
1784.141704115922 2527.2060834593267
1784.855170184177 2553.5132783336408
1785.5684639842839 2686.3434176132328
1786.2815855601148 2389.1186403569804
1786.9945349555237 2719.320939245357
1787.707312214343 2479.253765428073
1788.4199173803918 2449.6760964475466
1789.132350497468 2420.2604739804833
1789.8446116093583 2556.638071033471
1790.556700759822 2487.0338491381212
1791.2686179926077 2528.8548165753596
1791.9803633514493 2469.8021778467632
1792.6919368800554 2406.509733513778
1793.4033386221236 2634.489505961856
1794.1145686213295 2720.690256461969
1794.8256269213307 2937.1147677433905
1795.536513565774 2649.442809408754
1796.247228598284 2278.3503367976014
1796.9577720624693 2505.597903112384
1797.6681440019165 2610.864940495964
1798.3783444602013 2549.3193967805737
1799.0883734808776 2745.202041976997
1799.7982311074884 2651.2747909484524
1800.5079173835475 2688.96051940574
1801.2174323525633 2615.1292187253
1801.9267760580187 2551.7740470903823
1802.635948543386 2605.558295523429
1803.3449498521113 2408.7630424660897
1804.0537800276325 2670.90288235515
1804.7624391133668 2588.0982923028246
1805.47092715271 2267.444653340732
1806.1792441890484 2415.6589245493096
1806.8873902657433 2706.8229638317184
1807.5953654261448 2619.071593295392
1808.3031697135812 2340.988143238409
1809.0108031713662 2515.588821914061
1809.71826584279 2565.5895700538786
1810.425557771141 2593.0856055435906
1811.1326789996747 2523.0170775149522
1811.839629571632 2452.729393365113
1812.5464095302468 2500.6449706463154
1813.2530189187182 2445.0513269273624
1813.959457780249 2546.242890404074
1814.6657261580076 2666.6914213304385
1815.371824095153 2529.1513099425993
1816.0777516348262 2714.9464736615278
1816.78350882015 2084.168143501548
1817.4890956942272 2357.078070621206
1818.1945123001533 2462.1267164269475
1818.8997586809928 2506.2074360257043
1819.6048348798067 2406.233024780565
1820.3097409396287 2466.2214968601024
1821.0144769034796 2880.1330706540657
1821.7190428143622 2623.8329757944966
1822.423438715261 2859.9233611151312
1823.1276646491478 2517.4420335543427
1823.8317206589727 2568.5746431090874
1824.5356067876692 2583.508923870187
1825.2393230781581 2477.370394823719
1825.942869573335 2152.6010195636504
1826.646246316086 2290.1067055308117
1827.3494533492758 2507.579920037232
1828.052490715756 2536.781603690813
1828.7553584583547 2587.0933943549835
1829.458056619891 2649.2906309371847
1830.1605852431585 2396.7577712186157
1830.8629443709433 2324.382234444095
1831.5651340460063 2439.9541276944296
1832.2671543110919 2269.1576537277674
1832.9690052089318 2560.519338875797
1833.6706867822395 2238.023106436757
1834.3721990737104 2465.9525173230622
1835.0735421260233 2675.1174751886388
1835.774715981841 2364.7760265596025
1836.4757206838058 2740.457579470274
1837.1765562745459 2348.3717245591515
1837.8772227966747 2344.1158035991234
1838.5777202927839 2451.244692578601
1839.2780488054523 2412.5935049455675
1839.9782083772352 2357.8461002377594
1840.6781990506806 2746.4975008208535
1841.378020868313 2474.466950991052
1842.0776738726418 2512.6148411989097
1842.777158106157 2307.3550099316903
1843.4764736113375 2279.441223603254
1844.1756204306403 2532.5738505290874
1844.8745986065078 2440.233918205929
1845.5734081813607 2198.7263141240805
1846.2720491976124 2350.4212833980246
1846.970521697649 2261.663378082025
1847.6688257238511 2421.61639020529
1848.3669613185684 2399.670667520106
1849.0649285241452 2111.0329288813327
1849.7627273829057 2477.5565985416506
1850.460357937156 2483.594544266913
1851.1578202291857 2189.4242261763
1851.8551143012664 2490.067832668904
1852.5522401956569 2404.5307607403183
1853.2491979545957 2672.52351762674
1853.9459876203055 2223.6899716434664
1854.6426092349902 2238.4717527379607
1855.3390628408451 2202.70289532088
1856.0353484800362 2656.2767730410405
1856.7314661947203 2535.655559024938
1857.4274160270397 2270.6325440406226
1858.123198019115 2386.5774855141162
1858.8188122130487 2135.7646296966404
1859.5142586509319 2288.1461640468565
1860.209537374838 2372.273569558096
1860.9046484268183 2374.0963887783355
1861.599591848917 2719.661040548357
1862.294367683151 2359.4181850286395
1862.988975971528 2367.2198270235103
1863.6834167560355 2403.7143469010434
1864.3776900786452 2657.8965670934263
1865.0717959813119 2250.2962704362317
1865.7657345059724 2198.7346297245663
1866.4595056945564 2403.670889729204
1867.1531095889586 2541.766429605343
1867.846546231076 2164.5656859723163
1868.5398156627743 2643.086419954218
1869.2329179259123 2239.1753018262816
1869.9258530623283 2567.034836303708
1870.618621113843 2189.4982684256183
1871.3112221222636 2190.3970442024624
1872.0036561293764 2250.0740064064958
1872.695923176956 2421.4184255219775
1873.3880233067594 2631.7000636817907
1874.0799565605212 2214.6699676806106
1874.7717229799673 2239.278605659306
1875.4633226068036 2569.018997095536
1876.1547554827175 2436.09508459643
1876.8460216493859 2246.450704276876
1877.5371211484617 2312.799264974069
1878.2280540215852 2558.7939873251507
1878.9188203103804 2073.068280020435
1879.6094200564548 2272.250020752125
1880.299853301396 2187.9999049317703
1880.9901200867826 2457.6116431798505
1881.6802204541673 2451.456208785389
1882.3701544450942 2519.0041049473157
1883.059922101087 2576.8294460647003
1883.7495234636517 2634.693343407086
1884.4389585742792 2195.7251964607444
1885.1282274744517 2165.121115102863
1885.8173302056166 2212.9275077951324
1886.506266809225 2260.801200722811
1887.195037326701 2096.2706020827372
1887.8836417994517 2267.4913850884477
1888.5720802688702 2661.6403459318276
1889.260352776333 2382.6670178262184
1889.9484593632042 2483.898334214555
1890.63640007082 2299.4636624275972
1891.3241749405151 2062.754539424577
1892.0117840135954 2509.68875054072
1892.6992273313572 2157.8170932333232
1893.3865049350788 2100.2606093610084
1894.0736168660223 2220.73902900897
1894.7605631654333 2341.328255898589
1895.4473438745408 2007.7785102664704
1896.133959034556 2206.1783679729347
1896.820408686679 2404.7302401425977
1897.506692872088 2750.166783622017
1898.192811631945 2309.9671069707333
1898.8787650073991 2347.478047620417
1899.5645530395832 2413.15123095768
1900.2501757696118 2506.1928610156947
1900.9356332385796 2650.7204490031877
1901.620925487574 2278.4962557604154
1902.3060525576602 2454.3116842491245
1902.9910144898859 2386.7644610593384
1903.6758113252872 2166.4795149510383
1904.3604431048789 2364.49603111785
1905.0449098696663 2345.232425121153
1905.7292116606295 2300.4009780908227
1906.4133485187394 2407.962351691202
1907.0973204849488 1993.718632680174
1907.7811276001976 2163.3251134952598
1908.4647699053967 2331.3822558430224
1909.1482474414588 1710.1301656958935
1909.8315602492694 2101.8559050968506
1910.5147083696957 2638.4216092681945
1911.1976918436012 2259.0489775931205
1911.880510711815 2119.1188936556077
1912.5631650151681 2472.4833531347267
1913.2456547944657 2206.0910657423115
1913.927980090495 2267.5937268194484
1914.6101409440362 2143.6905788413465
1915.2921373958416 2403.817191802751
1915.9739694866603 2283.5901789886984
1916.655637257214 2563.7017938171493
1917.3371407482136 2230.580583322765
1918.0184800003572 2576.83886184751
1918.6996550543154 2476.7443580654167
1919.3806659507554 2222.4201058903145
1920.0615127303208 2316.643596670662
1920.7421954336423 2507.4526440720515
1921.4227141013343 2389.8747817764506
1922.103068773993 2399.5031046208
1922.783259492202 2529.1714552785115
1923.4632862965227 2254.191955010828
1924.1431492275078 2131.7322572792827
1924.8228483256917 2078.190073724705
1925.5023836315922 2218.6664223649987
1926.1817551857057 1920.7585125579385
1926.8609630285227 2495.864969270863
1927.5400072005123 2291.372940152103
1928.218887742125 2264.4382690269317
1928.8976046938005 1994.996951147427
1929.5761580959588 2312.114993112504
1930.2545479890086 2280.878499712453
1930.9327744133352 1997.827145988152
1931.6108374093164 2286.2177633793585
1932.2887370173066 2530.077283755731
1932.9664732776473 1963.3933936558872
1933.6440462306673 2322.4966678639357
1934.3214559166754 2158.675157636698
1934.9987023759659 2815.7180556238973
1935.675785648813 2427.4700490873856
1936.3527057754836 1884.8082551540672
1937.029462796223 1975.5373914066724
1937.70605675126 2066.5064130225246
1938.3824876808085 2016.4702992662956
1939.058755625072 2260.6250323254453
1939.7348606242267 2106.8566915041447
1940.4108027184448 2236.2316365665324
1941.0865819478713 2299.011105658257
1941.7621983526478 2133.2754665601674
1942.4376519728921 2049.5067154812386
1943.1129428487038 2287.684886715825
1943.7880710201734 2260.448528308175
1944.4630365273733 2355.1264520341597
1945.1378394103576 1993.9688038297402
1945.8124797091714 1973.8342979809363
1946.4869574638324 1953.5907876177232
1947.161272714353 2146.461585455528
1947.8354255007234 2386.956079488785
1948.5094158629272 2131.056321993367
1949.1832438409183 2335.1542973321198
1949.8569094746435 2423.421434840964
1950.530412804037 2431.4028042592067
1951.2037538690092 2396.7117130166
1951.8769327094578 2184.263445512241
1952.5499493652678 2112.2816071963907
1953.222803876306 2546.7413065853834
1953.895496282421 2272.3059244390033
1954.5680266234522 2330.4169286157894
1955.2403949392155 2336.8564208827706
1955.9126012695142 2035.0763802770769
1956.5846456541403 2232.502414074287
1957.2565281328643 2222.230423052205
1957.9282487454457 2411.341329492456
1958.5998075316202 2308.45636448621
1959.27120453112 2201.6001866423294
1959.9424397836501 2187.6823372665444
1960.613513328908 2317.8480341589743
1961.2844252065697 2444.2816879668894
1961.9551754563017 2024.0600561944361
1962.6257641177453 2138.515513347643
1963.29619123054 1803.7748524502008
1963.966456834296 2014.439097459359
1964.6365609686181 2020.5590271064248
1965.306503673086 2286.6049106748146
1965.976284987275 2000.1085827639952
1966.645904950734 2136.1808936947664
1967.315363603002 1791.9841037056838
1967.9846609836077 2109.4836854190967
1968.6537971320486 2153.710498237443
1969.3227720878222 2237.3717483298647
1969.9915858904042 2162.0212810851544
1970.660238579252 2352.4527809984943
1971.3287301938108 2175.4636567038706
1971.997060773514 2054.8953328823513
1972.665230357772 2007.6697770603314
1973.3332389859843 2173.5191569384124
1974.0010866975335 2039.5221506141752
1974.6687735317864 2251.587179252766
1975.3362995280932 2273.401251199143
1976.003664725793 2256.4011069104317
1976.6708691642052 1900.1339788880177
1977.3379128826364 2025.8035881825258
1978.004795920373 2377.517478526353
1978.6715183166925 2470.5314399206563
1979.3380801108524 1769.1947894316058
1980.0044813420973 2240.026465933695
1980.6707220496555 1745.4646149608748
1981.3368022727373 2141.2620799989522
1982.0027220505417 2177.995932849688
1982.66848142225 1750.7340507739475
1983.3340804270283 1839.5400345372832
1983.999519104027 2207.2733564484197
1984.6647974923835 2197.468165269138
1985.329915631215 2223.780584249932
1985.99487355963 2129.4221464978136
1986.6596713167146 2235.061905095752
1987.3243089415428 2001.3438786305683
1987.9887864731754 2459.761579856355
1988.6531039506553 1946.2469180960536
1989.3172614130071 2523.5354084570818
1989.9812588992481 2032.4885847739802
1990.645096448372 1808.6985367877346
1991.3087740993633 2077.6557041493365
1991.9722918911848 2129.2306067394993
1992.635649862792 2242.807016661275
1993.2988480531185 2115.990579981348
1993.9618865010852 2079.967745073591
1994.6247652455968 2043.964380131627
1995.287484325545 2017.6665134353862
1995.9500437798033 2034.2375722464742
1996.6124436472292 1982.5257071694618
1997.2746839666706 2300.7574381318027
1997.936764776954 2008.8088027115487
1998.598686116895 2044.0128218127713
1999.2604480252903 2477.2780669897356
1999.9220505409212 2337.353344475438
2000.5834937025593 1942.0095528109177
2001.2447775489582 2007.8014889086382
2001.9059021188514 2213.6630645302043
2002.5668674509616 1844.385710905731
2003.2276735839987 1986.1374416445299
2003.8883205566508 2000.4545952321291
2004.5488084075987 2014.726173485315
2005.2091371755014 2001.6325921563941
2005.8693068990033 1923.4195287839932
2006.5293176167397 1917.7209831177995
2007.1891693673224 1912.1858506625024
2007.848862189354 1874.6499817184363
2008.5083961214223 2029.3451469496329
2009.1677712020955 1938.09372306181
2009.8269874699254 1859.2479393153899
2010.4860449634598 1865.7964635037133
2011.1449437212177 1872.472141860962
2011.8036837817108 2312.008937366861
2012.4622651834325 2384.447650517615
2013.1206879648653 2239.140775679909
2013.7789521644736 2440.9827404750536
2014.4370578207036 2267.002712443479
2015.0950049719922 2092.462882172822
2015.7527936567585 2279.111434214553
2016.4104239134067 2093.3761989373
2017.067895780323 2677.08661427897
2017.725209295886 2587.6272193805094
2018.3823644984514 2497.855708321466
2019.0393614263648 2239.968230622504
2019.6962001179545 2114.3006963589087
2020.3528806115355 2326.968606276942
2021.0094029454067 2182.954267257535
2021.6657671578487 1771.5958911786315
2022.321973287133 2130.229545325426
2022.9780213715148 1875.2240469450644
2023.6339114492293 2208.447581355018
2024.2896435585026 2092.686592500873
2024.9452177375442 2017.5524016903917
2025.600634024544 2403.601990510997
2026.2558924576842 2216.5878270542853
2026.9109930751292 2253.93562556103
2027.565935915025 1960.9487446947564
2028.2207210155066 2400.6118208078906
2028.8753484146964 2475.338022967896
2029.529818150695 2393.9488416652603
2030.1841302615903 2312.141333582107
2030.8382847854573 1871.0479769938233
2031.4922817603601 2283.88149765597
2032.1461212243357 2050.2413484325953
2032.7998032154192 1794.9328389712286
2033.4533277716218 2038.2922798023483
2034.1066949309443 1908.3381152690843
2034.7599047313688 1900.0445432990484
2035.4129572108704 2233.877798168688
2036.0658524074006 2149.658775034617
2036.7185903589016 2264.8274512203066
2037.3711711032956 2116.6483707907555
2038.023594678496 2086.5126005161687
2038.675861122394 1944.909379848504
2039.3279704728757 1877.3349230113727
2039.9799227678031 1809.7791237993126
2040.6317180450278 2009.458111249857
2041.2833563423865 1904.3251932504306
2041.9348376977014 2459.369976852966
2042.5861621487784 2225.2876415644437
2043.2373297334088 2278.04430056398
2043.8883404893695 2059.586889693052
2044.5391944544208 2134.2168634330983
2045.1898916663158 2292.6107994926774
2045.8404321627804 2366.025744823652
2046.4908159815368 1936.6638736698671
2047.1410431602853 1981.556313987705
2047.7911137367173 1813.405312708071
2048.441027748504 1844.5948441737796
2049.090785233302 1875.7458023241518
2049.7403862287592 1971.991898069553
2050.389830772503 1916.182039697652
2051.0391189021466 1860.3737304402453
2051.688250655294 2112.0417467767656
2052.337226069527 1861.359576235954
2052.986045182417 1779.899151076685
2053.634708031521 1698.466888307749
2054.283214654375 2112.4823283638652
2054.931565088511 1799.5236388391545
2055.579759371436 1717.5259376568415
2056.2277975406523 2037.6678650825518
2056.8756796336384 2259.723656887714
2057.5234056878617 1717.8558797932728
2058.1709757407752 1943.9808843969665
2058.8183898298194 2341.044089926535
2059.465647992416 2344.9464525135
2060.1127502659747 2303.3486554112783
2060.759696687888 2208.967990816985
2061.4064872955405 2114.587929902006
2062.053122126292 1872.9154007245475
2062.699601217497 2131.7995890126776
2063.345924606485 1833.5752092830342
2063.992092330587 2058.803957994004
2064.638104427102 1889.3604715357337
2065.283960933324 1978.1117562835886
2065.92966188653 2066.963703360892
2066.5752073239855 2191.700787419706
2067.2205972829397 1901.6454291462876
2067.86583180062 2107.1918315525463
2068.5109109142522 1954.5493958908642
2069.15583466104 1967.9787603258264
2069.8006030781708 1749.1012148409209
2070.445216202821 1924.2298086100843
2071.089674072153 2253.384841957043
2071.7339767233116 2292.040673261021
2072.3781241934303 1869.8198871219672
2073.0221165196253 2130.978338272522
2073.6659537390024 1903.671002233615
2074.3096358886505 2166.40865814134
2074.953163005637 1937.8828351109719
2075.596535127028 1615.31302661603
2076.2397522898664 1816.691719123703
2076.882814531182 2134.037280001502
2077.5257218879924 1962.3175368763018
2078.1684743973 1676.8077075393026
2078.8110720960885 1817.8717503839537
2079.453515021336 1940.1183339685053
2080.095803209997 2062.4537543305237
2080.7379366990135 2065.862447372102
2081.37991552532 2209.55580029283
2082.0217397258275 2151.9658826326745
2082.6634093374414 2151.3421601180466
2083.3049243970418 2150.8058574692104
2083.9462849415067 2157.907544681412
2084.587491007689 2172.111513535429
2085.2285426324324 2005.2455151959318
2085.869439852564 1919.1080406144963
2086.510182704902 1788.9363388757392
2087.1507712262483 2055.5648641206367
2087.791205453381 1673.8639944158454
2088.4314854230743 2108.891959940902
2089.0716111720867 1906.3895694133093
2089.7115827371617 1657.1164493570875
2090.351400155023 1714.921135158106
2090.991063462385 1772.9157294696743
2091.6305726959527 1775.8048679889678
2092.2699278924047 2097.0367001397412
2092.9091290884153 1836.6930666947217
2093.548176320641 1832.8480721138458
2094.187069625721 2036.0182743691062
2094.8258090402887 2107.916416254324
2095.464394600951 2179.9750070343407
2096.102826344313 1952.3929736363177
2096.741104306955 2234.141276064801
2097.379228525453 1944.979002313426
2098.017199036358 1677.5361718416948
2098.6550158762147 2208.586852972944
2099.2926790815527 2181.504439072162
2099.9301886888825 1994.8674279497623
2100.5675447347076 1903.5801507103174
2101.2047472555114 1862.3932737008322
2101.841796287761 1821.12251937939
2102.47869186792 2130.2990047161397
2103.1154340324265 1801.2889853312695
2103.752022817709 1995.836123095646
2104.388458260184 1825.46268762749
2105.024740396251 2072.921132086124
2105.660869262292 1814.0375702564095
2106.296844894685 2255.5476509370887
2106.93266732978 2065.7046614745427
2107.5683366039284 1849.1315624027109
2108.2038527534532 2064.7040294522544
2108.8392158146726 2229.2530145410265
2109.4744258238843 1844.0118526655483
2110.1094828173755 1942.6034525117855
2110.744386831422 2242.6335344730805
2111.3791379022787 2006.7756718838104
2112.01373606619 2341.5490076116357
2112.648181359389 2077.3949806117007
2113.28247381809 1985.6577846025211
2113.916613478492 2045.1593734279672
2114.550600376786 2010.0229959056621
2115.1844345491445 1969.8277470158105
2115.818116031729 1771.2620925403655
2116.451644860679 1941.1880591039564
2117.085021072133 1587.136994219863
2117.718244702204 1953.4965225773856
2118.3513157869984 1822.1167577151423
2118.984234362604 1630.525147328595
2119.617000465092 1797.0037449316326
2120.249614130529 2191.435853138842
2120.8820753949585 1990.9894453390684
2121.5143842944162 1869.9969591081845
2122.14654086492 1844.660709198481
2122.7785451424734 1760.4822337941666
2123.4103971630702 1676.3300139268044
2124.042096962681 2047.8189666165417
2124.6736445772767 2125.7203653700676
2125.305040042802 1826.0919154102187
2125.936283395191 1918.8387153593776
2126.567374670365 2040.2099387044195
2127.198313904233 1893.949488452027
2127.8291011326855 1817.8603437651025
2128.4597363916037 1741.3959808316988
2129.0902197168507 1853.571052916786
2129.720551144279 2159.240267213273
2130.3507307097225 2465.2026369900914
2130.980758449008 2198.910194109146
2131.6106343979427 2265.030960066631
2132.2403585923203 2331.108935995656
2132.8699310679276 2132.6037489202686
2133.499351860526 2258.4914936570854
2134.1286210058715 1962.2867501631056
2134.7577385397053 1663.340508255244
2135.3867044977487 2194.488768968416
2136.0155189157176 2253.4123931208787
2136.644181829308 2216.1453820827855
2137.2726932742025 1947.138823726241
2137.901053286074 2202.0295968961664
2138.5292619005777 1755.8039642113188
2139.1573191533535 1757.3451483426493
2139.7852250800315 2103.4532830781745
2140.4129797162295 2105.3915488583616
2141.0405830975433 1689.1378857008774
2141.6680352595613 1736.7687425459444
2142.2953362378576 1784.5106219458582
2142.9224860679915 1894.8985453574048
2143.549484785508 1717.178288189433
2144.1763324259373 1941.6363581971195
2144.803029024799 1740.7460791427147
2145.429574617594 1965.5039365598466
2146.0559692398165 2153.7080562521264
2146.682212926942 1786.968316888464
2147.308305714432 1884.7600173676462
2147.9342476377333 2173.333944218336
2148.5600387322847 2305.6747947099107
2149.185679033506 2001.4764517579297
2149.8111685768017 1723.771118952484
2150.4365073975678 1640.9184841201227
2151.061695531187 1870.7835244055411
2151.686733013021 2286.478930531509
2152.311619878423 2057.3761542610423
2152.9363561627342 1943.0345420463625
2153.560941901278 1859.1371550190593
2154.1853771293663 2007.0597622362827
2154.809661882293 1917.5299748718367
2155.433796195348 2399.1929384842883
2156.0577801037944 2293.1816844788705
2156.681613642895 2186.834597931504
2157.3052968478896 1665.4681340441955
2157.928829754006 2077.814525356458
2158.552212396462 2181.6206124454134
2159.1754448104566 1958.5729435972976
2159.7985270311783 1681.36684326053
2160.4214590938027 1370.464781978995
2161.0442410334927 1459.2692932656523
2161.6668728853874 1650.3645832459301
2162.289354684628 1841.8695153421158
2162.911686466332 1922.4766334819087
2163.533868265602 1957.8706293298087
2164.1559001175337 1980.9414019754465
2164.7777820572046 2003.9663099532318
2165.399514119681 1927.6484696014825
2166.021096340013 1670.6020129244087
2166.6425287532384 2281.7383154888767
2167.263811394385 1629.1133473339655
2167.8849442984574 2264.9853639392068
2168.505927500455 1774.4636914480866
2169.126761035366 2020.619781549798
2169.7474449381552 1845.3896698929889
2170.367979243778 1979.3686068465395
2170.9883639871823 2113.7936402935106
2171.608599203293 1821.426454814546
2172.2286849270276 2420.549817033342
2172.8486211932886 2438.247350410339
2173.4684080369625 1945.974373229301
2174.0880454929265 1666.0996356603457
2174.7075335960417 1574.3874592860325
2175.3268723811543 1589.5770323842721
2175.9460618831 1604.8279791908744
2176.565102136701 1842.9148228860813
2177.1839931767627 1794.881116432301
2177.802735038078 1746.7462446286252
2178.421327755432 1731.7602749781672
2179.0397713635866 1668.7143746713944
2179.658065897298 1770.9434633058313
2180.276211391305 2121.8950535738213
2180.8942078803357 1831.3972523552686
2181.5120553991 1999.5646079673509
2182.129753982299 1543.2046709796816
2182.7473036646206 1786.5640773107177
2183.3647044807367 2089.653463589185
2183.9819564653044 2009.3807695835712
2184.599059652968 1928.984503424752
2185.216014078367 2095.925611220769
2185.832819776113 2105.2225684765176
2186.4494767808137 2114.42113875666
2187.065985127063 1909.606002653782
2187.682344849436 1771.9268720152863
2188.298555982501 1801.3029855877758
2188.9146185608097 1830.6152063170164
2189.530532618901 1999.1501373486674
2190.1462981912937 2177.478925702908
2190.761915312507 1873.2030502224418
2191.377384017036 1889.8375217261269
2191.9927043393654 2128.749966819411
2192.6078763139667 2292.4863587190034
2193.2228999753006 2456.6080303224703
2193.837775357808 1792.0021954291701
2194.452502495922 1517.4106152188356
2195.0670814240602 1876.4773478303778
2195.6815121766285 1674.0637527033437
2196.2957947880186 1562.5109920971504
2196.9099292926057 1450.738477334723
2197.523915724758 1972.1248949360784
2198.137754118825 1888.8545811328063
2198.7514445091456 2218.9862598599493
2199.3649869300443 2331.2330703846187
2199.9783814158327 2443.839952139049
2200.5916280008096 2410.862624396485
2201.2047267192593 2153.48936090032
2201.8176776054515 1963.4485145414226
2202.430480693649 1750.7325449412554
2203.0431360180955 2129.762081068917
2203.6556436130195 2193.8187141097433
2204.268003512645 1474.6865532212867
2204.8802157511727 1792.2351482338267
2205.492280362796 1873.8090895872417
2206.1041973816937 1955.666730921845
2206.715966842032 1887.0327362892622
2207.3275887779655 1879.8839830482677
2207.93906322363 2044.0535740858625
2208.550390213153 1967.6434764333248
2209.1615697806465 2100.67367100291
2209.7726019602105 1735.8192791283186
2210.3834867859277 1605.7804147630904
2210.9942242918787 1754.9346658066763
2211.6048145121167 1875.817498521496
2212.2152574806914 2675.0735756844824
2212.825553231638 1686.5319311149474
2213.435701798975 2608.225976350874
2214.045703216707 1987.0269033179804
2214.655557518832 1392.177393958262
2215.2652647393297 1583.39235188087
2215.874824912169 1345.1972771576332
2216.4842380713 2007.4337592674224
2217.09350425067 1627.2434449653254
2217.7026234842033 2159.1789877873066
2218.311595805819 2074.8986275407997
2218.9204212494133 1913.1962770782175
2219.52909984888 2168.4019166233893
2220.137631638092 1572.5370961729886
2220.7460166509154 2177.1886157103163
2221.354254921198 1591.3941575449749
2221.9623464827764 2020.5641337854038
2222.5702913694713 1967.8492731882366
2223.178089615096 2209.8017911236993
2223.7857412534486 1872.2107853838006
2224.39324631831 1523.896305367461
2225.000604843457 1558.4327384710316
2225.607816862641 2161.529800049114
2226.214882409611 2093.9404127990606
2226.8218015180973 2008.7621304140328
2227.4285742218217 1917.5240025921
2228.0352005544864 1881.0422016481116
2228.6416805497847 1634.4867028663245
2229.248014241399 1823.6700735249597
2229.8542016629945 1502.8623434012266
2230.460242848223 2051.8613615124677
2231.0661378307304 1833.938280134512
2231.671886644139 1615.8090530492095
2232.277489322065 1611.009533586575
2232.8829458981127 1215.1633938630098
2233.48825640587 1832.7410535150768
2234.0934208789095 2475.8797699421384
2234.6984393507955 2136.688475116037
2235.3033118550793 2065.2943562663095
2235.9080384252975 1729.8429891046228
2236.5126190949723 1507.819059366769
2237.1170538976166 1818.7544175775897
2237.721342866729 1532.1890461155524
2238.32548603579 1804.1698916072041
2238.9294834382763 2003.3439941006059
2239.533335107646 1818.7878640471347
2240.1370410773434 1897.9593259713408
2240.740601380803 1693.9190703172749
2241.3440160514474 1839.2415325059014
2241.9472851226783 2001.0042687115188
2242.550408627896 2093.901835012968
2243.1533866004793 2237.066705293551
2243.756219073799 1930.908711000236
2244.3589060812064 1664.0779314539475
2244.961447656049 1622.7416509046748
2245.5638438316564 1885.8531231072095
2246.166094641343 2060.736803717314
2246.7682001184166 1664.3721910151412
2247.3701602961664 1658.6056647754187
2247.971975207871 2148.4361046463614
2248.5736448867974 2190.6256085394775
2249.175169366197 1902.7618940566215
2249.7765486793123 1852.3457840261121
2250.3777828593684 1984.8875565135925
2250.9788719395783 1865.6442265552578
2251.579815953146 1847.5338392637998
2252.1806149332606 1569.663816417064
2252.781268913097 1867.766412520484
2253.381777925817 1749.3678015265984
2253.9821420045737 1861.0571234953647
2254.5823611825035 2082.118580282152
2255.1824354927303 1797.5601268138712
2255.782364968365 1701.4125575109342
2256.38214964251 1605.184928793784
2256.9817895482483 1537.3737577412753
2257.5812847186553 1753.2433599469205
2258.180635186791 1669.0271461090226
2258.779840985704 1762.1655111141984
2259.37890214843 1763.703213390771
2259.97781870799 1857.9129866083654
2260.5765906973957 1952.3064651668763
2261.175218149645 2023.4701553065538
2261.773701097718 1782.830031422601
2262.3720395745895 1541.7260213510867
2262.970233613216 1438.596815624788
2263.568283246548 1683.4897525789033
2264.1661885075137 1671.0989494427954
2264.763949429038 1717.7732177832318
2265.3615660440246 2315.281242522374
2265.959038385374 2281.9745220678865
2266.5563664859637 2248.6785354805274
2267.153550378669 1730.343389695663
2267.7505900963424 2325.3578183256436
2268.3474856718312 1680.0551686378392
2268.9442371379664 1735.067654018031
2269.5408445275643 1878.8114773994798
2270.1373078734377 1773.8454179551268
2270.7336272083758 1668.6605076661176
2271.32980256516 1664.3017198527207
2271.925833976562 1859.1624843008674
2272.5217214753357 1785.090160334589
2273.117465094223 1710.833749509214
2273.7130648659586 1577.2187317632388
2274.308520823257 1792.6723115741638
2274.903832998827 1908.4127078472989
2275.4990014253563 1765.3177093982727
2276.094026135528 1961.4620237237455
2276.6889071620117 1685.193454650423
2277.2836445374614 1924.770171022286
2277.878238294519 1912.4167402650558
2278.472688465812 1760.5801748248518
2279.066995083962 1608.4549770852027
2279.6611581815705 1767.8211574746565
2280.255177791232 2105.942442382714
2280.8490539455233 1884.7159076582407
2281.442786677013 2174.7061890587925
2282.0363760182554 2042.8938916566954
2282.6298220017943 1675.7734427943997
2283.223124660155 2199.8881609384484
2283.816284025859 1743.4083890940055
2284.4093001314086 2236.1307388697505
2285.002173009292 1788.1541514520045
2285.5949026919952 1830.9861659974335
2286.1874892119777 1939.7436186491457
2286.7799326016993 1921.493835794384
2287.3722328936 1657.90396023361
2287.964390120109 1472.3219680123907
2288.556404313642 1912.9869062426455
2289.1482755066027 1833.4472022254208
2289.7400037313873 1753.6963800487563
2290.3315890203703 1775.5941489593163
2290.9230314059205 1791.222425795201
2291.5143309203904 1806.9317456222623
2292.1054875961236 1946.1831106030418
2292.6965014654506 2199.8428458712215
2293.287372560684 1994.337255459708
2293.878100914131 1921.8364978304958
2294.468686558086 1849.2427914200666
2295.059129524827 1719.2610302014273
2295.649429846617 2026.8775883199196
2296.239587555716 1858.4775179237076
2296.8296026843636 1911.4280342196562
2297.419475264791 1773.5092688558811
2298.0092053292137 1635.2235721536902
2298.598792909839 2146.9900182949646
2299.1882380388597 1998.1320760623494
2299.777540748455 2409.744549703454
2300.3667010707904 2053.7358399540885
2300.9557190380256 2112.694265484269
2301.544594682302 1879.487278110861
2302.1333280357503 2176.7996445139856
2302.721919130485 1929.722301933551
2303.3103679986198 2302.3236030596536
2303.898674672242 2228.31957604633
2304.486839183437 1801.7974247637624
2305.0748615642697 1740.6335444658876
2305.6627418468015 1957.0508201518282
2306.2504800630704 1731.4605837299332
2306.8380762451143 1930.7378050590792
2307.425530424949 1950.7682357719527
2308.012842634582 1970.8294457597035
2308.6000129060103 2273.2791556396464
2309.187041271214 2496.81849256226
2309.773927762164 2343.5702146187687
2310.3606724108213 2190.023026547707
2310.9472752491274 1713.3425978948194
2311.5337363090184 1996.2338398488555
2312.120055622414 1936.6094468010695
2312.706233221221 1888.2961834149658
2313.2922691373424 1553.1020096494474
2313.8781634026564 1705.1167667665984
2314.463916049037 1857.4767744475394
2315.049527108342 2048.8211377687035
2315.6349966124235 2392.0513583736147
2316.2203245931123 2312.4154620920744
2316.8055110822315 1694.5663944414464
2317.3905561115935 1627.0781473263273
2317.9754597129977 1784.3574780826373
2318.560221918229 1652.2443766765161
2319.1448427590603 1519.8673671394574
2319.729322267256 1639.5033111229982
2320.313660474563 1905.7413155166469
2320.8978574127195 1929.8417260600577
2321.481913113452 1954.1022110861536
2322.0658276084705 1661.5127268785673
2322.6496009294806 2006.3708710168837
2323.233233108165 1808.4504846497305
2323.8167241762058 1869.6367668174075
2324.4000741652617 1919.1706063267327
2324.983283106987 2198.856461149193
2325.5663510330232 2255.3313696728574
2326.1492779749933 1761.0633384161115
2326.7320639645204 2135.2439032460748
2327.3147090332004 2391.741826558967
2327.897213212629 1793.369001485046
2328.4795765343843 1994.7034591843033
2329.0617990300307 1564.927156437068
2329.643880731124 1709.6690720321185
2330.22582166921 1854.6865593093698
2330.807621875816 2326.927635524219
2331.3892813824623 1460.975824649919
2331.9708002206517 1469.0970884728952
2332.5521784218818 1665.8479487167483
2333.133416017634 1863.070556708247
2333.7145130393765 1674.4289039543378
2334.295469518571 2081.716947309603
2334.876285486658 2286.9518695568777
2335.456960975076 2239.1152354680585
2336.037496015242 2191.2104567075703
2336.6178906385667 1793.2700794373675
2337.198144876451 2052.3655941161865
2337.778258760278 1979.3022006392996
2338.3582323214214 1983.3419504668327
2338.938065591243 1987.3412924726072
2339.517758601087 2213.330468256009
2340.0973113822965 2205.383584877949
2340.676723966193 1819.5824020536002
2341.255996384094 1966.4874759378777
2341.835128667295 2177.630786760638
2342.4141208470883 1935.8846047574389
2342.992972954751 2001.9439710114834
2343.5716850215467 1917.2834221438002
2344.1502570787306 1072.2784405127609
2344.7286891575386 1702.0923092413698
2345.3069812892045 2477.2308522832295
2345.885133504944 2099.8945863006993
2346.4631458359618 1584.276801480268
2347.04101831345 1630.627881966396
2347.6187509685915 1840.857727510674
2348.196343832553 1836.737539546571
2348.7737969364935 1862.2911240916696
2349.351110311558 1599.716585352364
2349.9282839888765 1592.030923344959
2350.5053179995757 1416.5003701093817
2351.0822123747585 1557.599378405215
2351.658967145526 1662.2170628700337
2352.2355823429643 1767.1078222735516
2352.812057998144 1867.0187909654057
2353.3883941421263 1826.6868235380498
2353.9645908059647 1956.9239624002942
2354.540648020693 1795.299055537223
2355.116565817336 1962.0256604938902
2355.6923442269126 1530.2033987475863
2356.2679832804224 1719.97535207927
2356.8434830088518 1804.9169744127562
2357.41884344318 1914.7414864752336
2357.994064614377 1768.707856186753
