#exp_cfg={"servo_angle": 0.0, "laser_lim": 100.0, "servo_angle_to": 18.0, "laser_wup": 0.0, "bt_dev": "EnSpectr-25AE3", "laser_wdn_max": 0.0, "frames": 10.0, "servo_used": 0, "servo_calib_use": 0, "laser_wdn_min": 0.0, "servo_pix_from": 90.0, "cooler_tout": 300.0, "servo_angle_from": 0.0, "servo_calib": "[-1.9174921013161362e-09, 3.9322238269163779e-05, -0.27385609119055809, 653.59552119713567]", "laser_autoctl": 0, "servo_pix_to": 3682.0, "laser_pw": 100.0, "cooler_on": 0, "laser_volt": 4.0, "cooler_autoctl": 0, "cooler_curr": 70.0, "cooler_startup": 10.0, "laser_fixed_pw": 0, "gain": 1.3, "offset": 2.53059635486, "servo_calib_degree": 3.0, "laser_curr": 55.0, "shutter": 8200.0, "servo_calib_step": 1.0, "laser_fixed_curr": 0, "exp": 2000.0, "ccd_volt": 4.7, "bt_addr": "00:06:66:62:5A:E3", "servo_delay": 500.0, "laser_autooff": 1}
#proc_cfg={"flat_auto_wnd": 200.0, "flat_auto_fr": 200.0, "flat_auto_shift": 5.0, "yconv": 1, "flatten": 1, "flatten_strength": 100.0, "xfrom": 300.0, "auto_max_frame": 2000.0, "auto_signal": 48000.0, "flat_auto_tol": 0.1, "autoclip": 1, "xrel_range": 0.0, "flat_auto_to": 4000.0, "intensity_adj": 1.0, "xrel": 7852.0, "rmhot": 1, "flat_auto_slit": 4.999999999999997, "auto_ini_exp": 300.0, "auto_off": 0, "xto": 2860.0, "flat_auto_ref": "", "flat_auto_rank": 1, "autobackg": 0, "xrel_adj": 0.0, "auto_black_lvl": 1, "base_wnd": 100.0, "sub_baseline": 0, "xconv": 2, "auto_max_exp": 1000.0, "auto_total_exp": 10000.0, "auto_exp": 0, "rmripple": 0, "black_lvl": 8282.425, "shutter_clip_adj": 0.0, "auto_bckg": 0, "flat_auto_thr": 0.9, "subbackg": 1}
316.8218498245369 24214.69588054519
317.89969571804795 24123.541519131162
318.977263876126 24123.776533083303
320.05455438786703 23837.829647053146
321.1315673423287 23890.595507794496
322.2083028285215 23969.2919075154
323.2847609354267 23835.012006388246
324.3609417519747 23775.239548017635
325.43684536705587 23598.163850092747
326.5124718695279 23579.667956526322
327.58782134820103 23427.06528308624
328.66289389184385 23509.46923165679
329.7376895891921 23302.666555937172
330.8122085289342 23174.432348233964
331.88645079971866 23266.0952628371
332.9604164901575 23059.9095591272
334.03410568881554 23001.85671664039
335.1075184842266 23106.53594341969
336.18065496487543 22862.345020185967
337.2535152192122 23015.992729632173
338.32609933564163 22944.773850631736
339.39840740253203 22846.231403127058
340.4704395082099 22744.800825534752
341.5421957409617 22674.793449507633
342.6136761890357 22810.751081932172
343.6848809406365 22599.996765267868
344.75581008392874 22469.249238914028
345.82646370703696 22537.540828407105
346.8968418980512 22450.64960615972
347.96694474501055 22506.865869747668
349.0367723359268 22433.633043332167
350.106324758759 22295.047873672564
351.1756021014353 22222.795706412307
352.2446044518383 22132.173327649067
353.31333189781435 22319.070711131
354.38178452716966 22131.874454176017
355.449962427665 22190.477086276573
356.51786568702846 22207.028209075415
357.58549439294256 22240.23754944043
358.6528486330535 22288.65718482742
359.71992849496564 22061.109377590034
360.7867340662433 22099.249252375615
361.8532654344144 22183.67479318099
362.9195226869597 22221.57298388768
363.9855059113288 22133.041110237627
365.05121519492604 22031.07769202085
366.11665062511565 22144.031669869997
367.1818122892273 22141.75823838289
368.2467002745434 22174.411069373356
369.31131466831175 22156.823218740406
370.375655557742 22186.505578991066
371.4397230299983 22092.316575536202
372.5035171722102 22068.13753491258
373.5670380714637 22045.555594972833
374.6302858148101 22202.263879922357
375.6932604892554 22153.710532986606
376.7559621817709 22183.382731924154
377.81839097928605 21994.775092149677
378.8805469686886 22033.6632132106
379.94243023683157 22070.997552086334
381.0040408705263 21950.22517492208
382.0653789565458 21815.40428224809
383.1264445816196 22001.667346267386
384.1872378324406 21868.496499505287
385.2477587956637 21854.901843322972
386.3080075579037 21630.304993825317
387.3679842057336 21571.133800653297
388.4276888256918 21605.266582564393
389.48712150426945 21594.34063855786
390.54628232792857 21565.351425047316
391.6051713830857 21456.982306198224
392.66378875611736 21546.188539593546
393.7221345333637 21474.812321043843
394.7802088011249 21323.711201375576
395.838011645661 21291.272242575196
396.89554315319765 21249.71817390817
397.9528034099112 21140.20343908113
399.00979250194723 21035.30195725577
400.06651051541485 21076.312250631632
401.1229575363741 20975.336425149864
402.17913365085224 20969.211476260207
403.23503894483656 20949.92653451875
404.2906735042761 20894.275859531823
405.3460374150818 20739.043002689163
406.401130763119 20726.794251101364
407.455953634224 20762.329411340783
408.5105061141876 20711.04197924774
409.56478828876243 20400.781605518627
410.6188002436629 20416.952799668867
411.6725420645689 20401.86779124255
412.72601383711117 20487.03175623758
413.77921564689314 20475.083967480543
414.8321475794728 20405.273787312544
415.88480972036814 20259.529775134477
416.93720215506437 20293.991273944655
417.9893249690049 20191.662115618026
419.04117824759123 20095.00541831992
420.09276207619223 20119.886141732986
421.144076540133 20033.863916231327
422.1951217247042 20045.64715253146
423.24589771515275 19920.144348748196
424.2964045966928 19924.992473270806
425.34664245449494 19898.79236897664
426.3966113736933 19882.465871536362
427.4463114393875 19780.06965608299
428.49574273662984 19780.790688659315
429.5449053504417 19659.386164311883
430.5937993658026 19906.51754397967
431.6424248676558 19683.6540497068
432.6907819409007 19654.67021848215
433.73887067040596 19661.47526461299
434.7866911409965 19629.961996108694
435.8342434374608 19554.318926254644
436.88152764455117 19580.45649496086
437.9285438469724 19523.987320094755
438.9752921294057 19491.05632814695
440.02177257648145 19559.03278548843
441.06798527279716 19358.107352417155
442.1139303029122 19569.40628925958
443.1596077513459 19420.997356099633
444.2050177025794 19441.812363265002
445.25016024105753 19391.10614600413
446.2950354511886 19433.580646296217
447.33964341733736 19472.949481640862
448.383984223834 19252.509493313824
449.4280579549686 19232.718098601246
450.471864694995 19336.154546383328
451.5154045281306 19316.160549404103
452.5586775385509 19255.162683877723
453.60168381039693 19234.820959538793
454.64442342776783 19388.977859445054
455.6868964747264 19321.821731106073
456.7291030353008 19228.8382515193
457.77104319347563 19269.170196107174
458.8127170332027 19205.306703082882
459.854124638392 19227.38192215797
460.895266092919 19259.15901204413
461.93614148061897 19350.90630321229
462.97675088529104 19478.683259174726
464.01709439069236 19342.585856025027
465.0571720805492 19382.206378893483
466.0969840385442 19366.365981040388
467.1365303483253 19577.08365400877
468.17581109350067 19445.14195485702
469.2148263576437 19357.75013225621
470.2535762242878 19493.77159656534
471.29206077693016 19594.485676540142
472.33028009902773 19622.315349586315
473.3682342740012 19633.81691954899
474.40592338523857 19530.14503350069
475.4433475160804 19644.497647071606
476.4805067498364 19596.399266837536
477.51740116978 19550.47583991148
478.5540308591426 19706.87488732998
479.59039590112116 19863.535532133094
480.6264963788726 19767.12739126077
481.6623323755193 19988.887071339836
482.6979039741436 19940.223587015196
483.7332112577915 20187.43513722183
484.76825430947247 20445.891648466455
485.80303321215797 20360.51067321478
486.837548048783 20522.97155606528
487.8717989022425 20765.230942486058
488.90578585539697 20611.809177723666
489.9395089910686 20914.341027792012
490.97296839203955 20694.243296249155
492.00616414106116 20627.787565445506
493.0390963208429 20574.47741210057
494.0717650140559 20633.72234129882
495.10417030333883 20295.2606686406
496.1363122712901 20283.882885244722
497.16819100046814 20110.176756902474
498.1998065734024 19873.57601622312
499.2311590725767 19716.124618630784
500.26224858044407 19583.985795890017
501.2930751794156 19333.011042867314
502.3236389518679 19343.992681339674
503.35393998014115 19105.26934338173
504.38397834653733 19031.91174041006
505.4137541333221 19018.573396158798
506.4432674227228 18869.053432977853
507.4725182969323 18702.242975995403
508.5015068381035 18727.688094724406
509.53023312835467 18694.031468062392
510.55869724976765 18653.015403896192
511.58689928438434 18493.3194340744
512.6148393142121 18369.55325280384
513.6425174212218 18499.045046168834
514.6699336873462 18405.04025795018
515.6970881944835 18445.907517458607
516.7239810244901 18346.564549275823
517.7506122591931 18373.96827026679
518.7769819803761 18376.351739461763
519.8030902697901 18304.79091035723
520.8289372091476 18267.388933344228
521.8545228801249 18446.77850475101
522.8798473643619 18308.002865752725
523.9049107434621 18278.17156201169
524.9297130989908 18368.30478416827
525.9542545124805 18308.578477914234
526.9785350654201 18171.976528154246
528.0025548392696 18221.865841298255
529.0263139154504 18120.14812173276
530.0498123753423 18217.6149573711
531.073050300296 18136.375983856542
532.0960277716204 18033.31112303261
533.1187448705896 18125.83373914027
534.1412016784416 17960.286002989502
535.1633982763833 17917.179894495643
536.1853347455726 17811.899703493804
537.2070111671401 17718.133537664755
538.2284276221817 17667.18622657075
539.2495841917516 17644.76316675319
540.2704809568677 17354.929123129
541.2911179985167 17493.623420141485
542.3114953976419 17407.880544857595
543.3316132351592 17375.8080625866
544.3514715919409 17228.66254945146
545.3710705488247 17255.440281998417
546.3904101866156 17142.775300151447
547.4094905860784 17204.943305893186
548.4283118279418 17113.011909514415
549.4468739929034 17217.237309866505
550.4651771616191 17013.96281300567
551.4832214147063 17023.44682590736
552.501006832761 17122.919790871463
553.5185334963226 17011.938125257766
554.5358014859103 17008.102849575233
555.5528108820035 16988.692517716132
556.5695617650363 16912.42501367657
557.5860542154242 17036.79097679782
558.6022883135283 17027.691896760032
559.6182641396881 16887.18160639392
560.6339817741991 16955.73951507538
561.6494412973225 16947.559057881244
562.6646427892883 17099.049001157662
563.6795863302796 16926.045923383044
564.694272000459 16835.84605729573
565.7086998799423 17041.765203497544
566.7228700488104 16981.62057610159
567.7367825871115 16850.065307889734
568.7504375748576 16923.273661045467
569.7638350920224 16873.96662246744
570.7769752185486 16822.32205380239
571.7898580343353 16848.437182622627
572.802483619258 16803.925621973693
573.8148520531431 17051.053656689404
574.8269634157932 16964.245652272053
575.8388177869692 16864.000165464873
576.8504152463938 16842.99647590617
577.8617558737587 17101.189782541995
578.8728397487175 16950.375573670935
579.883666950891 17041.041220688927
580.8942375598654 17258.66917587666
581.9045516551851 17389.28951114154
582.9146093163617 17626.658215902666
583.924410622878 17455.508557511566
584.9339556541727 17451.38797035119
585.9432444896538 17645.676877817907
586.9522772086875 17444.679750267103
587.9610538906127 17600.120271420492
588.9695746147318 17490.227495981035
589.9778394603054 17554.865000157388
590.985848506567 17407.19731148077
591.9936018327098 17305.19506947596
593.0010995178891 17120.759631763205
594.0083416412344 17225.198144563525
595.0153282818283 16906.524098688842
596.0220595187293 16886.62997932551
597.0285354309508 16842.393133064255
598.0347560974806 16870.494008459515
599.0407215972609 16741.354986017355
600.0464320092051 16709.238913457113
601.0518874121954 16643.98690639961
602.0570878850685 16675.29504723329
603.062033506636 16518.20597725267
604.0667243556636 16552.121577806265
605.0711605108936 16543.72777937002
606.0753420510264 16807.74306008523
607.0792690547278 16547.856857911655
608.082941600629 16586.248318400885
609.0863597673306 16644.76402956518
610.0895236333909 16836.689370466484
611.0924332773357 16989.61403939232
612.0950887776617 16916.81919906427
613.0974902128219 16985.946763972355
614.0996376612384 17204.371834724316
615.1015312013005 17293.037432252815
616.1031709113595 17405.785771785395
617.1045568697336 17375.490119240225
618.1056891547069 17542.653548437454
619.1065678445229 17782.3133043358
620.1071930173985 18144.893821074675
621.1075647515099 18160.527398217302
622.1076831250048 18306.21295208354
623.1075482159849 18522.64610954438
624.1071601025305 18634.681477083
625.1065188626781 18833.23078329584
626.105624574433 19203.60797886824
627.1044773157682 19252.236825928492
628.1030771646128 19371.747194577394
629.1014241988742 19581.445484882606
630.0995184964158 19762.627514458734
631.0973601350688 19823.95967723271
632.0949491926294 19994.532646336796
633.0922857468631 19764.54148302132
634.089369875499 19879.374651187914
635.0862016562278 19819.58177588079
636.0827811667077 19550.828405973596
637.0791084845641 19584.80481726086
638.0751836873878 19260.441569140134
639.0710068527369 19346.80954898542
640.0665780581294 18907.287630316292
641.0618973810506 18752.425870057632
642.0569648989604 18719.692933559185
643.0517806892676 18298.4830808288
644.0463448293649 18210.313194854964
645.040657396592 17947.78387631738
646.0347184682723 17796.018142601573
647.0285281216875 17541.409448979248
648.0220864340772 17473.408543658184
649.0153934826558 17285.188235750105
650.0084493446047 17134.4856488149
651.0012540970674 17071.98045724486
651.9938078171526 16939.026592601014
652.9861105819346 16774.14636184153
653.9781624684565 16792.66915240844
654.9699635537254 16496.54508019045
655.9615139147136 16603.766503915125
656.9528136283589 16420.79751000797
657.9438627715699 16563.110836175914
658.9346614212154 16349.394617863747
659.925209654135 16085.117847962654
660.9155075471263 16125.496456092656
661.9055551769616 16123.235189474693
662.895352620375 16235.026901744402
663.8848999540678 16061.123364145631
664.8741972547068 15768.289117403121
665.863244598926 15913.901217329903
666.8520420633213 15922.30896725319
667.8405897244611 15723.284821280851
668.8288876588758 15631.985333372006
669.8169359430613 15780.660294458692
670.8047346534822 15737.19830677783
671.7922838665672 15506.546212150022
672.7795836587156 15636.646832241197
673.766634106285 15786.44784394542
674.7534352856092 15541.661228398909
675.7399872729766 15556.676399172027
676.7262901446538 15530.888665833967
677.712343976862 15600.496277591394
678.6981488457986 15676.253039664161
679.6837048276229 15478.18802802679
680.6690119984596 15509.495657668569
681.6540704344043 15448.5406636009
682.6388802115107 15385.770996336865
683.6234414058108 15410.94622318319
684.6077540932874 15234.299758476429
685.591818349907 15255.062922238581
686.575634251587 15247.774316987623
687.5592018742263 15112.704703316325
688.5425212936734 15036.122620657019
689.5255925857564 15350.015556892336
690.5084158262707 15117.37752919436
691.4909910909646 15119.34405006459
692.4733184555644 14924.842557599433
693.4553979957618 15055.535051687102
694.4372297872123 14956.746440746594
695.4188139055404 14910.100188102293
696.4001504263324 14696.269126646075
697.3812394251509 14881.866051837176
698.3620809775111 14688.657291826079
699.3426751589104 14794.699064381983
700.3230220448004 14691.963636078191
701.3031217106054 14732.544664840296
702.2829742317172 14973.115042797284
703.2625796834873 14624.285739605137
704.2419381412474 14539.572079934765
705.22104968028 14778.626459920584
706.1999143758458 14676.630012080277
707.178532303169 14616.166599374405
708.1569035374378 14725.598211693117
709.1350281538107 14875.861910344951
710.1129062274158 14718.116745976333
711.0905378333373 15017.96262237759
712.0679230466376 14933.369844961995
713.0450619423427 15138.335055783333
714.0219545954424 15326.549947774818
714.9986010808989 15291.142108549388
715.9750014736292 15407.90442827698
716.9511558485392 15646.979027374318
717.9270642804786 15772.943151914811
718.9027268442787 15849.810348679375
719.8781436147328 15929.631121090395
720.8533146666014 15900.805690285104
721.828240074612 15886.117440625381
722.8029199134635 15846.07466010757
723.7773542578125 15700.896976419346
724.751543182294 15658.218810529866
725.7254867615029 15537.797759096959
726.6991850700015 15195.39702030657
727.6726381823228 15136.314939712864
728.6458461729599 15116.323553245646
729.6188091163858 14926.937355675085
730.5915270870246 14915.903787593348
731.5640001592856 14759.490309834448
732.536228407529 14837.656988541237
733.5082119060917 14833.429087566808
734.4799507292755 14675.166600734432
735.4514449513481 14675.247963592079
736.4226946465496 14848.308958713384
737.3936998890786 14826.884201966599
738.3644607531078 14612.800436785492
739.3349773127793 14623.581020604039
740.3052496421951 14686.45311813269
741.27527781543 14499.191884666661
742.2450619065221 14436.277411746385
743.2146019894826 14459.196460193232
744.183898138288 14312.170072612313
745.1529504268801 14187.16067048674
746.1217589291682 14055.83229389815
747.0903237190341 13982.950497879934
748.058644870318 13993.987238071539
749.0267224568397 13906.597083521285
749.994556552374 13758.038909556857
750.9621472306771 13790.3869097652
751.9294945654583 13820.169330459179
752.8965986304011 13765.282248595991
753.8634594991636 13654.4382530892
754.8300772453586 13703.471308363107
755.7964519425768 13730.702690337577
756.762583664371 13772.135586866056
757.7284724842611 13687.29267532325
758.6941184757416 13647.370093427448
759.6595217122667 13646.989106838877
760.6246822672638 13619.036791948058
761.5896002141235 13489.681402167194
762.5542756262093 13606.880146720834
763.5187085768503 13661.969110414426
764.4828991393406 13562.60434011897
765.4468473869474 13677.32059539689
766.4105533929032 13583.515954129212
767.3740172304078 13511.714459659725
768.3372389726283 13569.52573344617
769.3002186926988 13359.089482982667
770.2629564637282 13339.08020488358
771.2254523587872 13327.76829913344
772.1877064509154 13268.656349497487
773.1497188131179 13121.427824262311
774.1114895183728 13030.386668558229
775.0730186396268 13085.70769476419
776.0343062497905 13013.800903197898
776.9953524217381 12957.721842653373
777.9561572283274 12959.34729731476
778.9167207423689 12839.642160655552
779.8770430366476 12839.711738550326
780.8371241839159 12796.490388799433
781.7969642568951 12817.930147573747
782.7565633282757 13049.233842907157
783.7159214707099 12778.729303706587
784.6750387568281 12941.877995248844
785.6339152592227 12837.34494660408
786.5925510504512 12739.845895103866
787.5509462030477 12864.962917170687
788.5091007895098 12890.426332662735
789.4670148823006 12773.597276774763
790.4246885538596 12859.657711605094
791.3821218765861 12783.08673944888
792.3393149228505 12708.132902282008
793.2962677649975 12829.49156723911
794.2529804753303 12855.784844708618
795.20945312613 12773.637834600782
796.1656857896378 12758.341214309115
797.1216785380675 12797.826708570748
798.0774314435985 12964.940173054756
799.0329445783846 13030.846835618813
799.9882180145414 13015.85560089231
800.9432518241574 13057.432309668058
801.89804607929 13211.195734184974
802.852600851962 13204.648876582141
803.8069162141637 13278.371100524306
804.760992237856 13318.60271400123
805.714828994971 13479.346645533771
806.6684265574077 13537.969510313074
807.6217849970271 13369.605912379518
808.574904385674 13314.822161997081
809.527784795142 13489.978803307886
810.4804262972102 13571.904637742273
811.4328289636178 13348.083445705599
812.3849928660748 13038.054329961593
813.3369180762638 13059.868463062088
814.2886046658241 13076.731907975289
815.2400527063783 12887.535622725296
816.1912622695108 12754.434429327963
817.1422334267718 12803.822800052129
818.0929662496856 12609.458586204022
819.0434608097457 12420.012913109404
819.9937171784059 12411.074751237684
820.9437354271013 12231.118290506101
821.8935156272255 12425.642195129454
822.8430578501484 12174.116621921512
823.7923621672016 11958.7174683681
824.7414286496896 12083.151040383538
825.6902573688876 12093.80592918034
826.6388483960363 12051.277420634073
827.5872018023492 11850.737086514731
828.5353176590033 12047.105494453335
829.4831960371503 11854.870673793332
830.4308370079016 11789.877297708148
831.3782406423525 11849.94048177419
832.3254070115545 11883.43833525357
833.2723361865319 11758.801622877809
834.2190282382799 11695.01365731455
835.1654832377644 11727.468968554516
836.1117012559116 11760.469174883952
837.0576823636256 11806.608847085361
838.003426631778 11646.358310876773
838.9489341312074 11535.200460493585
839.8942049327197 11685.7575818132
840.8392391070975 11727.137016080811
841.7840367250865 11621.009056928091
842.7285978573982 11602.333604337586
843.672922574724 11678.54684971412
844.6170109477152 11559.035440436866
845.560863046996 11489.400128668893
846.5044789431595 11566.114160526497
847.4478587067697 11580.213327679823
848.3910024083561 11604.96078691679
849.333910118421 11612.703228715021
850.2765819074339 11493.271381958499
851.2190178458332 11692.073206221296
852.161218004032 11614.904465294136
853.1031824524016 11552.754867207954
854.0449112612987 11465.800067942087
854.9864045010327 11669.315929926397
855.9276622418947 11482.122550277114
856.8686845541379 11487.31134624465
857.8094715079915 11432.291711075379
858.7500231736467 11652.363421859807
859.690339621271 11494.318695047908
860.6304209209939 11500.952739045673
861.5702671429244 11448.1857094052
862.5098783571284 11504.674174013131
863.4492546336569 11551.694151789747
864.3883960425155 11511.714831976165
865.3273026536863 11398.632862311997
866.2659745371238 11524.929784921795
867.2044117627465 11710.085891993675
868.1426144004472 11569.31078962681
869.0805825200823 11552.53219717543
870.0183161914847 11664.300345094252
870.9558154844526 11729.771128906543
871.8930804687552 11757.861518420596
872.8301112141307 11604.633967681399
873.7669077902865 11867.638963579677
874.7034702669062 11970.013524912682
875.6397987136315 11858.138715890645
876.5758932000863 11912.546009680264
877.5117537958522 12069.952405723558
878.4473805704911 11990.689944033102
879.3827735935283 11978.215433764713
880.3179329344603 12126.622655236311
881.2528586627541 12137.001049651097
882.1875508478479 12274.37004997782
883.1220095591489 12084.807245359467
884.0562348660296 12032.996670969167
884.9902268378391 12153.795525628324
885.9239855438955 12053.046970131789
886.8575110534839 11962.37223570528
887.7908034358588 11980.732330958095
888.7238627602474 11931.573984256063
889.6566890958475 11866.941985204214
890.5892825118208 11666.684368458173
891.5216430773125 11770.787887637438
892.4537708614189 11615.3732925466
893.3856659332196 11503.170495410035
894.3173283617652 11419.469233057745
895.2487582160684 11405.987076644979
896.179955565116 11374.283359472352
897.110920477864 11306.268982515345
898.0416530232451 11267.260360620152
898.9721532701478 11187.05487313425
899.9024212874428 11216.499653451601
900.8324571439662 11096.833620794807
901.7622609085302 11004.207764066556
902.6918326499072 10912.756176611529
903.6211724368477 10998.488969060209
904.5502803380696 11015.511209809249
905.4791564222614 11102.766093997841
906.4078007580792 10819.204703273741
907.3362134141571 10883.549134447492
908.2643944590909 10988.242140406674
909.1923439614493 10805.168017733162
910.1200619897754 10807.058505198296
911.0475486125779 10904.91345917539
911.9748038983344 10840.072831624331
912.9018279155007 10762.642793056384
913.8286207324982 10624.89719372398
914.7551824177117 10740.647685748074
915.6815130395116 10677.618110322768
916.6076126662283 10628.068269507003
917.533481366163 10639.647102203353
918.4591192075914 10701.177249452961
919.3845262587565 10811.288470576961
920.3097025878706 10561.993811308352
921.2346482631237 10555.227392867506
922.1593633526682 10639.62049080535
923.0838479246304 10667.590524281182
924.0081020471061 10752.600199704033
924.9321257881656 10435.776136260318
925.8559192158464 10554.934707306162
926.7794823981512 10523.985782313584
927.7028154030686 10403.304039762204
928.6259182985414 10321.320188111506
929.5487911524906 10631.2925334426
930.4714340328119 10609.949720704128
931.3938470073608 10422.976287362846
932.3160301439748 10420.176048977399
933.2379835104548 10409.208394034878
934.1597071745709 10573.177700265685
935.0812012040769 10456.8479253539
936.002465666681 10499.772142104117
936.9235006300696 10505.617424998523
937.8443061619055 10522.907813654343
938.7648823298077 10330.323130112063
939.6852292013809 10369.506168728632
940.6053468441951 10562.98478562401
941.5252353257874 10347.052642857092
942.4448947136698 10429.760900412595
943.364325075323 10351.013510929968
944.2835264782043 10401.041380350087
945.2024989897309 10411.187525194047
946.1212426773054 10466.274129371084
947.0397576082851 10467.346612808356
947.9580438500125 10638.84017892051
948.8761014697939 10596.28090434467
949.7939305349064 10618.435173925685
950.7115311125999 10433.174894510767
951.6289032700952 10445.688027289427
952.5460470745875 10519.460984073408
953.4629625932339 10363.171357240499
954.3796498931715 10524.120630755071
955.2961090415029 10524.927823178024
956.2123401053068 10501.996794851135
957.1283431516276 10479.644297671864
958.0441182474842 10376.764414752393
958.9596654598663 10614.538028407002
959.8749848557309 10395.664100484679
960.7900765020167 10348.03147046542
961.7049404656209 10282.210363128068
962.6195768134185 10400.55513832589
963.5339856122537 10401.99700297408
964.4481669289453 10405.233853444823
965.3621208302793 10309.527172123486
966.2758473830145 10212.865867603501
967.1893466538822 10477.939426671397
968.1026187095813 10350.519325152643
969.0156636167867 10342.354481173234
969.9284814421426 10352.376493555324
970.8410722522622 10340.612478583502
971.753436113735 10336.42228213462
972.6655730931161 10307.146682423121
973.5774832569368 10391.636940212922
974.4891666716958 10299.25388473706
975.4006234038698 10308.218609187072
976.3118535198955 10241.046431149185
977.2228570861935 10434.645722614994
978.1336341691494 10461.491841711042
979.0441848351202 10226.58503081954
979.9545091504333 10385.296629647879
980.864607181391 10350.890478452846
981.7744789942699 10419.76079653268
982.6841246553086 10417.434419213456
983.5935442307236 10415.500065632466
984.5027377867027 10369.588799844016
985.4117053894024 10415.97482097454
986.3204471049557 10224.794462319007
987.2289629994648 10331.990847666286
988.1372531390007 10510.53008545821
989.0453175896091 10357.967653000935
989.9531564173067 10408.87524466664
990.860769688079 10340.829122477106
991.7681574678918 10483.511446109838
992.6753198226706 10478.058985087959
993.582256818323 10467.102790729572
994.4889685207218 10441.315775452113
995.3954549957143 10602.693873048005
996.301716309119 10642.51837209216
997.2077525267232 10600.354025896922
998.1135637142943 10472.7198102278
999.0191499375615 10639.435929250885
999.924511262232 10671.672718807053
1000.8296477539861 10643.922898363022
1001.7345594784656 10547.155880595918
1002.6392465012996 10561.249035998542
1003.5437088880753 10647.09767608632
1004.4479467043584 10558.86679133162
1005.3519600156869 10290.919225473594
1006.2557488875718 10509.618232178735
1007.1593133854858 10610.20842177444
1008.0626535748888 10355.860263371034
1008.9657695212009 10315.570468756563
1009.8686612898182 10602.617332877653
1010.7713289461135 10529.082100443604
1011.6737725554212 10426.57968222333
1012.5759921830577 10307.981643437792
1013.4779878943027 10331.084656630432
1014.379759754418 10381.29518188733
1015.2813078286254 10198.976694298688
1016.18263218213 10153.551211129774
1017.0837328801026 10195.153040208945
1017.9846099876886 10220.467887769837
1018.8852635700023 10150.930015149741
1019.7856936921362 9957.795322907192
1020.6859004191447 10175.811123248339
1021.5858838160675 10009.033230827068
1022.4856439479063 9964.139357975813
1023.3851808796389 9899.33225327601
1024.2844946762143 10104.171657853536
1025.183585402554 9992.901207633386
1026.082453123554 9739.340949212292
1026.9810979040776 9893.456532065773
1027.8795198089647 9759.574340308222
1028.777718903024 9901.154689738387
1029.6756952510368 9886.4320357984
1030.5734489177648 9808.496711892836
1031.4709799679313 9793.07684658958
1032.3682884662358 9962.044814945513
1033.2653744773506 9589.204817279438
1034.1622380659192 9560.65519131023
1035.058879296559 9699.340120330688
1035.9552982338591 9758.511521714154
1036.8514949423825 9640.73535122428
1037.7474694866614 9670.677607287183
1038.6432219312028 9616.153537642653
1039.5387523404825 9856.609436846857
1040.4340607789582 9678.821945095286
1041.3291473110476 9667.41968889626
1042.2240120011465 9843.41884810086
1043.1186549136273 9947.521893376428
1044.0130761128294 9753.76587198535
1044.9072756630649 9750.97378740558
1045.8012536286205 9949.47200351338
1046.6950100737577 9953.790063215323
1047.588545062701 10008.174592384828
1048.481858659663 9876.696080239535
1049.3749509288118 10155.312944275955
1050.2678219343034 9969.41216516229
1051.1604717402515 10038.545820583717
1052.0529004107575 9959.639445799121
1052.9451080098825 9977.47539548386
1053.8370946016694 10007.809958657534
1054.7288602501267 10056.441966944503
1055.6204050192446 9995.624468248898
1056.511728972977 10046.017699465934
1057.402832175254 10040.557192019805
1058.2937146899785 9900.054956703245
1059.1843765810263 9890.401173431961
1060.0748179122456 10113.824111659858
1060.9650387474576 9991.156170611715
1061.855039150456 9987.961790706539
1062.7448191850071 10012.457867571155
1063.6343789148505 10042.264657622294
1064.5237184037014 10069.144203586657
1065.412837715241 9924.926992067783
1066.3017369131267 9917.882733648537
1067.190416060992 9825.370102252327
1068.0788752224398 9796.541614754187
1068.9671144610438 9820.368713089501
1069.8551338403558 9947.940839320665
1070.7429334239023 9936.856331871926
1071.6305132751695 9736.83514710319
1072.517873457633 9931.396704940831
1073.4050140347335 9714.847561578328
1074.2919350698776 9741.70951775456
1075.1786366264623 9788.047329397483
1076.0651187678395 9730.609661269747
1076.95138155735 9628.65069563179
1077.8374250582929 9687.091789022666
1078.7232493339507 9682.780451744999
1079.608854447577 9568.93624574824
1080.4942404623907 9546.86897428345
1081.3794074415982 9711.588166210839
1082.2643554483657 9567.404890343121
1083.149084545841 9560.010283958572
1084.033594797138 9449.62201370825
1084.9178862653516 9492.098179922978
1085.8019590135427 9581.190173702389
1086.6858131047484 9432.547897774788
1087.5694486019802 9483.085456062387
1088.4528655682225 9528.80996420294
1089.3360640664287 9682.35967711836
1090.2190441595321 9532.275829218195
1091.1018059104317 9511.958196488622
1091.98434938201 9633.939389733014
1092.866674637111 9621.866546847032
1093.748781738559 9601.60685501362
1094.6306707491512 9317.10533973488
1095.5123417316554 9628.6588848695
1096.3937947488157 9450.499168932762
1097.2750298633455 9439.855282032826
1098.156047137938 9455.996143739807
1099.0368466352556 9455.420324914583
1099.9174284179317 9553.714052412699
1100.7977925485757 9235.98149324209
1101.6779390897755 9358.305554911592
1102.5578681040806 9327.830023332968
1103.4375796540226 9399.537567205512
1104.3170738021054 9297.44856578203
1105.1963506108077 9177.419851902601
1106.0754101425773 9234.002531477958
1106.9542524598382 9335.42046942675
1107.8328776249855 9291.634357825515
1108.7112857003904 9189.19544756211
1109.5894767483987 9281.590387307016
1110.4674508313292 9334.468350361964
1111.3452080114657 9217.869051644533
1112.2227483510815 9311.83227137454
1113.1000719124077 9368.406954677284
1113.9771787576592 9512.184048532594
1114.854068949022 9451.692612245524
1115.7307425486542 9434.539225774559
1116.6071996186893 9569.411538167551
1117.483440221229 9840.178253212103
1118.3594644183577 9511.654234161791
1119.235272272128 9713.498353899538
1120.1108638445658 9851.124070018124
1120.9862391976712 10062.556348459768
1121.8613983934229 9897.647646249945
1122.7363414937627 9995.977227260453
1123.6110685606182 10165.236797513724
1124.485579655884 10316.583434191803
1125.359874841426 10242.583075475079
1126.2339541790916 10291.5638625783
1127.1078177306936 10520.707245697395
1127.9814655580267 10379.558251954873
1128.854897722851 10510.047030756186
1129.7281142869106 10464.14810727897
1130.6011153119125 10542.469781946189
1131.473900859548 10644.952322279376
1132.3464709914697 10537.97525092371
1133.2188257693178 10476.987919443873
1134.0909652546961 10374.422675877726
1134.96288950919 10258.137966477956
1135.8345985943506 10401.518286101242
1136.7060925717087 10096.931629526316
1137.57737150277 10202.233611265463
1138.4484354490069 10259.772026066563
1139.3192844718778 10064.646160961533
1140.1899186327992 9733.476842004815
1141.060337993178 9993.267194747652
1141.930542614382 9748.236183618586
1142.8005325577597 9728.376180631885
1143.670307884635 9524.868352387854
1144.5398686563003 9605.347287084427
1145.409214934025 9546.824659596436
1146.2783467790541 9321.003636047864
1147.1472642526023 9349.67224697916
1148.0159674158622 9344.177568601452
1148.8844563300026 9137.541133732877
1149.7527310561618 9115.975105271255
1150.6207916554504 9045.122004971217
1151.4886381889592 8951.524009998797
1152.3562707177498 9047.878901496535
1153.2236893028585 8924.995041766624
1154.090894005296 8900.758785486543
1154.9578848860474 8889.730014062405
1155.8246620060709 8917.94976328097
1156.6912254262988 8733.166472131434
1157.5575752076438 8624.72747944573
1158.42371141098 8881.80499556473
1159.2896340971656 8805.218344983296
1160.1553433270346 8776.646518920228
1161.0208391613887 8771.491641593295
1161.8861216610057 8790.340458020313
1162.75119088664 8758.964997170546
1163.6160468990201 8653.73087874225
1164.4806897588442 8631.741429334215
1165.3451195267917 8802.274301829653
1166.2093362635114 8761.218863143495
1167.0733400296285 8737.692089914099
1167.9371308857444 8600.177601974105
1168.8007088924278 8561.80164858582
1169.6640741102328 8675.209323838037
1170.5272265996773 8545.985921083533
1171.390166421259 8536.392835040271
1172.252893635452 8662.422308892386
1173.1154083026995 8735.655998108485
1173.977710483421 8688.830008185303
1174.8398002380145 8514.060217620805
1175.7016776268483 8625.51650428964
1176.563342710264 8648.896990046891
1177.4247955485826 8602.81187275965
1178.2860362020947 8590.512535949232
1179.147064731069 8505.4346907255
1180.0078811957483 8674.216499394503
1180.8684856563486 8630.93492559432
1181.7288781730604 8630.36271532888
1182.589058806052 8777.837054825859
1183.4490276154593 8915.909986718607
1184.3087846614017 8696.550886267885
1185.1683300039676 8694.596435635309
1186.027663703222 8959.147003289505
1186.8867858192025 8837.764904849058
1187.7456964119228 8852.216943178093
1188.6043955413716 8841.245787433825
1189.4628832675116 8965.750823997625
1190.3211596502842 9227.78041299136
1191.179224749596 9078.635980924886
1192.0370786253388 8919.281778165507
1192.8947213373758 9207.589680023553
1193.7521529455407 9359.854080353041
1194.6093735096438 9059.74532062585
1195.466383089477 9125.546934496593
1196.3231817447977 9239.059484229718
1197.1797695353398 9428.569662347265
1198.0361465208189 9170.573158454345
1198.8923127609214 9150.926069926732
1199.7482683153048 9381.496581784426
1200.6040132436028 9499.601866949994
1201.459547605431 9258.108804701355
1202.3148714603722 9314.174342589311
1203.1699848679855 9322.414028633211
1204.0248878878065 9323.666752060326
1204.8795805793507 9124.541476851211
1205.7340630020935 9108.810848334728
1206.5883352155033 9335.203768081137
1207.4423972790064 9287.16783237657
1208.2962492520237 9038.199054216959
1209.1498911939307 9015.425478300629
1210.0033231640937 9062.83921554456
1210.8565452218427 9105.475501724826
1211.7095574264913 8664.794684303484
1212.5623598373222 8719.144141107183
1213.4149525135963 8793.175572576296
1214.2673355145507 8840.743094548981
1215.1195088993936 8646.979301068266
1215.9714727273113 8708.849579494603
1216.8232270574663 8832.613407573303
1217.6747719489904 8447.190996414687
1218.5261074609934 8371.81416109075
1219.3772336525653 8522.603642353653
1220.2281505827668 8558.607069873384
1221.0788583106296 8595.832850255243
1221.9293568951707 8382.042287311275
1222.7796463953746 8170.400468566388
1223.629726870202 8532.051335706183
1224.4795983785934 8360.384274550197
1225.3292609794553 8382.3442093581
1226.1787147316809 8204.030540000615
1227.0279596941327 8341.582752238788
1227.8769959256424 8245.942228426591
1228.7258234850306 8280.625596850263
1229.5744424310833 8016.001757440458
1230.422852822563 8259.68363697598
1231.2710547182105 8332.36403835555
1232.119048176739 8163.832406190742
1232.9668332568417 7970.7855692560815
1233.8144100171812 8269.025260958417
1234.6617785163999 8239.880314736049
1235.508938813111 7964.923738500855
1236.3558909659114 8067.572751805432
1237.2026350333617 8320.577139523763
1238.049171074008 8251.570918329433
1238.8954991463652 7991.475291210011
1239.741619308932 8047.218765072149
1240.587531620169 7084.492699909092
1241.4332361385277 8218.310819661434
1242.2787329224248 8016.315772175559
1243.1240220302534 7974.128130144336
1243.9691035203869 8096.74248246569
1244.813977451171 8197.730777047986
1245.6586438809263 8168.288856093012
1246.5031028679496 7825.707317503589
1247.3473544705157 8134.9384945990605
1248.1913987468706 8021.4671075816805
1249.0352357552383 7891.348998287191
1249.8788655538228 7968.5797591122755
1250.7222882007918 8077.9094009796445
1251.565503754302 8161.437817834283
1252.4085122724755 7876.758603626799
1253.2513138134182 8081.098923530592
1254.0939084352049 8018.995212108518
1254.9362961958905 8005.986784408662
1255.7784771535007 7936.498189278958
1256.6204513660432 8063.356844424619
1257.4622188915 8215.516395363045
1258.3037797878242 7988.035091331416
1259.1451341129468 7874.787687823753
1259.9862819247755 8021.845492564315
1260.8272232811978 8030.088447991702
1261.6679582400666 8097.09703591974
1262.5084868592203 7809.81064587617
1263.34880919647 7859.231086680849
1264.1889253095997 7926.973700841298
1265.0288352563712 8057.1101119201585
1265.8685390945266 7890.376595067575
1266.7080368817751 7953.824244151607
1267.5473286758115 8120.108695008219
1268.386414534294 8012.788377032464
1269.2252945148703 7826.84626793292
1270.0639686751547 7848.598908425169
1270.9024370727402 7870.161601932702
1271.7406997651997 7808.649461503817
1272.5787568100714 7707.834437635347
1273.4166082648808 7816.354457073549
1274.2542541871244 7818.680415915385
1275.091694634275 8057.751708184302
1275.9289296637817 7681.888158125515
1276.7659593330663 7793.824767597291
1277.6027836995308 7822.835580598459
1278.4394028205552 7942.946570847838
1279.2758167534867 7714.223264347254
1280.112025555658 7602.692321325955
1280.9480292843746 7738.827029299263
1281.7838279969128 7643.44255536661
1282.6194217505326 7618.851515084556
1283.4548106024686 7544.578932737444
1284.289994609926 7634.845028342056
1285.1249738300921 7823.850572777347
1285.959748320127 7597.557285779233
1286.7943181371702 7729.9895080933375
1287.6286833383328 7662.318566186569
1288.4628439807038 7793.766148750272
1289.2968001213521 7692.257109572919
1290.1305518173194 7650.300584479849
1290.9640991256183 7813.829497318494
1291.7974421032523 7577.586069562423
1292.630580807183 7491.768413378309
1293.463515294361 7624.268631592105
1294.29624562171 7845.155153510391
1295.12877184613 7709.861080267836
1295.961094024493 7672.533090335334
1296.79321221365 7728.996628012467
1297.6251264704333 7721.767554623737
1298.4568368516466 8024.38339381416
1299.2883434140658 7810.329205381779
1300.1196462144526 7569.121495359148
1300.9507453095375 7883.478053549411
1301.7816407560313 7780.628096442121
1302.6123326106172 7796.984816333451
1303.4428209299622 7645.137135696985
1304.2731057707024 8029.637859698529
1305.1031871894502 7754.469265933508
1305.933065242798 7957.451330482958
1306.7627399873181 7788.918461087128
1307.5922114795467 8152.585597136759
1308.4214797760123 8288.471062881956
1309.2505449332057 7841.192785295377
1310.0794070076026 7972.613067745432
1310.9080660556538 8070.403742574749
1311.736522133786 8021.464508185085
1312.5647752983987 7826.986101205663
1313.3928256058734 7659.723500553429
1314.2206731125661 8033.220381453209
1315.048317874809 8026.906563214599
1315.8757599489109 8000.449756951423
1316.7029993911547 7907.3882328038835
1317.5300362578055 8173.171538907201
1318.356870605101 7957.50039828233
1319.183502489257 7953.9697481149105
1320.0099319664623 7995.619309085267
1320.836159092889 8126.688230120494
1321.66218392468 8086.910218519141
1322.4880065179532 7972.253391462841
1323.3136269288134 8060.69140597333
1324.1390452133292 8207.917381532952
1324.9642614275563 8124.595446050148
1325.7892756275214 8011.581791778738
1326.6140878692295 7906.9128470683445
1327.4386982086617 8400.138708544931
1328.2631067017755 8075.571941785698
1329.0873134045069 8174.145531000509
1329.911318372764 7979.446722356493
1330.735121662441 8116.130613926677
1331.558723329399 7962.314055906473
1332.3821234294774 7845.391423730907
1333.2053220185007 7914.749618334956
1334.0283191522612 8072.333173844163
1334.851114886529 8016.09625410304
1335.6737092770582 7735.45986703344
1336.4961023795695 7858.052694605643
1337.3182942497697 7768.649180320332
1338.1402849433325 7855.849467002168
1338.962074515921 7728.1436029441
1339.7836630231632 7673.092797231072
1340.6050505206676 8119.9310197384675
1341.426237064028 7982.724013378009
1342.2472227088037 7742.021084451511
1343.0680075105338 7544.88899132598
1343.888591524741 7749.940474075003
1344.7089748069138 7880.212535897319
1345.5291574125276 7702.8811945101825
1346.3491393970307 7635.1917693324895
1347.168920815846 7832.040649595088
1347.9885017243778 7846.311636637345
1348.8078821780036 7598.561006893309
1349.6270622320844 7715.460343515471
1350.4460419419447 7720.52552521076
1351.2648213629054 7735.94008245575
1352.0834005502438 7560.580225439551
1352.90177955923 7517.01317354825
1353.7199584451064 7674.9976226409635
1354.5379372630887 7647.9408375135
1355.355716068374 7498.731202712789
1356.1732949161305 7479.82707872943
1356.9906738615155 7582.6416571790805
1357.8078529596478 7628.763987362896
1358.6248322656375 7636.400498393637
1359.441611834567 7488.812219732434
1360.2581917214866 7725.899092384403
1361.0745719814367 7398.892680748135
1361.890752669433 7502.619481521494
1362.7067338404577 7382.87626345422
1363.5225155494845 7681.227853278618
1364.3380978514506 7693.068674213808
1365.1534808012839 7366.320425286479
1365.9686644538815 7181.137375601461
1366.783648864117 7710.957332165768
1367.5984340868417 7654.14880783895
1368.413020176893 7552.452454168537
1369.2274071890715 7278.3243699277755
1370.0415951781652 7615.4757369021445
1370.8555841989346 7374.395767973629
1371.6693743061223 7251.318268004368
1372.48296555444 7119.858598130151
1373.2963579985844 7373.63817297552
1374.1095516932255 7428.360817008621
1374.9225466930166 7103.022247755982
1375.7353430525782 7332.1294019862125
1376.5479408265164 7226.397413543268
1377.36034006941 7347.040664855602
1378.1725408358216 7324.145407054743
1378.9845431802805 7101.8177001032545
1379.796347157304 7465.038858637206
1380.6079528213813 7460.930401295796
1381.4193602269788 7170.241702867113
1382.230569428546 7123.040145424796
1383.0415804805016 7354.634855667692
1383.852393437246 7413.6929706648825
1384.6630083531563 7166.265505522575
1385.4734252825892 6999.0700427473475
1386.2836442798798 7207.868126231519
1387.0936653993322 7310.82595634855
1387.9034886952395 7185.067564374117
1388.713114221864 7201.679366620434
1389.5225420334482 7261.272770910077
1390.331772184214 7074.508235140315
1391.1408047283585 7041.120989281345
1391.9496397200564 7053.4275723590645
1392.758277213461 7269.623510660154
1393.5667172627054 7323.384830250046
1394.3749599218918 7070.835513865112
1395.1830052451114 6942.21947458528
1395.9908532864265 7091.207321066324
1396.7985040998774 7308.890928987106
1397.6059577394808 6956.1361803474265
1398.4132142592352 7001.380931547801
1399.2202737131156 7084.16087986266
1400.027136155073 7216.595152374922
1400.8338016390353 7000.750086715552
1401.6402702189134 6973.394039792069
1402.446541948586 7073.126772184465
1403.2526168819204 6933.830547825329
1404.058495072757 6933.530667935343
1404.8641765749107 6959.809970773165
1405.6696614421799 7109.432173097701
1406.4749497283356 7312.764831146979
1407.280041487129 6878.672061296801
1408.084936772295 6718.166327465724
1408.8896356375335 7084.579226806223
1409.6941381365323 7073.000791507475
1410.498444322955 6838.560704566096
1411.3025542504402 6900.286172530932
1412.106467972606 6960.643842071705
1412.9101855430508 6946.065961209829
1413.7137070153458 6656.752921627043
1414.5170324430437 6821.347644086714
1415.320161879672 6941.560493911459
1416.1230953787435 7144.497570758841
1416.925832993742 6721.2604496654185
1417.7283747781275 6558.195172148173
1418.5307207853439 6804.797588427311
1419.3328710688093 6867.520313997123
1420.134825681922 6541.763633228356
1420.9365846780584 6671.794786008189
1421.7381481105713 6991.032500241783
1422.539516032788 6761.5980207462535
1423.3406884980232 6600.947847249028
1424.1416655595604 6559.262797404925
1424.942447270665 6667.988481653226
1425.7430336845828 6743.449160725993
1426.5434248545298 6593.371476799203
1427.3436208337116 6626.716332344239
1428.143621675301 6686.869609266934
1428.9434274324558 6890.473148203482
1429.7430381583108 6472.669293019631
1430.5424539059713 6572.116407107578
1431.3416747285337 6989.895012075965
1432.1407006790632 6813.491065106425
1432.9395318106053 6625.44400179267
1433.7381681761835 6421.14210009093
1434.5366098288014 6629.877458060473
1435.3348568214424 6655.23810689735
1436.1329092070573 6535.682788520648
1436.9307670385879 6507.445108187153
1437.7284303689503 6821.283187798159
1438.5258992510335 6798.39311280792
1439.3231737377118 6621.848085040228
1440.1202538818306 6604.291250580744
1440.9171397362225 6666.045115222127
1441.7138313536925 6671.206327434162
1442.5103287870243 6499.780833200733
1443.3066320889775 6378.773106583223
1444.1027413122956 6565.377618177413
1444.8986565096966 6490.771564362404
1445.694377733882 6532.54024544994
1446.4899050375207 6331.594744543503
1447.2852384732687 6328.432549965981
1448.0803780937622 6555.793926689528
1448.8753239516063 6352.744539681373
1449.6700760993954 6211.797806658849
1450.464634589689 6403.753489720298
1451.2589994750397 6642.522733479224
1452.0531708079689 6291.721934192851
1452.8471486409799 6231.1123494634185
1453.6409330265524 6598.7589926976825
1454.4345240171442 6337.642146289318
1455.2279216651987 6212.58581105415
1456.0211260231263 6156.240037867717
1456.8141371433194 6446.1455060667895
1457.6069550781594 6543.592535788213
1458.3995798799897 6094.43983598687
1459.1920116011424 6110.662541325546
1459.98425029393 6025.269888556908
1460.7762960106338 6130.309745747152
1461.5681488035225 6198.178157147562
1462.3598087248392 6214.1935525411745
1463.1512758268036 6468.911604526311
1463.942550161617 6163.786133212441
1464.7336317814625 6047.759872894988
1465.524520738496 6161.520513984715
1466.3152170848552 6055.859996527813
1467.1057208726506 6153.397465024658
1467.8960321539817 6085.47180489432
1468.6861509809169 5925.96418733109
1469.4760774055085 5947.476836980515
1470.265811479785 6062.410589940837
1471.055353255755 5949.207100469357
1471.844702785409 5896.128098977021
1472.6338601207044 5854.142149056775
1473.4228253135934 6086.927064459409
1474.2115984159936 5798.9146606189315
1475.0001794798063 5694.859614869803
1475.7885685569145 6003.157859103149
1476.576765699172 5903.901321042166
1477.3647709584238 5836.995824485026
1478.1525843864802 6143.429049184461
1478.9402060351367 5953.058576003136
1479.7276359561693 6087.140856662123
1480.514874201328 5829.117941341539
1481.3019208223468 5751.234722395532
1482.0887758709323 5640.6257838069605
1482.8754393987747 6044.714131927445
1483.6619114575406 5603.533420768717
1484.4481920988783 5734.231699027423
1485.2342813744108 5893.660988042194
1486.0201793357446 6078.921449198936
1486.8058860344572 5696.140502898129
1487.591401522117 5671.880788288798
1488.3767258502594 5800.241092447766
1489.1618590704056 6004.262887467426
1489.9468012340494 5579.224462127028
1490.7315523926754 5778.013739648677
1491.5161125977356 5931.762096359273
1492.3004819006637 5842.632121578346
1493.084660352877 5712.745019891029
1493.8686480057622 5784.718285210586
1494.6524449106964 6059.529299187311
1495.4360511190262 6121.521850589149
1496.219466682087 5800.761374738087
1497.0026916511779 5792.149710555133
1497.7857260775945 5842.12099302019
1498.5685700125996 5872.990079528554
1499.3512235074395 5674.648546926849
1500.133686613337 5648.618869758072
1500.9159593814966 5842.018594008359
1501.698041863101 6264.31510732336
1502.4799341093094 5661.868792612605
1503.2616361712662 5626.3785268316615
1504.043148100087 5907.941829366788
1504.8244699468742 5862.477338783043
1505.6056017626997 5627.643252796233
1506.3865435986281 5683.777091642608
1507.1672955056893 5833.784719789937
1507.9478575348967 5692.538386166499
1508.7282297372512 5954.240129265813
1509.5084121637192 5806.578951350574
1510.2884048652577 5788.529271101952
1511.0682078927948 5627.412631883837
1511.8478212972423 5586.170962215951
1512.6272451294917 5685.686488968817
1513.4064794404076 5826.021251675517
1514.1855242808433 5803.737681782057
1514.9643797016215 5752.546054054064
1515.743045753552 5808.891599066206
1516.5215224874191 5819.156947275557
1517.2998099539836 5577.074753665693
1518.077908203999 5649.431431390332
1518.8558172881785 5649.779556806571
1519.633537257234 5737.124449718269
1520.4110681618404 5766.332728706746
1521.1884100526604 5730.475007722098
1521.9655629803365 5724.010001773345
1522.7425269954856 5822.752858866302
1523.5193021487103 6101.565080215348
1524.2958884905856 5616.705601696022
1525.0722860716687 5683.41612012537
1525.848494942502 5627.417340832028
1526.624515153595 5825.430749986276
1527.4003467554485 5685.114393314657
1528.175989798534 5854.451677158124
1528.9514443333064 5803.70171451246
1529.726710410203 5997.8548354417835
1530.5017880796331 5643.889121112893
1531.276677391992 5719.662030649518
1532.0513783976457 6012.565891482274
1532.825891146953 5729.775718909317
1533.6002156902414 5852.922068756701
1534.3743520778207 5761.718122767192
1535.1483003599806 5800.283042135503
1535.9220605869923 5942.984348216022
1536.6956328091019 5741.288256813314
1537.4690170765407 5773.841372287218
1538.242213439511 5822.288282582194
1539.015221948208 5764.9682421449925
1539.78804265279 5771.043764958638
1540.560675603405 5680.782645622177
1541.3331208501804 6037.426939252518
1542.1053784432224 6037.590006326378
1542.8774484326168 5798.21524616373
1543.649330868422 5816.355938945765
1544.4210258006842 5859.395419556708
1545.1925332794308 5827.737417169235
1545.9638533546604 5852.583303820152
1546.7349860763552 5680.978319099784
1547.5059314944829 6177.11583132851
1548.27668965898 5773.937742871847
1549.0472606197673 5873.53415190598
1549.817644426752 5654.599509400721
1550.5878411298072 6034.988140716911
1551.3578507787988 5966.458076653211
1552.1276734235635 5719.029765229963
1552.8973091139233 5903.186922542906
1553.6667578996767 6065.002537982038
1554.436019830604 5719.1449625810865
1555.20509495646 5844.940444002417
1555.9739833269869 5755.147376664292
1556.7426849919011 5884.361697529857
1557.511200000903 6126.010740450435
1558.2795284036674 5844.970631858212
1559.0476702498509 5783.290895817412
1559.8156255890954 6095.0981448515695
1560.5833944710157 6239.95210876654
1561.3509769452048 5770.611755698185
1562.1183730612447 5903.649852386532
1562.8855828686865 5945.826197913694
1563.6526064170703 6178.3179188323675
1564.4194437559127 6011.9517030560055
1565.1860949347047 5886.906336729191
1565.9525600029283 6125.750222102571
1566.7188390100328 6141.11786299063
1567.4849320054564 5861.112857702259
1568.250839038612 5910.193099125948
1569.0165601588997 5867.916074650981
1569.7820954156887 6040.851734925743
1570.5474448583373 5848.878508040633
1571.31260853618 5777.257651476729
1572.0775864985299 5766.584446660555
1572.8423787946813 5956.820706796166
1573.6069854739108 5724.37630312445
1574.371406585471 5825.986400443347
1575.1356421785986 6021.28629898918
1575.899692302506 5753.112094250445
1576.6635570063845 5810.9661272329495
1577.4272363394157 5683.600271804614
1578.190730350747 5907.738161925974
1578.9540390895163 5813.061423272002
1579.7171626048384 5547.574022186929
1580.480100945806 5589.548392461805
1581.2428541614918 5675.301293096876
1582.0054223009538 5911.818396333993
1582.767805413223 5703.995033774432
1583.5300035473156 5735.666512939364
1584.292016752228 5966.324711688941
1585.0538450769309 5830.569984479195
1585.8154885703807 5604.199830010228
1586.5769472815136 5494.81507479252
1587.3382212592405 5659.366550356787
1588.099310552463 5897.697016776345
1588.8602152100484 5905.432335282965
1589.6209352808564 5716.213461831645
1590.3814708137234 5723.931466319619
1591.14182185746 5997.295265325007
1591.9019884608679 5599.839929500809
1592.6619706727215 5429.6250798904475
1593.4217685417734 5642.576575991085
1594.1813821167616 5919.673709829649
1594.9408114464022 5499.160062498673
1595.7000565793933 5628.584681937887
1596.459117564409 5665.718152449835
1597.2179944501113 5546.332863759659
1597.9766872851324 5479.873676966328
1598.735196118092 5712.006452605983
1599.4935209975883 5663.332578819725
1600.2516619721973 5872.0645385959315
1601.0096190904787 5455.205202607709
1601.7673924009723 5462.661638485578
1602.524981952196 5477.412197033295
1603.2823877926476 5561.842213040751
1604.0396099708087 5396.5150900927265
1604.7966485351371 5382.502808086651
1605.5535035340745 5478.182213180649
1606.3101750160404 5717.168361877952
1607.0666630294363 5454.426036456736
1607.822967622642 5260.003695845438
1608.5790888440224 5639.81983782623
1609.3350267419137 5616.012381831856
1610.0907813646445 5379.83968095061
1610.8463527605145 5350.55166097844
1611.601740977805 5612.145068612495
1612.356946064785 5390.322332784496
1613.1119680696902 5107.387878448551
1613.8668070407512 5377.72189497695
1614.6214630261748 5394.986404609961
1615.375936074137 5477.317485106321
1616.1302262328118 5331.606320921839
1616.8843335503425 5494.920059604939
1617.638258074854 5316.566662723525
1618.391999854457 5356.810440469301
1619.1455589372363 5475.013655224051
1619.8989353712623 5320.215943731445
1620.65212920458 5064.374174342719
1621.4051404852235 5157.844966264999
1622.1579692611976 5319.447728586999
1622.9106155804966 5123.182852923057
1623.663079491087 5206.104106033547
1624.4153610409248 5321.2020366480865
1625.1674602779385 5291.020325494231
1625.9193772500403 5104.393536971827
1626.6711120051277 5394.574527447446
1627.4226645910676 5209.261791898965
1628.174035055721 4949.1842885051265
1628.9252234469168 5216.399722078496
1629.676229812474 5102.436147683493
1630.4270542001905 5464.043619833986
1631.1776966578382 5166.933964036676
1631.9281572331747 5187.760758505877
1632.678435973945 5308.901331064559
1633.4285329278573 5144.704452038199
1634.1784481426203 4825.840923905698
1634.9281816659113 4941.21954139952
1635.677733545388 5294.0296797664905
1636.4271038286934 4999.759258269138
1637.176292563452 5226.220868770928
1637.9252997972635 5214.753118928979
1638.674125577716 5285.675643633633
1639.4227699523672 5470.079219786458
1640.171232968767 4804.531556192875
1640.9195146744423 5053.009424069211
1641.6676151168977 5340.374533554242
1642.4155343436178 5415.584658850409
1643.1632724020765 5115.462181848083
1643.9108293397167 5122.773375272982
1644.658205203974 5110.222198256412
1645.4054000422566 5570.7195216883165
1646.1524139019566 5106.321075148119
1646.8992468304423 4953.102543279823
1647.6458988750728 5000.540988457515
1648.3923700831765 5014.976356024425
1649.1386605020743 5031.091794848619
1649.8847701790564 5284.01291828595
1650.6306991614038 5263.834445207103
1651.3764474963682 5253.8011762724445
1652.1220152311944 4924.152101669649
1652.867402413096 5146.126087247585
1653.6126090892776 5310.425908630341
1654.3576353069184 5378.627406352466
1655.1024811131829 5162.7362661149855
1655.8471465552066 5078.835037587295
1656.5916316801213 5371.222410564126
1657.3359365350298 5317.245434331032
1658.0800611670165 5162.28033424686
1658.824005623148 5152.725869213409
1659.5677699504722 4947.381827639163
1660.3113541960192 5171.385519610041
1661.054758406799 5011.321529690458
1661.7979826297997 4881.64067674893
1662.5410269119966 4915.436791761209
1663.283891300338 5176.69415213804
1664.0265758417645 4981.812325644087
1664.7690805831826 5056.718701595092
1665.5114055714948 5240.384021323896
1666.2535508535748 5479.276117219896
1666.9955164762814 4811.322411467307
1667.7373024864555 4967.904779628772
1668.478908930916 5152.014507170837
1669.220335856462 4946.13885503986
1669.9615833098778 4805.8262089530745
1670.7026513379296 4762.638506452554
1671.44353998736 4999.067557965735
1672.1842493048916 5019.553907657566
1672.9247793372379 4882.222807945403
1673.6651301310812 4942.661906374657
1674.4053017330934 4841.615752929758
1675.1452941899242 5098.692585648129
1675.885107548207 4565.374148893037
1676.6247418545518 4527.139581260124
1677.3641971555535 4638.473928056531
1678.1034734977893 4827.201970585956
1678.8425709278108 4732.287511832228
1679.5814894921605 4849.5696564030095
1680.320229237359 4908.467583564337
1681.0587902098978 4875.084773573238
1681.7971724562685 4633.4008023117185
1682.5353760229264 4396.34814057455
1683.2734009563173 4866.238773910796
1684.0112473028657 4541.00766994326
1684.7489151089794 4665.901642824466
1685.4864044210462 4731.851362095628
1686.2237152854377 4236.450746186022
1686.960847748498 4664.338651586027
1687.6978018565642 4375.667095395767
1688.434577655944 4309.90741707714
1689.1711751929379 4244.185544115363
1689.9075945138156 4551.559323764728
1690.6438356648396 4257.829240935721
1691.3798986922448 3996.1830490862985
1692.1157836422499 4216.497673326887
1692.851490561059 4348.013108740753
1693.587019494853 4368.573558320308
1694.3223704897991 4047.4560099756477
1695.0575435920364 3957.7792169563427
1695.792538847696 4624.321189663566
1696.527356302886 3980.7280476683327
1697.2619960036936 3879.5511283979563
1697.9964579961907 3983.8205377853033
1698.730742326432 3707.0880811901334
1699.4648490404488 3788.850634348534
1700.1987781842563 3935.9690373662793
1700.9325298038548 4131.709311609666
1701.6661039452174 4226.562712031833
1702.3995006543082 4002.480288168002
1703.1327199770658 3942.742654684759
1703.865761959416 3847.1098134842678
1704.598626647261 4124.354191818432
1705.3313140864866 3820.8583037764847
1706.0638243229587 3829.3040502738418
1706.7961574025303 4094.3920605839894
1707.528313371029 3879.5419568629272
1708.260292274268 3749.1000430382423
1708.9920941580403 3770.4568345662046
1709.7237190681226 3892.151168875308
1710.4551670502697 3814.6674616711216
1711.18643815022 3567.3350236978595
1711.9175324136959 4037.5701525538634
1712.6484498863938 3794.548318436498
1713.379190614005 3477.9967933488274
1714.109754642188 3664.551382211718
1714.8401420165883 3649.6090334679075
1715.570352782839 4001.4493555571235
1716.3003869865497 3781.037792549864
1717.0302446733076 3568.4878511670818
1717.7599258886876 3708.897625641178
1718.4894306782444 3968.128201295704
1719.2187590875183 3541.368722188489
1719.9479111620203 3790.308697921528
1720.6768869472544 3536.917463258758
1721.4056864887025 3843.200751571734
1722.1343098318284 3904.9810234106794
1722.8627570220742 3657.1063013083135
1723.591028104871 3471.823587535656
1724.3191231256242 3374.0252976546676
1725.0470421297232 3602.9614391287587
1725.7747851625427 3669.447491235602
1726.5023522694337 3704.853141462553
1727.2297434957363 3657.922212150497
1727.9569588867635 3490.925026589574
1728.6839984878152 3635.9383566260103
1729.4108623441734 3264.440811620169
1730.1375505011038 3777.647322411638
1730.8640630038426 3521.408543225639
1731.5903998976264 3415.735057125229
1732.316561227657 3634.3075947829193
1733.0425470391274 3356.5251096163315
1733.7683573772065 3598.8143545799758
1734.4939922870508 3522.6273295250003
1735.2194518137949 3529.0623224356555
1735.9447360025606 3552.0713242199904
1736.669844898439 3489.4913506214966
1737.3947785465189 3249.4916226089354
1738.1195369918605 3259.251951081119
1738.8441202795093 3511.05048891272
1739.5685284544943 3467.7181213747886
1740.292761561821 3517.485872967555
1741.0168196464838 3521.962791708321
1741.7407027534518 3484.9906123972614
1742.464410927687 3661.1592725667274
1743.187944214118 3316.672993648269
1743.9113026576688 3452.5497425697854
1744.634486303241 3384.4586357152193
1745.3574951957125 3505.67341032037
1746.0803293799509 3727.3874259855197
1746.8029889008048 3422.7406477020368
1747.5254738031017 3613.5035845202196
1748.2477841316504 3344.6227618187527
1748.969919931249 3387.395868353838
1749.6918812466665 3489.026238589614
1750.4136681226646 3599.3929928582825
1751.1352806039777 3403.1016399917908
1751.856718735331 3103.3119879999413
1752.5779825614281 3150.971204044137
1753.2990721269507 3534.7737606110677
1754.0199874765676 3390.885792582434
1754.7407286549314 3238.040027630893
1755.4612957066693 3301.5806283779193
1756.1816886763954 3222.0382899876577
1756.9019076087097 3427.282919143646
1757.6219525481865 3502.6051226962218
1758.3418235393856 3457.8612107448366
1759.061520626854 3349.3153923714067
1759.7810438551096 3600.857628971685
1760.5003932686614 3139.987287413168
1761.2195689119999 3656.6543088099256
1761.938570829594 3424.626390633398
1762.657399065898 3529.347477965302
1763.376053665348 3134.0455977132315
1764.0945346723602 3144.8793969570243
1764.812842131334 3461.991772860154
1765.5309760866512 3286.968358657803
1766.2489365826787 3148.084076066317
1766.9667236637597 3397.192575323343
1767.684337374223 3039.7305072285744
1768.401777758383 3075.2924600809138
1769.1190448605284 3179.096820578269
1769.836138724937 3019.4406985514834
1770.5530593958665 3206.850802311622
1771.2698069175603 3628.9038922024984
1771.9863813342326 3330.1279680836624
1772.702782690094 3247.759630886353
1773.4190110293293 3444.5749302954673
1774.1350663961111 3395.1290240519656
1774.8509488345844 3079.598539594037
1775.5666583888924 3261.5900541272713
1776.2821951031437 3389.3439306887653
1776.9975590214362 3190.1630203385507
1777.7127501878585 3496.4464876748207
1778.4277686464684 3204.335798211899
1779.1426144413108 3410.426746012403
1779.8572876164162 3429.3896044638777
1780.571788215797 3049.606854550157
1781.2861162834415 3284.795216883307
1782.0002718633277 3144.0805865344823
1782.7142549994132 3296.9629331098486
1783.4280657356376 3174.3889380969113
1784.141704115922 3116.732890583173
1784.855170184177 3259.783786906458
1785.5684639842839 3270.342094719459
1786.2815855601148 2972.729012569908
1786.9945349555237 3334.0935925425974
1787.707312214343 3032.138994807573
1788.4199173803918 3503.017571405567
1789.132350497468 3086.032347902516
1789.8446116093583 3219.82537900728
1790.556700759822 3121.6699428772963
1791.2686179926077 3056.788731446228
1791.9803633514493 3149.8505738372646
1792.6919368800554 2842.662226199791
1793.4033386221236 3237.671773054149
1794.1145686213295 3298.368265367538
1794.8256269213307 3487.587285497449
1795.536513565774 3166.0938831628123
1796.247228598284 2949.6801861607737
1796.9577720624693 2963.413513096375
1797.6681440019165 3260.5772893945095
1798.3783444602013 3077.964704976231
1799.0883734808776 3154.1681020181377
1799.7982311074884 3189.140719384466
1800.5079173835475 3237.17367241143
1801.2174323525633 3278.4793209308555
1801.9267760580187 3172.6585895971625
1802.635948543386 3181.4090951267817
1803.3449498521113 2910.5585275818103
1804.0537800276325 3197.0054851162336
1804.7624391133668 3179.93418163516
1805.47092715271 2775.1472070289233
1806.1792441890484 2902.1378753149024
1806.8873902657433 3320.558232246767
1807.5953654261448 3107.053849623756
1808.3031697135812 3028.7046840092185
1809.0108031713662 2932.7752277294867
1809.71826584279 3094.5454838019655
1810.425557771141 3106.572540033532
1811.1326789996747 3553.2672724500226
1811.839629571632 3139.3331850217746
1812.5464095302468 2989.965041285269
1813.2530189187182 3009.6749636249438
1813.959457780249 3121.1218778901084
1814.6657261580076 3172.5080223823725
1815.371824095153 3041.026977572273
1816.0777516348262 2835.1244551915797
1816.78350882015 2629.1159840615846
1817.4890956942272 2735.0073030330564
1818.1945123001533 2975.8413219512527
1818.8997586809928 3126.557365842617
1819.6048348798067 2918.8470635091167
1820.3097409396287 3033.6043859507768
1821.0144769034796 3289.2816021318963
1821.7190428143622 3219.453025886404
1822.423438715261 3282.0125821786287
1823.1276646491478 3000.1363249815886
1823.8317206589727 3163.127801618069
1824.5356067876692 3016.054210384247
1825.2393230781581 2996.575041239198
1825.942869573335 2815.655089654753
1826.646246316086 2835.597910847579
1827.3494533492758 3093.5578812297513
1828.052490715756 3127.1061493832767
1828.7553584583547 2998.3633125884544
1829.458056619891 3039.640981812475
1830.1605852431585 2900.892484852986
1830.8629443709433 2807.6503465513288
1831.5651340460063 2859.392005431861
1832.2671543110919 2874.2487996080413
1832.9690052089318 3228.3502670311373
1833.6706867822395 2811.743995635735
1834.3721990737104 3130.4474922915974
1835.0735421260233 3106.8828514814772
1835.774715981841 2888.36043192135
1836.4757206838058 3171.5033145154366
1837.1765562745459 2870.0023223663225
1837.8772227966747 2848.8396455516063
1838.5777202927839 3019.205636528588
1839.2780488054523 2908.4627366317523
1839.9782083772352 2878.9173571554056
1840.6781990506806 3354.691122815021
1841.378020868313 2905.227404571137
1842.0776738726418 2924.4880017325017
1842.777158106157 2853.8338280734065
1843.4764736113375 2768.7422478665503
1844.1756204306403 3064.742196913815
1844.8745986065078 2989.1052344576774
1845.5734081813607 2685.269340997729
1846.2720491976124 2873.1760147141144
1846.970521697649 2844.6817148211167
1847.6688257238511 2960.095600460918
1848.3669613185684 2801.1995059835676
1849.0649285241452 2638.2247522052267
1849.7627273829057 3072.4483049791083
1850.460357937156 2963.454526805927
1851.1578202291857 2711.2361028501846
1851.8551143012664 2867.0491416778877
1852.5522401956569 2875.309967331131
1853.2491979545957 3123.5407863881615
1853.9459876203055 2825.555804927068
1854.6426092349902 2805.2791240887536
1855.3390628408451 2714.662389631846
1856.0353484800362 3109.91764210024
1856.7314661947203 3015.536063098332
1857.4274160270397 2729.2845489052233
1858.123198019115 2941.5791658154085
1858.8188122130487 2539.756576695683
1859.5142586509319 2915.9112708472207
1860.209537374838 2919.9171757390227
1860.9046484268183 2860.571997285027
1861.599591848917 3061.5312120460867
1862.294367683151 2817.9556400976057
1862.988975971528 2753.0626400358124
1863.6834167560355 2936.8641268260476
1864.3776900786452 3006.852278610647
1865.0717959813119 2801.625935493746
1865.7657345059724 2773.130211680617
1866.4595056945564 2937.486723922207
1867.1531095889586 2942.399988237473
1867.846546231076 2610.9698078863144
1868.5398156627743 3124.8552021477344
1869.2329179259123 2717.8574284860615
1869.9258530623283 3054.014673311449
1870.618621113843 2761.946564137898
1871.3112221222636 2632.546354898011
1872.0036561293764 2765.466659398703
1872.695923176956 2916.985729316019
1873.3880233067594 3025.602945576088
1874.0799565605212 2614.151227563577
1874.7717229799673 2871.639431476791
1875.4633226068036 3006.152275461091
1876.1547554827175 2962.700598310635
1876.8460216493859 2735.5126592323422
1877.5371211484617 2817.2844736439565
1878.2280540215852 3035.382220586399
1878.9188203103804 2611.999641527749
1879.6094200564548 2764.6502214088
1880.299853301396 2799.5826165442895
1880.9901200867826 3029.730857103911
1881.6802204541673 2872.167249642048
1882.3701544450942 2945.3543521733955
1883.059922101087 2521.531484221229
1883.7495234636517 3078.554692960258
1884.4389585742792 2789.484818325186
1885.1282274744517 2642.5526527276597
1885.8173302056166 2714.751033549229
1886.506266809225 2787.050052067618
1887.195037326701 2630.0199581206807
1887.8836417994517 2661.3399970923097
1888.5720802688702 3091.537452403664
1889.260352776333 2954.2588027673482
1889.9484593632042 3017.42550333869
1890.63640007082 2681.9607967072793
1891.3241749405151 2548.7053819233997
1892.0117840135954 2861.395255148843
1892.6992273313572 2730.8205654281205
1893.3865049350788 2585.623452060506
1894.0736168660223 3071.836727585497
1894.7605631654333 2752.7126547245607
1895.4473438745408 2581.6789546671066
1896.133959034556 3176.813431967158
1896.820408686679 2812.436861137739
1897.506692872088 2975.7262828245703
1898.192811631945 2733.5081304219057
1898.8787650073991 2732.396650230234
1899.5645530395832 3024.4384038093267
1900.2501757696118 2991.173028897225
1900.9356332385796 2507.8865740547653
1901.620925487574 3113.710691185001
1902.3060525576602 2880.6035861507994
1902.9910144898859 2863.4248135189127
1903.6758113252872 2698.1835704878604
1904.3604431048789 2772.9896557018196
1905.0449098696663 2935.498417214319
1905.7292116606295 2738.0757812829725
1906.4133485187394 2831.5103159457744
1907.0973204849488 2342.765091298939
1907.7811276001976 2598.7699363242855
1908.4647699053967 2733.382226820818
1909.1482474414588 2680.16679866067
1909.8315602492694 2626.7175153302446
1910.5147083696957 2947.854776892706
1911.1976918436012 2719.536371575661
1911.880510711815 2584.5704815173794
1912.5631650151681 2952.096086075545
1913.2456547944657 2604.030681773162
1913.927980090495 2690.714197272948
1914.6101409440362 2608.6394502840653
1915.2921373958416 2886.6470148212884
1915.9739694866603 2747.366815481345
1916.655637257214 3032.451688880583
1917.3371407482136 2716.347095023612
1918.0184800003572 2995.350839656893
1918.6996550543154 2923.369440084745
1919.3806659507554 2739.848483963854
1920.0615127303208 2816.763405527721
1920.7421954336423 2914.06187995623
1921.4227141013343 2914.7179993442214
1922.103068773993 2819.5643227954442
1922.783259492202 2797.8326960224317
1923.4632862965227 2668.207029689849
1924.1431492275078 2737.8632166766174
1924.8228483256917 2464.7853851017685
1925.5023836315922 2659.636720436335
1926.1817551857057 2352.7337535678253
1926.8609630285227 3017.8656403878404
1927.5400072005123 2710.976884744143
1928.218887742125 2581.4876996895437
1928.8976046938005 2392.907458716799
1929.5761580959588 2777.0110300254028
1930.2545479890086 2656.1750623612666
1930.9327744133352 2397.9916766407446
1931.6108374093164 2698.1462430458128
1932.2887370173066 2945.3198742134305
1932.9664732776473 2335.7367160132644
1933.6440462306673 2716.9753056166264
1934.3214559166754 2648.1016718127153
1934.9987023759659 3015.184956149361
1935.675785648813 2841.2043360959146
1936.3527057754836 2341.6398856320493
1937.029462796223 2998.068711317693
1937.70605675126 2487.2546725852753
1938.3824876808085 2429.121998871442
1939.058755625072 2679.4554876062143
1939.7348606242267 2626.2715277460597
1940.4108027184448 2703.748771917648
1941.0865819478713 2729.799465015897
1941.7621983526478 2477.5006714759947
1942.4376519728921 2488.943271306572
1943.1129428487038 2578.0352109191617
1943.7880710201734 2819.891240938191
1944.4630365273733 2722.9835826178596
1945.1378394103576 2528.6237086255514
1945.8124797091714 2878.7841833013626
1946.4869574638324 2393.886657697832
1947.161272714353 2542.795424468933
1947.8354255007234 2706.403829899256
1948.5094158629272 2560.010087583108
1949.1832438409183 2684.2000680974434
1949.8569094746435 2796.986348122522
1950.530412804037 2937.102122000229
1951.2037538690092 2760.2742197945768
1951.8769327094578 2708.3337654991633
1952.5499493652678 2638.742686282858
1953.222803876306 2866.497070366246
1953.895496282421 2703.252106639612
1954.5680266234522 2782.123140475419
1955.2403949392155 2689.461900226209
1955.9126012695142 2388.883459867027
1956.5846456541403 2597.2676694580578
1957.2565281328643 2489.588897358563
1957.9282487454457 2783.430240007513
1958.5998075316202 2815.749642444595
1959.27120453112 2454.859433625103
1959.9424397836501 2679.1182246235217
1960.613513328908 2682.2668183233523
1961.2844252065697 3014.9819195516343
1961.9551754563017 2432.246523422735
1962.6257641177453 2371.155056272541
1963.29619123054 2450.4377832369837
1963.966456834296 2461.8258188233262
1964.6365609686181 2397.3453645912587
1965.306503673086 2775.870655895652
1965.976284987275 2377.3074579850518
1966.645904950734 2576.6642282498246
1967.315363603002 2256.3465479167235
1967.9846609836077 2630.286752815585
1968.6537971320486 2480.2527402073883
1969.3227720878222 2646.9661735978434
1969.9915858904042 2489.7630143180104
1970.660238579252 2795.9074830605036
1971.3287301938108 2562.752282360614
1971.997060773514 2446.3304572023876
1972.665230357772 2224.195311207587
1973.3332389859843 2554.587482277834
1974.0010866975335 2397.116798475915
1974.6687735317864 2604.5329860561696
1975.3362995280932 2557.157567639278
1976.003664725793 2588.085983665224
1976.6708691642052 2233.064499098102
1977.3379128826364 2513.193000615339
1978.004795920373 2757.6738486336008
1978.6715183166925 2922.6340858520007
1979.3380801108524 2171.714950517514
1980.0044813420973 2471.2352977405653
1980.6707220496555 2292.208855906199
1981.3368022727373 2471.6713911013503
1982.0027220505417 2511.6737561917275
1982.66848142225 2106.721226681372
1983.3340804270283 2319.0472208111905
1983.999519104027 2566.9655602341245
1984.6647974923835 2544.4797343779383
1985.329915631215 2686.6549066392595
1985.99487355963 2487.1746189056535
1986.6596713167146 2591.1345522716133
1987.3243089415428 2426.22811382647
1987.9887864731754 2666.2434359245267
1988.6531039506553 2198.3092903217657
1989.3172614130071 2240.5828489024548
1989.9812588992481 2282.964659823052
1990.645096448372 2042.1993302002043
1991.3087740993633 2400.473911486094
1991.9722918911848 2410.7927548610287
1992.635649862792 2441.447667512176
1993.2988480531185 2471.1942053234275
1993.9618865010852 2817.186781222238
1994.6247652455968 2349.013758872571
1995.287484325545 2420.8305832778265
1995.9500437798033 2324.6699494858744
1996.6124436472292 2379.477507114786
1997.2746839666706 2687.964936119165
1997.936764776954 2423.094436512819
1998.598686116895 2363.50589681822
1999.2604480252903 2763.2953933741555
1999.9220505409212 2708.939506697888
2000.5834937025593 2242.0308155358916
2001.2447775489582 2415.1637888143987
2001.9059021188514 2379.324022736132
2002.5668674509616 2430.8490731778666
2003.2276735839987 2575.1170265052187
2003.8883205566508 2776.2293126102
2004.5488084075987 2336.9092903363385
2005.2091371755014 2352.9878063216397
2005.8693068990033 2115.6838774853186
2006.5293176167397 2564.7495578133326
2007.1891693673224 2222.9371050031764
2007.848862189354 2286.346721044979
2008.5083961214223 2398.901218908697
2009.1677712020955 2115.707905381169
2009.8269874699254 2090.173638784499
2010.4860449634598 2092.326748565604
2011.1449437212177 2094.608844635562
2011.8036837817108 2682.884177192566
2012.4622651834325 2701.427534915295
2013.1206879648653 2563.932161676436
2013.7789521644736 2724.270080940423
2014.4370578207036 2195.3003885820585
2015.0950049719922 2321.850524336153
2015.7527936567585 2565.7966782533995
2016.4104239134067 2312.8803257574364
2017.067895780323 2796.416424590956
2017.725209295886 2717.7169570380515
2018.3823644984514 2638.732171514393
2019.0393614263648 2499.998921137244
2019.6962001179545 2347.029324226372
2020.3528806115355 2760.2382057464943
2021.0094029454067 2478.1696703013095
2021.6657671578487 2179.3526276419825
2022.321973287133 2353.5460470804387
2022.9780213715148 2302.3606444875954
2023.6339114492293 2448.5195499310703
2024.2896435585026 2419.08553770227
2024.9452177375442 2388.6050252028226
2025.600634024544 2599.5792927812054
2026.2558924576842 2399.942546840758
2026.9109930751292 2586.868051806848
2027.565935915025 2202.3598322987627
2028.2207210155066 2761.822839338606
2028.8753484146964 2852.3803147452463
2029.529818150695 2670.341240766944
2030.1841302615903 2487.539047224031
2030.8382847854573 2164.6835804766533
2031.4922817603601 2570.27255296582
2032.1461212243357 2393.9562669795087
2032.7998032154192 2124.792012471363
2033.4533277716218 2346.5402506253695
2034.1066949309443 2107.0003019359956
2034.7599047313688 2073.5818532834983
2035.4129572108704 2465.876991875905
2036.0658524074006 2375.224955175137
2036.7185903589016 2440.9684510612433
2037.3711711032956 2440.743348026354
2038.023594678496 2335.820425956506
2038.675861122394 2185.622825006968
2039.3279704728757 2602.8920260374625
2039.9799227678031 2199.468003298445
2040.6317180450278 2348.6191508616384
2041.2833563423865 2403.830565938795
2041.9348376977014 2741.582507963446
2042.5861621487784 2369.804008005859
2043.2373297334088 2604.4046928379157
2043.8883404893695 2436.510677151268
2044.5391944544208 2424.396084381989
2045.1898916663158 2561.8077706161394
2045.8404321627804 2900.5805890572597
2046.4908159815368 2388.748030320673
2047.1410431602853 2215.4754591022875
2047.7911137367173 2221.1868287891066
2048.441027748504 2580.0357477346683
2049.090785233302 2267.092991960454
2049.7403862287592 2237.800411117775
2050.389830772503 2192.2183726450867
2051.0391189021466 2146.655292265749
2051.688250655294 2450.1848153429482
2052.337226069527 2194.0816426429624
2052.986045182417 2119.6008742823333
2053.634708031521 2045.186171442776
2054.283214654375 2403.1230329366404
2054.931565088511 2043.0284246731383
2055.579759371436 2165.646763586951
2056.2277975406523 2396.869872083341
2056.8756796336384 2529.8357789226247
2057.5234056878617 2006.2400691170467
2058.1709757407752 2165.6951949472286
2058.8183898298194 2568.494185509661
2059.465647992416 2450.0930640837196
2060.1127502659747 2606.7935606697583
2060.759696687888 2113.0028857334
2061.4064872955405 2273.0368211457526
2062.053122126292 2053.491138543099
2062.699601217497 2378.7357575864057
2063.345924606485 2191.7141939180233
2063.992092330587 2355.8054656748664
2064.638104427102 2193.2837998836058
2065.283960933324 2463.2380235090313
2065.92966188653 2417.704401839708
2066.5752073239855 2677.806415372784
2067.2205972829397 2125.3726000489874
2067.86583180062 2392.429665325075
2068.5109109142522 2437.8889958279306
2069.15583466104 2291.0425861749904
2069.8006030781708 2068.899040114798
2070.445216202821 2246.4539180009747
2071.089674072153 2460.627855085498
2071.7339767233116 2576.9242658670382
2072.3781241934303 2251.813065953192
2073.0221165196253 2401.2922627356816
2073.6659537390024 2163.8465104129
2074.3096358886505 2448.4402989074815
2074.953163005637 2271.5348358902747
2075.596535127028 2139.0920403372525
2076.2397522898664 2087.800223407268
2076.882814531182 2234.6318709698344
2077.5257218879924 2288.7973110838707
2078.1684743973 1997.759742881477
2078.8110720960885 1959.9759228056494
2079.453515021336 2156.380877077906
2080.095803209997 2352.9553713047894
2080.7379366990135 2380.6639563090475
2081.37991552532 2473.9059232080617
2082.0217397258275 2476.2928484990666
2082.6634093374414 2038.8597958889538
2083.3049243970418 2236.9965039837953
2083.9462849415067 2474.7128693546733
2084.587491007689 2347.2445835207423
2085.2285426324324 2235.9317300963057
2085.869439852564 2431.924560385835
2086.510182704902 2118.3174659972237
2087.1507712262483 2274.114221990294
2087.791205453381 2048.995465783113
2088.4314854230743 2488.973683873622
2089.0716111720867 2239.2063438954547
2089.7115827371617 1903.1071478621757
2090.351400155023 1951.2440383466733
2090.991063462385 1999.5656486213836
2091.6305726959527 1857.1055499114075
2092.2699278924047 1984.3233454348497
2092.9091290884153 2111.8833987032667
2093.548176320641 2032.4008480315872
2094.187069625721 2349.2349867146086
2094.8258090402887 2026.3248449107298
2095.464394600951 2330.957213146908
2096.102826344313 2312.4071388974053
2096.741104306955 2511.1513002052047
2097.379228525453 2011.7912581180858
2098.017199036358 1843.3177752788094
2098.6550158762147 2510.0926227420814
2099.2926790815527 2459.7417539467233
2099.9301886888825 2301.753072905249
2100.5675447347076 2196.6034948195806
2101.2047472555114 2388.3229544325086
2101.841796287761 2165.7212620663477
2102.47869186792 2325.8025362619205
2103.1154340324265 1987.50382110367
2103.752022817709 2238.1271512177104
2104.388458260184 2125.144423771698
2105.024740396251 2231.1565443169957
2105.660869262292 2103.654401046503
2106.296844894685 2516.836524139747
2106.93266732978 2174.27258714634
2107.5683366039284 2034.4337260110738
2108.2038527534532 2185.51835142521
2108.8392158146726 2250.626125929851
2109.4744258238843 2038.4147635927861
2110.1094828173755 2268.375600500545
2110.744386831422 2607.3720196869804
2111.3791379022787 2238.1179653633167
2112.01373606619 2346.1533042225665
2112.648181359389 2433.906372722062
2113.28247381809 2244.554624343554
2113.916613478492 2348.0308819715606
2114.550600376786 2233.1481423900946
2115.1844345491445 2106.9272720934514
2115.818116031729 2044.7758620461477
2116.451644860679 2206.462954640671
2117.085021072133 1927.0418492949862
2117.718244702204 2078.9553255616834
2118.3513157869984 2116.235562385291
2118.984234362604 1879.6649892102625
2119.617000465092 2018.2075503136089
2120.249614130529 2036.3258428618526
2120.8820753949585 2054.4762616397875
2121.5143842944162 2054.9425555639614
2122.14654086492 2100.9616087007735
2122.7785451424734 1912.6027652931741
2123.4103971630702 2287.407115674221
2124.042096962681 2146.107503802489
2124.6736445772767 2358.5461656667458
2125.305040042802 1946.8692735209866
2125.936283395191 2097.89426523806
2126.567374670365 2210.833579561707
2127.198313904233 2151.553270220128
2127.8291011326855 2018.664184963492
2128.4597363916037 1885.2571824581428
2129.0902197168507 2274.808945004566
2129.720551144279 2475.668584122112
2130.3507307097225 2676.641350441133
2130.980758449008 2532.5857441395196
2131.6106343979427 2461.146643812338
2132.2403585923203 2389.499698923244
2132.8699310679276 2586.6263669608247
2133.499351860526 2418.0732469750574
2134.1286210058715 2268.098686201495
2134.7577385397053 2445.487052312713
2135.3867044977487 2623.1792347349156
2136.0155189157176 2606.04085430579
2136.644181829308 2526.443300013369
2137.2726932742025 2184.990187560872
2137.901053286074 2077.012254864082
2138.5292619005777 1968.9448529059016
2139.1573191533535 2044.7922302871775
2139.7852250800315 2295.59791720827
2140.4129797162295 2252.405551877725
2141.0405830975433 1822.4328628842272
2141.6680352595613 1911.1706495817084
2142.2953362378576 2000.100204201098
2142.9224860679915 2081.640568016387
2143.549484785508 2144.378354822218
2144.1763324259373 2084.438641081392
2144.803029024799 2107.948315926664
2145.429574617594 2065.4515316885654
2146.0559692398165 2244.8539331078796
2146.682212926942 1986.1466157366717
2147.308305714432 2194.649962059174
2147.9342476377333 2404.5616687348725
2148.5600387322847 2427.599577748555
2149.185679033506 2306.830930700084
2149.8111685768017 1991.1045591411323
2150.4365073975678 1935.2318382656115
2151.061695531187 2004.5476571943232
2151.686733013021 2070.3500645161166
2152.311619878423 2136.4199354965394
2152.9363561627342 2091.2863334657773
2153.560941901278 2063.9193427240534
2154.1853771293663 2272.3110104685643
2154.809661882293 2085.4402015226087
2155.433796195348 2488.8636375503042
2156.0577801037944 2412.4592607118348
2156.681613642895 2335.736064454877
2157.3052968478896 1955.9081556824653
2157.928829754006 2256.420689177833
2158.552212396462 2281.779830031317
2159.1754448104566 2210.739008867715
2159.7985270311783 1837.0370275704547
2160.4214590938027 1662.915487247828
2161.0442410334927 1753.2361648227045
2161.6668728853874 1863.2185109589068
2162.289354684628 1973.4777897737463
2162.911686466332 2135.716764822524
2163.533868265602 2048.2774707089493
2164.1559001175337 2515.3435623104438
2164.7777820572046 2150.3033594501803
2165.399514119681 2193.5338149539557
2166.021096340013 1958.7796421588178
2166.6425287532384 2411.5173627798426
2167.263811394385 1976.3267711866215
2167.8849442984574 2415.837850438357
2168.505927500455 1881.1401391428394
2169.126761035366 2166.581535131022
2169.7474449381552 2060.8076672151587
2170.367979243778 1784.7691393001344
2170.9883639871823 2395.3215307720347
2171.608599203293 1945.8569660256449
2172.2286849270276 2673.9395756199683
2172.8486211932886 2572.2251192094504
2173.4684080369625 2217.1590372599435
2174.0880454929265 1956.0962910407986
2174.7075335960417 1630.9399191502657
2175.3268723811543 1791.6839405579353
2175.9460618831 1952.8579767410356
2176.565102136701 2032.2780916285355
2177.1839931767627 2051.5416477834387
2177.802735038078 2070.8855796251178
2178.421327755432 1877.9456695749116
2179.0397713635866 1981.712872207112
2179.658065897298 1950.873988522538
2180.276211391305 2208.504719422678
2180.8942078803357 2132.170511268697
2181.5120553991 2160.0420991116785
2182.129753982299 1762.8603374637557
2182.7473036646206 2074.9279701310866
2183.3647044807367 2135.0953208044652
2183.9819564653044 1787.7888080931257
2184.599059652968 2218.3742781201195
2185.216014078367 2257.533261317713
2185.832819776113 2294.711168678177
2186.4494767808137 2331.8460284545617
2187.065985127063 2018.9849590386202
2187.682344849436 1926.1215979036474
2188.298555982501 2378.035215611527
2188.9146185608097 2051.5749233245147
2189.530532618901 2328.946242809371
2190.1462981912937 2170.427394261888
2190.761915312507 2211.706061703855
2191.377384017036 2127.875689260486
2191.9927043393654 2060.3471567611477
2192.6078763139667 2336.5693553513665
2193.2228999753006 1929.8993875902083
2193.837775357808 2126.667619263253
2194.452502495922 1703.2596326278388
2195.0670814240602 1947.4509640978927
2195.6815121766285 1768.41945003755
2196.2957947880186 1772.944694941902
2196.9099292926057 1777.4852457885304
2197.523915724758 2277.201664708903
2198.137754118825 2020.7732177103276
2198.7514445091456 2459.9407038706754
2199.3649869300443 2528.9954614461035
2199.9783814158327 2598.3177160559717
2200.5916280008096 2306.8581871466477
2201.2047267192593 2192.00944955699
2201.8176776054515 2130.983871591329
2202.430480693649 1862.941188770394
2203.0431360180955 2344.9975227175382
2203.6556436130195 2417.6901962785532
2204.268003512645 2261.3428742088204
2204.8802157511727 2104.6679233202512
2205.492280362796 2536.8855225294024
2206.1041973816937 2095.4072127689224
2206.715966842032 2059.2264451593464
2207.3275887779655 2247.488968810064
2207.93906322363 2153.452881958655
2208.550390213153 2277.0507064528183
2209.1615697806465 2330.0798466113015
2209.7726019602105 1952.7305843956485
2210.3834867859277 1820.0197110093582
2210.9942242918787 2094.960979160449
2211.6048145121167 2190.5727174911435
2212.2152574806914 2879.7273917995503
2212.825553231638 2821.5787012695896
2213.435701798975 2763.5596161193125
2214.045703216707 2043.3770118307377
2214.655557518832 1709.1929890087856
2215.2652647393297 1781.604365935571
2215.874824912169 1911.1806495394644
2216.4842380713 2041.2669125135023
2217.09350425067 1959.8583355573526
2217.7026234842033 2381.114883579908
2218.311595805819 2158.7752324259227
2218.9204212494133 1984.3231281292178
2219.52909984888 2462.6148342764927
2220.137631638092 2361.4888494059505
2220.7460166509154 2260.0037925148254
2221.354254921198 1846.3505928538755
2221.9623464827764 2179.6008118108643
2222.5702913694713 2135.652461964074
2223.178089615096 2034.1140114715304
2223.7857412534486 1932.3870617084744
2224.39324631831 1653.273535121274
2225.000604843457 2029.639214096394
2225.607816862641 2374.832728243896
2226.214882409611 2161.548024196013
2226.8218015180973 2349.5778295799714
2227.4285742218217 2048.8600248305424
2228.0352005544864 2013.9035822722617
2228.6416805497847 1693.578709120987
2229.248014241399 1988.5446244081365
2229.8542016629945 1744.6429096783736
2230.460242848223 2112.4981337914605
2231.0661378307304 1897.512146931777
2231.671886644139 1682.3252855486517
2232.277489322065 1740.0392115950588
2232.8829458981127 1569.6087654391727
2233.48825640587 2028.8528926078448
2234.0934208789095 2755.0917569323797
2234.6984393507955 2401.521315938898
2235.3033118550793 2347.803301955847
2235.9080384252975 1885.6510247523408
2236.5126190949723 1672.505819753857
2237.1170538976166 1597.8704464901216
2237.721342866729 1523.1417649772106
2238.32548603579 1862.430878170815
2238.9294834382763 2067.510316857826
2239.533335107646 2055.961319271172
2240.1370410773434 2110.3818821628
2240.740601380803 1743.556716132552
2241.3440160514474 2074.0363701802694
2241.9472851226783 2150.7073987625454
2242.550408627896 2100.9839065800415
2243.1533866004793 2450.3530009138767
2243.756219073799 2145.8533632935637
2244.3589060812064 1820.194740605645
2244.961447656049 1923.717678865097
2245.5638438316564 1926.9623932053141
2246.166094641343 2072.2952754244247
2246.7682001184166 1818.110496502637
2247.3701602961664 1929.604523532435
2247.971975207871 2253.5115646551812
2248.5736448867974 2425.0238482870063
2249.175169366197 2003.577240040186
2249.7765486793123 2005.3284537079555
2250.3777828593684 2182.668952818168
2250.9788719395783 2090.3970732191538
2251.579815953146 2166.3923431545
2252.1806149332606 2078.9884807933913
2252.781268913097 1991.4193802725397
2253.381777925817 1968.7157766406149
2253.9821420045737 2113.4276070058067
2254.5823611825035 2313.704019139758
2255.1824354927303 1939.482616268261
2255.782364968365 1781.2686657731124
2256.38214964251 1622.8912408949877
2256.9817895482483 1832.6042714092396
2257.5812847186553 2029.1873137949292
2258.180635186791 1812.9800331904412
2258.779840985704 1907.7438778723795
2259.37890214843 1942.51920318575
2259.97781870799 2426.2833474148265
2260.5765906973957 2166.119737174968
2261.175218149645 2011.1146696001513
2261.773701097718 2106.526111998059
2262.3720395745895 1833.1970825024596
2262.970233613216 1701.561042274751
2263.568283246548 1979.9694262624168
2264.1661885075137 1867.7935271370425
2264.763949429038 1632.5763666971054
2265.3615660440246 1701.2300405344831
2265.959038385374 1769.9869754257736
2266.5563664859637 2274.2252254899986
2267.153550378669 1758.951176156082
2267.7505900963424 2133.306053816134
2268.3474856718312 1836.6737083867483
2268.9442371379664 1859.8179318994767
2269.5408445275643 1889.2100988596478
2270.1373078734377 1859.892296472278
2270.7336272083758 1830.516943983222
2271.32980256516 1720.671686097301
2271.925833976562 2067.3434632963217
2272.5217214753357 1874.5652392854954
2273.117465094223 1681.3630974443881
2273.7130648659586 1825.995342981408
2274.308520823257 1964.7449999208845
2274.903832998827 2180.781770025687
2275.4990014253563 1763.4866669002615
2276.094026135528 2096.991390465747
2276.6889071620117 1797.67485574288
2277.2836445374614 2063.6342505362445
2277.878238294519 1997.2346567823236
2278.472688465812 1832.3003457729124
2279.066995083962 1667.055197555909
2279.6611581815705 1829.565980224484
2280.255177791232 2246.888290783547
2280.8490539455233 2060.722394759528
2281.442786677013 2451.1354227229986
2282.0363760182554 2159.3055829978866
2282.6298220017943 1957.4054034080978
2283.223124660155 2445.9552118097863
2283.816284025859 1780.578987652753
2284.4093001314086 2549.954800370079
2285.002173009292 1798.8130600437285
2285.5949026919952 2003.0021372121428
2286.1874892119777 1867.3095340517873
2286.7799326016993 2071.920250372711
2287.3722328936 1596.314566758881
2287.964390120109 1528.662323807175
2288.556404313642 2071.729980621151
2289.1482755066027 2453.2969520698703
2289.7400037313873 1772.327555755851
2290.3315890203703 1828.9665478140219
2290.9230314059205 1865.9636547846712
2291.5143309203904 1903.0787755079923
2292.1054875961236 1931.6445946329918
2292.6965014654506 2479.8966399027977
2293.287372560684 1664.259873071937
2293.878100914131 1718.384105085046
2294.468686558086 1772.6792540886913
2295.059129524827 1984.596273037533
2295.649429846617 2228.8089752737205
2296.239587555716 1960.1986257718959
2296.8296026843636 2019.6352457989283
2297.419475264791 1889.007986860286
2298.0092053292137 1758.0202097057422
2298.598792909839 2186.6898337240796
2299.1882380388597 2063.4821835284774
2299.777540748455 2054.522044600048
2300.3667010707904 2045.418279950371
2300.9557190380256 2242.3437047472576
2301.544594682302 1995.5632245597917
2302.1333280357503 2333.891383131729
2302.721919130485 2053.1546277936704
2303.3103679986198 2477.284117809844
2303.898674672242 2451.6744717227853
2304.486839183437 1824.0405948493838
2305.0748615642697 1901.519744865935
2305.6627418468015 1780.8698563877733
2306.2504800630704 1808.6948313423763
2306.8380762451143 1940.1377954198003
2307.425530424949 2000.6556068807593
2308.012842634582 2061.2967375795565
2308.6000129060103 2352.489962303096
2309.187041271214 2099.297370220607
2309.773927762164 2484.769964254644
2310.3606724108213 2173.4334850788314
2310.9472752491274 1683.6897671592783
2311.5337363090184 1987.7657110178498
2312.120055622414 1959.1851767168325
2312.706233221221 1902.7176849782584
2313.2922691373424 1847.7264644668983
2313.8781634026564 1790.9365342821516
2314.463916049037 1733.9803358678782
2315.049527108342 2134.025949808949
2315.6349966124235 2307.774921029212
2316.2203245931123 2203.3159354790696
2316.8055110822315 2000.372198429206
2317.3905561115935 1796.9311459525368
2317.9754597129977 1694.736464671813
2318.560221918229 1674.2867199204152
2319.1448427590603 1653.8270471470455
2319.729322267256 1589.4033428025878
2320.313660474563 1777.4802515023111
2320.8978574127195 1930.3616747953904
2321.481913113452 2083.7439702677725
2322.0658276084705 1881.428023790008
2322.6496009294806 1960.9471524318756
2323.233233108165 1858.3308409107412
2323.8167241762058 1830.7863556776483
2324.4000741652617 2066.5006632543395
2324.983283106987 2292.619178167922
2325.5663510330232 2406.3946295880196
2326.1492779749933 2278.521712683592
2326.7320639645204 2150.0968578764496
2327.3147090332004 1726.8068137710184
2327.897213212629 1874.0801019754604
2328.4795765343843 2021.413524558159
2329.0617990300307 1752.2240275294757
2329.643880731124 2228.573825006378
2330.22582166921 2008.3799305125474
2330.807621875816 1727.0414145017573
2331.3892813824623 1445.4019706815698
2331.9708002206517 1560.3987048418255
2332.5521784218818 1679.965304214348
2333.133416017634 1799.8489882560166
2333.7145130393765 1755.799639027713
2334.295469518571 2258.583026566956
2334.876285486658 2247.404039613482
2335.456960975076 2173.0580278255684
2336.037496015242 2098.5834715312926
2336.6178906385667 1958.9491533398177
2337.198144876451 2139.4246167613114
2337.778258760278 1906.935773089114
2338.3582323214214 1495.2882731872196
2338.938065591243 1973.2642021020051
2339.517758601087 2385.134140745795
2340.0973113822965 2094.7805503203917
2340.676723966193 2021.075440887477
2341.255996384094 1786.5876503211264
2341.835128667295 1947.4228689817453
2342.4141208470883 2108.5808238278014
2342.992972954751 2055.310380533959
2343.5716850215467 1956.8340296425279
2344.1502570787306 1117.0742118997493
2344.7286891575386 1694.818410483928
2345.3069812892045 2388.238306094092
2345.885133504944 2285.742325709705
2346.4631458359618 1792.8946492916207
2347.04101831345 1769.6897094855017
2347.6187509685915 1671.4168747653741
2348.196343832553 1777.0975398949045
2348.7737969364935 1903.8572001478456
2349.351110311558 1760.0812410015126
2349.9282839888765 1668.606583923031
2350.5053179995757 1561.3423974588902
2351.0822123747585 1616.7833413014941
2351.658967145526 1664.5162697149995
2352.2355823429643 1712.4267604284255
2352.812057998144 2063.241127767022
2353.3883941421263 1994.994967574823
2353.9645908059647 1916.1501339126771
2354.540648020693 1782.6468070149301
2355.116565817336 1620.7032443116423
2355.6923442269126 2075.885530207581
2356.2679832804224 1979.2631265648433
2356.8434830088518 1972.5464007739752
2357.41884344318 1834.7670153763545
2357.994064614377 1728.5149832810444
