#exp_cfg={"servo_angle": 0.0, "laser_lim": 100.0, "servo_angle_to": 18.0, "laser_wup": 0.0, "bt_dev": "EnSpectr-25AE3", "laser_wdn_max": 0.0, "frames": 10.0, "servo_used": 0, "servo_calib_use": 0, "laser_wdn_min": 0.0, "servo_pix_from": 90.0, "cooler_tout": 300.0, "servo_angle_from": 0.0, "servo_calib": "[-1.9174921013161362e-09, 3.9322238269163779e-05, -0.27385609119055809, 653.59552119713567]", "laser_autoctl": 0, "servo_pix_to": 3682.0, "laser_pw": 100.0, "cooler_on": 0, "laser_volt": 4.0, "cooler_autoctl": 0, "cooler_curr": 70.0, "cooler_startup": 10.0, "laser_fixed_pw": 0, "gain": 1.3, "offset": 2.53059635486, "servo_calib_degree": 3.0, "laser_curr": 55.0, "shutter": 8200.0, "servo_calib_step": 1.0, "laser_fixed_curr": 0, "exp": 2000.0, "ccd_volt": 4.7, "bt_addr": "00:06:66:62:5A:E3", "servo_delay": 500.0, "laser_autooff": 1}
#proc_cfg={"flat_auto_wnd": 200.0, "flat_auto_fr": 200.0, "flat_auto_shift": 5.0, "yconv": 1, "flatten": 1, "flatten_strength": 100.0, "xfrom": 300.0, "auto_max_frame": 2000.0, "auto_signal": 48000.0, "flat_auto_tol": 0.1, "autoclip": 1, "xrel_range": 0.0, "flat_auto_to": 4000.0, "intensity_adj": 1.0, "xrel": 7852.0, "rmhot": 1, "flat_auto_slit": 4.999999999999997, "auto_ini_exp": 300.0, "auto_off": 0, "xto": 2860.0, "flat_auto_ref": "", "flat_auto_rank": 1, "autobackg": 0, "xrel_adj": 0.0, "auto_black_lvl": 1, "base_wnd": 100.0, "sub_baseline": 0, "xconv": 2, "auto_max_exp": 1000.0, "auto_total_exp": 10000.0, "auto_exp": 0, "rmripple": 0, "black_lvl": 8212.225, "shutter_clip_adj": 0.0, "auto_bckg": 0, "flat_auto_thr": 0.9, "subbackg": 1}
316.8218498245369 16416.99877860756
317.89969571804795 16253.08583798758
318.977263876126 16329.058294869255
320.05455438786703 16257.294266191835
321.1315673423287 16197.321962565173
322.2083028285215 16246.141381210997
323.2847609354267 16068.053318380125
324.3609417519747 16173.593989009369
325.43684536705587 16107.961954071445
326.5124718695279 15990.634896765856
327.58782134820103 15960.809735181761
328.66289389184385 15933.123578458148
329.7376895891921 15805.130742063577
330.8122085289342 15866.738780773818
331.88645079971866 15852.087095347506
332.9604164901575 15727.61150239779
334.03410568881554 15694.139624352352
335.1075184842266 15719.146166303315
336.18065496487543 15583.665838136798
337.2535152192122 15452.990344321723
338.32609933564163 15517.05407948935
339.39840740253203 15409.416958174643
340.4704395082099 15313.17963626167
341.5421957409617 15266.025933659577
342.6136761890357 15339.992756890057
343.6848809406365 15192.601103139014
344.75581008392874 15203.506525712239
345.82646370703696 15087.305906820111
346.8968418980512 15033.8759955292
347.96694474501055 15015.55724337399
349.0367723359268 15055.986434713966
350.106324758759 14948.725283652084
351.1756021014353 14868.739198370899
352.2446044518383 14747.46805534897
353.31333189781435 14842.994702774955
354.38178452716966 14710.093863718945
355.449962427665 14655.710718613813
356.51786568702846 14563.064254042629
357.58549439294256 14782.126840810892
358.6528486330535 14768.955644858841
359.71992849496564 14628.14799594352
360.7867340662433 14597.22126645638
361.8532654344144 14509.651358173243
362.9195226869597 14508.629570856796
363.9855059113288 14528.713475597755
365.05121519492604 14498.434982618375
366.11665062511565 14521.270201474288
367.1818122892273 14418.000194012737
368.2467002745434 14492.786637413528
369.31131466831175 14442.650647128994
370.375655557742 14470.949138867203
371.4397230299983 14516.761016327024
372.5035171722102 14524.269734184072
373.5670380714637 14439.781424072105
374.6302858148101 14496.532325250295
375.6932604892554 14459.85613310244
376.7559621817709 14480.08071451083
377.81839097928605 14362.908718490527
378.8805469686886 14393.567416599082
379.94243023683157 14470.440270917516
381.0040408705263 14364.979518443743
382.0653789565458 14262.953348076862
383.1264445816196 14309.014575002404
384.1872378324406 14211.118687117554
385.2477587956637 14310.038966958688
386.3080075579037 14125.62344307421
387.3679842057336 14123.057760197209
388.4276888256918 14168.414563810637
389.48712150426945 14148.19787589527
390.54628232792857 14047.575135831696
391.6051713830857 13983.22141962724
392.66378875611736 14038.953982791767
393.7221345333637 14090.8845669466
394.7802088011249 13934.625774245991
395.838011645661 13980.593948198006
396.89554315319765 13884.039485864929
397.9528034099112 13962.826892220739
399.00979250194723 13814.74646788037
400.06651051541485 13778.089575435855
401.1229575363741 13835.57753132543
402.17913365085224 13841.484921100608
403.23503894483656 13828.493012038025
404.2906735042761 13805.808188629944
405.3460374150818 13668.194351749451
406.401130763119 13790.418982946412
407.455953634224 13741.707244160181
408.5105061141876 13645.59329459891
409.56478828876243 13603.91500667953
410.6188002436629 13545.622382057181
411.6725420645689 13527.14702941015
412.72601383711117 13633.37343523489
413.77921564689314 13505.290740192062
414.8321475794728 13380.405546205828
415.88480972036814 13296.787325124911
416.93720215506437 13393.062350985234
417.9893249690049 13277.956854938626
419.04117824759123 13243.406301191291
420.09276207619223 13236.668939661375
421.144076540133 13232.006347820721
422.1951217247042 13276.602489648378
423.24589771515275 13198.735458233868
424.2964045966928 13060.48795645295
425.34664245449494 13120.873487455401
426.3966113736933 13035.044768896316
427.4463114393875 13040.672845399238
428.49574273662984 12974.689540410363
429.5449053504417 12984.254322266426
430.5937993658026 13034.20260123774
431.6424248676558 13022.56486558852
432.6907819409007 12954.21748161296
433.73887067040596 12952.526094013172
434.7866911409965 13012.689974116687
435.8342434374608 12990.215038811955
436.88152764455117 12969.65718664743
437.9285438469724 12880.639723230466
438.9752921294057 12840.989114009277
440.02177257648145 12851.2784938859
441.06798527279716 12720.779693036475
442.1139303029122 12797.67361039382
443.1596077513459 12971.225936905874
444.2050177025794 12731.409805744815
445.25016024105753 12693.099351616203
446.2950354511886 12708.00975765878
447.33964341733736 12769.570358937404
448.383984223834 12637.152478151384
449.4280579549686 12620.38711840747
450.471864694995 12692.287492262829
451.5154045281306 12578.686640744356
452.5586775385509 12621.782536090692
453.60168381039693 12494.036466542475
454.64442342776783 12692.65660380214
455.6868964747264 12532.447468109558
456.7291030353008 12458.164491372756
457.77104319347563 12499.88422270959
458.8127170332027 12373.478982914929
459.854124638392 12458.985960634935
460.895266092919 12509.03725952574
461.93614148061897 12588.922150805734
462.97675088529104 12559.816523768859
464.01709439069236 12533.351570705032
465.0571720805492 12614.6230034751
466.0969840385442 12510.46203577245
467.1365303483253 12643.96464290746
468.17581109350067 12540.305370213913
469.2148263576437 12567.331837856027
470.2535762242878 12567.249377504188
471.29206077693016 12723.441722516589
472.33028009902773 12570.404817900544
473.3682342740012 12713.570664970295
474.40592338523857 12737.075532749985
475.4433475160804 12787.440679861404
476.4805067498364 12819.803783038304
477.51740116978 12905.621438048736
478.5540308591426 12862.592448802961
479.59039590112116 13003.6060283535
480.6264963788726 12989.759116344405
481.6623323755193 13151.174276128653
482.6979039741436 13105.326854412848
483.7332112577915 13371.401869902129
484.76825430947247 13483.371908337856
485.80303321215797 13510.154814026691
486.837548048783 13671.698541201313
487.8717989022425 13788.87369906752
488.90578585539697 13792.053318367969
489.9395089910686 14001.592441935882
490.97296839203955 13879.117830233761
492.00616414106116 13724.41185916097
493.0390963208429 13757.701759792059
494.0717650140559 13749.339536456222
495.10417030333883 13568.170153654553
496.1363122712901 13542.284495064912
497.16819100046814 13474.305802360454
498.1998065734024 13175.702636139808
499.2311590725767 13246.5538345848
500.26224858044407 12994.264152597812
501.2930751794156 12909.839635241033
502.3236389518679 12869.596075880054
503.35393998014115 12690.28181928398
504.38397834653733 12586.953165549709
505.4137541333221 12546.458618854766
506.4432674227228 12402.695636329965
507.4725182969323 12367.556689082754
508.5015068381035 12307.97788217838
509.53023312835467 12274.52557748448
510.55869724976765 12277.205986658564
511.58689928438434 12196.8364842095
512.6148393142121 12058.800795132047
513.6425174212218 12088.938594035155
514.6699336873462 12177.457723886135
515.6970881944835 12120.966039309189
516.7239810244901 12000.992196783513
517.7506122591931 12074.72286488049
518.7769819803761 12071.601789305469
519.8030902697901 12036.643498123529
520.8289372091476 12142.94047111745
521.8545228801249 12132.440781240712
522.8798473643619 12015.428723094517
523.9049107434621 12030.760553789443
524.9297130989908 12100.814941239338
525.9542545124805 12014.366175851901
526.9785350654201 11982.797505249782
528.0025548392696 12130.211747327603
529.0263139154504 11976.178554818016
530.0498123753423 12037.122080056693
531.073050300296 12010.594489445095
532.0960277716204 11950.314102448285
533.1187448705896 11942.88179894589
534.1412016784416 11926.19520001734
535.1633982763833 11950.072258872624
536.1853347455726 11905.429426581859
537.2070111671401 11732.43855347832
538.2284276221817 11819.553502962126
539.2495841917516 11752.508100967016
540.2704809568677 11749.478715458394
541.2911179985167 11866.24172861248
542.3114953976419 11745.555734399913
543.3316132351592 11730.83601932536
544.3514715919409 11713.765800343494
545.3710705488247 11733.6656218725
546.3904101866156 11727.068385785491
547.4094905860784 11739.435342693547
548.4283118279418 11745.110363001926
549.4468739929034 11825.489276145125
550.4651771616191 11801.303696427576
551.4832214147063 11718.743849924525
552.501006832761 11804.11342030075
553.5185334963226 11730.413672657469
554.5358014859103 11759.439945855158
555.5528108820035 11811.37196608817
556.5695617650363 11785.155390530312
557.5860542154242 11810.082906318708
558.6022883135283 11728.596657235019
559.6182641396881 11720.361764958434
560.6339817741991 11715.086739208828
561.6494412973225 11747.486299952709
562.6646427892883 11693.825187601908
563.6795863302796 11580.61628919696
564.694272000459 11551.215488829888
565.7086998799423 11671.931196729247
566.7228700488104 11525.469740825502
567.7367825871115 11546.26244382451
568.7504375748576 11626.06986298028
569.7638350920224 11476.755870068087
570.7769752185486 11555.500051022924
571.7898580343353 11588.767825293879
572.802483619258 11410.743168704606
573.8148520531431 11510.418418077072
574.8269634157932 11578.119794693113
575.8388177869692 11551.69657682236
576.8504152463938 11632.811205783892
577.8617558737587 11642.657398710802
578.8728397487175 11590.64755333744
579.883666950891 11611.461163090966
580.8942375598654 11722.572457132097
581.9045516551851 11765.816447946625
582.9146093163617 11899.95838711706
583.924410622878 11913.514294959356
584.9339556541727 11987.472439936077
585.9432444896538 12022.51870776735
586.9522772086875 11785.934519378377
587.9610538906127 11915.200909723037
588.9695746147318 11821.498422288736
589.9778394603054 11879.516832785233
590.985848506567 11757.07122436044
591.9936018327098 11837.488005854517
593.0010995178891 11591.683925943234
594.0083416412344 11647.179697986174
595.0153282818283 11528.675816999339
596.0220595187293 11463.164818047295
597.0285354309508 11480.195570647722
598.0347560974806 11299.838895327088
599.0407215972609 11311.99877177909
600.0464320092051 11345.231003756033
601.0518874121954 11266.883900353692
602.0570878850685 11250.614814090735
603.062033506636 11282.668919588561
604.0667243556636 11277.64135319359
605.0711605108936 11133.922082686398
606.0753420510264 11302.398074143392
607.0792690547278 11161.089984316684
608.082941600629 11246.73511114944
609.0863597673306 11246.283128441648
610.0895236333909 11359.263879581518
611.0924332773357 11461.858191124402
612.0950887776617 11540.397102667248
613.0974902128219 11586.375984694234
614.0996376612384 11621.648068719674
615.1015312013005 11938.762899897958
616.1031709113595 12028.488080459847
617.1045568697336 12113.811559010534
618.1056891547069 12328.589309583596
619.1065678445229 12487.391975623543
620.1071930173985 12781.217381546385
621.1075647515099 12877.626428977592
622.1076831250048 13028.51240960053
623.1075482159849 13258.915627478515
624.1071601025305 13244.993903332195
625.1065188626781 13417.889520484616
626.105624574433 13554.234280143472
627.1044773157682 13537.40089971688
628.1030771646128 13556.606107213505
629.1014241988742 13530.417547310155
630.0995184964158 13591.405657597134
631.0973601350688 13618.085254027417
632.0949491926294 13764.084459043874
633.0922857468631 13640.805989936653
634.089369875499 13516.751605363437
635.0862016562278 13530.191623668265
636.0827811667077 13463.281399650394
637.0791084845641 13466.238597836054
638.0751836873878 13279.385855667046
639.0710068527369 13221.922970586715
640.0665780581294 13098.486648674127
641.0618973810506 12880.25317456515
642.0569648989604 12867.778567171355
643.0517806892676 12714.075599878133
644.0463448293649 12587.62911714944
645.040657396592 12442.700134538796
646.0347184682723 12294.503964362166
647.0285281216875 12162.377240737189
648.0220864340772 12059.95051517677
649.0153934826558 11905.462057574572
650.0084493446047 11818.895921734464
651.0012540970674 11693.582502223308
651.9938078171526 11602.003037521796
652.9861105819346 11601.624429423226
653.9781624684565 11647.5047196894
654.9699635537254 11400.914407991293
655.9615139147136 11538.708887553134
656.9528136283589 11359.802428089977
657.9438627715699 11369.067394857146
658.9346614212154 11324.257915640957
659.925209654135 11168.711294048346
660.9155075471263 11159.379861179304
661.9055551769616 11113.423985261054
662.895352620375 11250.711254480691
663.8848999540678 11185.949807595101
664.8741972547068 10966.983493637312
665.863244598926 11021.619129546347
666.8520420633213 11116.737018250462
667.8405897244611 10986.194683911242
668.8288876588758 10846.505659598597
669.8169359430613 10933.96501532792
670.8047346534822 10723.179948124583
671.7922838665672 10761.400944870604
672.7795836587156 10836.553777383378
673.766634106285 10887.404696893824
674.7534352856092 10714.716757402892
675.7399872729766 10669.380373371503
676.7262901446538 10786.072207489407
677.712343976862 10669.497751135996
678.6981488457986 10924.881153395934
679.6837048276229 10711.759353862633
680.6690119984596 10776.147966625855
681.6540704344043 10758.310968766218
682.6388802115107 10788.547365085298
683.6234414058108 10770.707926685121
684.6077540932874 10647.43136817696
685.591818349907 10664.652255312229
686.575634251587 10622.996625189116
687.5592018742263 10597.532341253103
688.5425212936734 10453.27119661857
689.5255925857564 10643.189674104702
690.5084158262707 10385.999824707267
691.4909910909646 10533.89980934346
692.4733184555644 10460.059939827559
693.4553979957618 10487.798882767656
694.4372297872123 10543.236386468221
695.4188139055404 10523.233354158503
696.4001504263324 10582.597537327056
697.3812394251509 10788.688947234294
698.3620809775111 10686.930827723296
699.3426751589104 10676.990481620709
700.3230220448004 10709.655141899337
701.3031217106054 10815.869349379478
702.2829742317172 10864.827367366139
703.2625796834873 10745.674523587297
704.2419381412474 10781.068168717014
705.22104968028 10833.657299087165
706.1999143758458 10813.063277512478
707.178532303169 10759.178931021048
708.1569035374378 11040.608552359205
709.1350281538107 11072.69740075851
710.1129062274158 11051.235732745017
711.0905378333373 11290.566557335937
712.0679230466376 11213.807386122684
713.0450619423427 11452.599347331705
714.0219545954424 11636.374962600206
714.9986010808989 11618.855062478782
715.9750014736292 11947.686351747212
716.9511558485392 12074.179660716785
717.9270642804786 12265.277889551438
718.9027268442787 12529.5501813923
719.8781436147328 12587.350017529165
720.8533146666014 12580.519718977395
721.828240074612 12606.661354148153
722.8029199134635 12655.042568146748
723.7773542578125 12561.287507721947
724.751543182294 12490.699936777817
725.7254867615029 12407.7535380951
726.6991850700015 12235.468113198458
727.6726381823228 12176.290514434644
728.6458461729599 12142.663099423293
729.6188091163858 12308.196560326365
730.5915270870246 12269.35670567125
731.5640001592856 12346.359325638805
732.536228407529 12433.146834129357
733.5082119060917 12618.11801258571
734.4799507292755 12724.19968262612
735.4514449513481 12914.368581644665
736.4226946465496 13109.41564514598
737.3936998890786 12957.197627593301
738.3644607531078 12949.804841214227
739.3349773127793 12800.36778269376
740.3052496421951 12481.134980727224
741.27527781543 12270.568792932583
742.2450619065221 11983.402138449786
743.2146019894826 11684.769725801943
744.183898138288 11414.536716267805
745.1529504268801 11245.182114919264
746.1217589291682 10806.552231009211
747.0903237190341 10624.632717249786
748.058644870318 10561.404648442705
749.0267224568397 10377.364111517822
749.994556552374 10142.697743189
750.9621472306771 10155.444705206783
751.9294945654583 10148.18125949228
752.8965986304011 10039.343752125616
753.8634594991636 9949.215155819587
754.8300772453586 10090.297825455473
755.7964519425768 9976.438509253736
756.762583664371 10031.132089924491
757.7284724842611 10092.004241047234
758.6941184757416 10072.32780913933
759.6595217122667 9952.935412530573
760.6246822672638 9910.225774006845
761.5896002141235 9726.762771967153
762.5542756262093 9846.607982121024
763.5187085768503 9746.08471666557
764.4828991393406 9682.250656506734
765.4468473869474 9550.669660414467
766.4105533929032 9600.34973807195
767.3740172304078 9429.107917931706
768.3372389726283 9417.413965830388
769.3002186926988 9311.642691174788
770.2629564637282 9259.213636718188
771.2254523587872 9243.948378231895
772.1877064509154 9276.433449466098
773.1497188131179 9217.452265921438
774.1114895183728 9167.791671728277
775.0730186396268 9074.340208207928
776.0343062497905 9038.135907737242
776.9953524217381 9064.90095581987
777.9561572283274 9131.629010948483
778.9167207423689 9041.647347842556
779.8770430366476 9023.959881712752
780.8371241839159 8999.410261477748
781.7969642568951 9006.693405642782
782.7565633282757 9175.348619308175
783.7159214707099 8939.451978957384
784.6750387568281 9076.385503781477
785.6339152592227 8931.900251070047
786.5925510504512 8867.183324543757
787.5509462030477 8935.695724119902
788.5091007895098 9007.740183604621
789.4670148823006 8918.608839262553
790.4246885538596 8984.965257434233
791.3821218765861 8879.98665091135
792.3393149228505 8925.11688092817
793.2962677649975 8996.88071872899
794.2529804753303 9034.372899141397
795.20945312613 9078.796816621481
796.1656857896378 9039.691662748239
797.1216785380675 9023.75897218374
798.0774314435985 9235.216657770448
799.0329445783846 9318.40930367025
799.9882180145414 9434.50303739646
800.9432518241574 9389.316732157773
801.89804607929 9478.39359443391
802.852600851962 9467.03668619509
803.8069162141637 9467.534530434563
804.760992237856 9589.82539678968
805.714828994971 9492.950488909697
806.6684265574077 9568.60225784905
807.6217849970271 9514.05686597628
808.574904385674 9401.261165983758
809.527784795142 9476.927753824073
810.4804262972102 9514.246280546711
811.4328289636178 9253.810717893568
812.3849928660748 9211.17442389624
813.3369180762638 9124.567411845477
814.2886046658241 9074.916973959078
815.2400527063783 9034.503962376002
816.1912622695108 9003.859749046365
817.1422334267718 8814.500148693529
818.0929662496856 8793.915274908173
819.0434608097457 8587.887510295148
819.9937171784059 8687.024813662536
820.9437354271013 8625.671695908299
821.8935156272255 8612.744495186382
822.8430578501484 8517.306956137896
823.7923621672016 8440.879513737293
824.7414286496896 8510.650055609152
825.6902573688876 8457.047587412651
826.6388483960363 8441.993105452051
827.5872018023492 8372.66079783105
828.5353176590033 8338.566343762632
829.4831960371503 8243.595007708103
830.4308370079016 8299.061439473433
831.3782406423525 8214.343530944821
832.3254070115545 8245.165724002058
833.2723361865319 8172.415095917623
834.2190282382799 8191.97479629884
835.1654832377644 8309.343078092312
836.1117012559116 8123.426158486647
837.0576823636256 8218.987696240047
838.003426631778 8189.363371872239
838.9489341312074 8107.110582580548
839.8942049327197 8228.512051523601
840.8392391070975 8241.904551889817
841.7840367250865 8219.531125150845
842.7285978573982 8228.739010999207
843.672922574724 8179.269607563673
844.6170109477152 8226.943849023897
845.560863046996 8243.206085880129
846.5044789431595 8303.832193019425
847.4478587067697 8232.992934861899
848.3910024083561 8257.274917896239
849.333910118421 8291.868818896588
850.2765819074339 8085.912825669866
851.2190178458332 8271.478601418316
852.161218004032 8205.061225411253
853.1031824524016 8281.240869292425
854.0449112612987 8270.482880119423
854.9864045010327 8201.95143686049
855.9276622418947 8128.691006496799
856.8686845541379 8294.335594960145
857.8094715079915 8291.585815568915
858.7500231736467 8219.3851115257
859.690339621271 8211.941624538349
860.6304209209939 8218.79425638672
861.5702671429244 8140.707235999871
862.5098783571284 8089.214483299938
863.4492546336569 8196.291200289008
864.3883960425155 8116.697698720789
865.3273026536863 8226.27827087472
866.2659745371238 8105.39682612567
867.2044117627465 8251.824274185896
868.1426144004472 8226.838808799555
869.0805825200823 8238.377386466776
870.0183161914847 8235.965783294541
870.9558154844526 8223.962308300635
871.8930804687552 8252.282749385118
872.8301112141307 8164.841187930704
873.7669077902865 8264.455996292267
874.7034702669062 8380.830961244483
875.6397987136315 8388.818542017716
876.5758932000863 8394.869126315676
877.5117537958522 8423.429777904825
878.4473805704911 8373.478645170668
879.3827735935283 8444.74159433089
880.3179329344603 8396.979130892494
881.2528586627541 8519.587152761691
882.1875508478479 8419.311892567126
883.1220095591489 8447.629510771654
884.0562348660296 8353.159040641987
884.9902268378391 8387.116605540792
885.9239855438955 8445.36807700435
886.8575110534839 8344.987913953759
887.7908034358588 8312.058935284107
888.7238627602474 8358.636429471208
889.6566890958475 8310.677716162976
890.5892825118208 8183.293433203679
891.5216430773125 8267.125619039783
892.4537708614189 8244.511896151304
893.3856659332196 8170.878963673642
894.3173283617652 8084.239409503416
895.2487582160684 8090.483037322719
896.179955565116 8131.037279758975
897.110920477864 8001.38332727592
898.0416530232451 7981.792886651514
898.9721532701478 8018.776541282494
899.9024212874428 8013.467678036512
900.8324571439662 7981.671257633841
901.7622609085302 8003.374897086536
902.6918326499072 7966.088074131852
903.6211724368477 8100.878957073723
904.5502803380696 8003.2280104175225
905.4791564222614 8138.088820537899
906.4078007580792 7992.469222298011
907.3362134141571 8040.011733599402
908.2643944590909 8038.659341896852
909.1923439614493 8003.44484996682
910.1200619897754 8114.0876498427515
911.0475486125779 8156.69339709907
911.9748038983344 8129.926617567953
912.9018279155007 8129.556085474296
913.8286207324982 8084.582970737157
914.7551824177117 8208.05836780168
915.6815130395116 8253.089588200928
916.6076126662283 8190.631283389854
917.533481366163 8204.584862056176
918.4591192075914 8205.820799728757
919.3845262587565 8251.823998103731
920.3097025878706 8228.13199365831
921.2346482631237 8233.47962750894
922.1593633526682 8259.974608978035
923.0838479246304 8280.870508278163
924.0081020471061 8275.711396346229
924.9321257881656 8075.881902274945
925.8559192158464 8206.098838141343
926.7794823981512 8028.181746890035
927.7028154030686 8058.812396680305
928.6259182985414 8025.608099922567
929.5487911524906 8056.150064141932
930.4714340328119 7983.327337940855
931.3938470073608 7866.481396245132
932.3160301439748 7863.769378733656
933.2379835104548 7819.065389276557
934.1597071745709 7810.560327217789
935.0812012040769 7812.922502082938
936.002465666681 7751.944927713664
936.9235006300696 7799.442085670479
937.8443061619055 7659.985997043278
938.7648823298077 7591.898089890189
939.6852292013809 7656.424924670231
940.6053468441951 7615.330662857855
941.5252353257874 7537.5342840195935
942.4448947136698 7521.78907147372
943.364325075323 7555.478439785977
944.2835264782043 7488.844793893621
945.2024989897309 7562.404128437534
946.1212426773054 7554.191857581568
947.0397576082851 7559.57652657742
947.9580438500125 7604.489398155034
948.8761014697939 7586.969468952685
949.7939305349064 7631.863451809581
950.7115311125999 7578.2341240004
951.6289032700952 7544.5992333602335
952.5460470745875 7644.519592704875
953.4629625932339 7569.081572601439
954.3796498931715 7638.271269832733
955.2961090415029 7637.747023955033
956.2123401053068 7590.9329936010745
957.1283431516276 7583.815615574829
958.0441182474842 7547.82379035488
958.9596654598663 7672.53547738528
959.8749848557309 7620.4706723985855
960.7900765020167 7572.605363987833
961.7049404656209 7439.4555361141365
962.6195768134185 7533.304414705226
963.5339856122537 7466.886490922082
964.4481669289453 7520.743960032453
965.3621208302793 7421.6103317443
966.2758473830145 7368.431311555672
967.1893466538822 7436.646376914252
968.1026187095813 7409.828132055933
969.0156636167867 7443.322136743496
969.9284814421426 7432.460925652788
970.8410722522622 7328.088407642254
971.753436113735 7299.909381955246
972.6655730931161 7341.478024258812
973.5774832569368 7298.646584400189
974.4891666716958 7267.002754790998
975.4006234038698 7300.057388538735
976.3118535198955 7287.75983504742
977.2228570861935 7307.015057996699
978.1336341691494 7199.181448285293
979.0441848351202 7162.743719117517
979.9545091504333 7253.603771276603
980.864607181391 7324.995776768807
981.7744789942699 7299.908239049849
982.6841246553086 7324.055743906941
983.5935442307236 7244.473365372546
984.5027377867027 7250.364620989925
985.4117053894024 7264.045774058138
986.3204471049557 7233.001215414193
987.2289629994648 7342.086578936185
988.1372531390007 7349.032680785483
989.0453175896091 7318.309201169543
989.9531564173067 7374.4174065399375
990.860769688079 7271.476816521645
991.7681574678918 7348.274113052563
992.6753198226706 7357.983813022285
993.582256818323 7309.6042801177555
994.4889685207218 7264.770076835965
995.3954549957143 7397.79509834933
996.301716309119 7351.176875280946
997.2077525267232 7399.960858788314
998.1135637142943 7393.098457920081
999.0191499375615 7337.23564970074
999.924511262232 7414.968550854271
1000.8296477539861 7449.5986567337995
1001.7345594784656 7317.491670178827
1002.6392465012996 7312.23212127125
1003.5437088880753 7373.5714826914145
1004.4479467043584 7407.624875894549
1005.3519600156869 7312.846284972101
1006.2557488875718 7265.659382485258
1007.1593133854858 7314.875412711731
1008.0626535748888 7342.805421812013
1008.9657695212009 7230.474395127285
1009.8686612898182 7418.066444843784
1010.7713289461135 7364.304152250629
1011.6737725554212 7290.984310468915
1012.5759921830577 7335.657676269431
1013.4779878943027 7321.251837382077
1014.379759754418 7319.254018032501
1015.2813078286254 7295.4159942178885
1016.18263218213 7238.299451254112
1017.0837328801026 7193.891489386058
1017.9846099876886 7187.514649886388
1018.8852635700023 7182.2832170453785
1019.7856936921362 7100.6500821791105
1020.6859004191447 7134.69091226451
1021.5858838160675 7153.319273022406
1022.4856439479063 7105.867934338081
1023.3851808796389 7045.944374302622
1024.2844946762143 7152.53276552956
1025.183585402554 7035.815598357762
1026.082453123554 6917.839101136315
1026.9810979040776 7048.2465658944875
1027.8795198089647 7034.197580296124
1028.777718903024 7051.676680765221
1029.6756952510368 6964.010303951273
1030.5734489177648 6923.845115255639
1031.4709799679313 6937.343864603556
1032.3682884662358 7061.973264142466
1033.2653744773506 6921.223859574519
1034.1622380659192 6885.217428467606
1035.058879296559 7049.818223886995
1035.9552982338591 6993.856552582243
1036.8514949423825 7081.825734642118
1037.7474694866614 7084.188608521833
1038.6432219312028 7013.328034485906
1039.5387523404825 7159.939261367926
1040.4340607789582 7171.410173454341
1041.3291473110476 7139.15394279997
1042.2240120011465 7204.896719922881
1043.1186549136273 7331.322614402381
1044.0130761128294 7400.834654674198
1044.9072756630649 7334.206865896893
1045.8012536286205 7433.00094399381
1046.6950100737577 7500.274795453933
1047.588545062701 7717.708243980934
1048.481858659663 7696.457351867664
1049.3749509288118 7749.778343474076
1050.2678219343034 7658.121655181443
1051.1604717402515 7801.397587416979
1052.0529004107575 7726.260814267477
1052.9451080098825 7789.744111092623
1053.8370946016694 7714.149983890389
1054.7288602501267 7866.970926907408
1055.6204050192446 7765.166461026242
1056.511728972977 7775.353177905383
1057.402832175254 7604.138409173417
1058.2937146899785 7644.339827626398
1059.1843765810263 7630.196121186118
1060.0748179122456 7517.286682751398
1060.9650387474576 7552.301980922067
1061.855039150456 7489.854445502564
1062.7448191850071 7387.417784987464
1063.6343789148505 7365.231516505131
1064.5237184037014 7506.141643876501
1065.412837715241 7282.20440212555
1066.3017369131267 7263.691662276852
1067.190416060992 7314.057736663225
1068.0788752224398 7204.747711256484
1068.9671144610438 7211.734482418457
1069.8551338403558 7175.9618838599035
1070.7429334239023 7285.659527422968
1071.6305132751695 7212.5907844386065
1072.517873457633 7244.2293593536615
1073.4050140347335 7229.709281282642
1074.2919350698776 7224.110556094189
1075.1786366264623 7128.312816273535
1076.0651187678395 7319.85979491292
1076.95138155735 7161.068827308595
1077.8374250582929 7299.4986944377815
1078.7232493339507 7215.223679595377
1079.608854447577 7147.436646618511
1080.4942404623907 7268.8290331182925
1081.3794074415982 7141.098034380787
1082.2643554483657 7419.701754316998
1083.149084545841 7266.221946618083
1084.033594797138 7200.212193361689
1084.9178862653516 7293.369926560217
1085.8019590135427 7265.300199229632
1086.6858131047484 7200.6914876261435
1087.5694486019802 7412.259991982845
1088.4528655682225 7339.17883805294
1089.3360640664287 7337.288399349987
1090.2190441595321 7349.805787617812
1091.1018059104317 7386.595216116443
1091.98434938201 7488.280485850996
1092.866674637111 7419.664833293308
1093.748781738559 7341.975119324689
1094.6306707491512 7327.866603196295
1095.5123417316554 7436.338683329664
1096.3937947488157 7304.176008582826
1097.2750298633455 7412.560666051766
1098.156047137938 7290.303640929857
1099.0368466352556 7304.5275575356045
1099.9174284179317 7430.603175239196
1100.7977925485757 7190.620632419089
1101.6779390897755 7199.735632029036
1102.5578681040806 7203.73864306533
1103.4375796540226 7153.927253704789
1104.3170738021054 7092.7283446809
1105.1963506108077 6949.859762765833
1106.0754101425773 6939.629931721351
1106.9542524598382 6984.909199362902
1107.8328776249855 6904.49929393816
1108.7112857003904 6838.723910023851
1109.5894767483987 6763.988184467975
1110.4674508313292 6900.855871950953
1111.3452080114657 6767.039022840416
1112.2227483510815 6767.176129733683
1113.1000719124077 6850.97656698581
1113.9771787576592 6761.213730002111
1114.854068949022 6860.974995719665
1115.7307425486542 6925.111379806815
1116.6071996186893 6725.327415727379
1117.483440221229 7018.798895983071
1118.3594644183577 6879.995429368934
1119.235272272128 6977.562657049777
1120.1108638445658 7033.037143902211
1120.9862391976712 7195.532574459345
1121.8613983934229 7173.886187822109
1122.7363414937627 7096.128550831869
1123.6110685606182 7152.3453050451735
1124.485579655884 7316.295939078356
1125.359874841426 7340.414839650698
1126.2339541790916 7379.832016044226
1127.1078177306936 7481.07073311206
1127.9814655580267 7314.856441182924
1128.854897722851 7419.562944175283
1129.7281142869106 7430.076137459311
1130.6011153119125 7471.287913152647
1131.473900859548 7499.91090254709
1132.3464709914697 7417.084209604803
1133.2188257693178 7474.345765136483
1134.0909652546961 7454.183920797166
1134.96288950919 7272.736747330435
1135.8345985943506 7435.004928390615
1136.7060925717087 7318.728089042963
1137.57737150277 7246.434153839364
1138.4484354490069 7280.288898054068
1139.3192844718778 7157.9515202529965
1140.1899186327992 7034.854465193826
1141.060337993178 7291.64208877902
1141.930542614382 7115.142288856693
1142.8005325577597 7026.557284551971
1143.670307884635 6850.302333209787
1144.5398686563003 6946.853078331411
1145.409214934025 6999.183949274232
1146.2783467790541 6804.582399010556
1147.1472642526023 6873.0922841813535
1148.0159674158622 6898.786137110915
1148.8844563300026 6712.973357701584
1149.7527310561618 6668.449553243675
1150.6207916554504 6734.275767930312
1151.4886381889592 6565.58194885681
1152.3562707177498 6635.621489669633
1153.2236893028585 6646.404293442803
1154.090894005296 6439.165018514141
1154.9578848860474 6400.401821305468
1155.8246620060709 6502.874695427678
1156.6912254262988 6395.851796464242
1157.5575752076438 6398.001113125611
1158.42371141098 6485.3570823166065
1159.2896340971656 6522.326801196578
1160.1553433270346 6419.907804871205
1161.0208391613887 6372.237823405841
1161.8861216610057 6325.325197168934
1162.75119088664 6305.635073408372
1163.6160468990201 6326.471846302118
1164.4806897588442 6218.514955408271
1165.3451195267917 6194.51113811425
1166.2093362635114 6277.737460318859
1167.0733400296285 6346.559371851572
1167.9371308857444 6269.414749132989
1168.8007088924278 6249.0593051445085
1169.6640741102328 6304.926941325849
1170.5272265996773 6191.37388948482
1171.390166421259 6047.640481885074
1172.252893635452 6277.820638251843
1173.1154083026995 6276.692048495968
1173.977710483421 6363.892698361336
1174.8398002380145 6257.103608037786
1175.7016776268483 6384.598279140714
1176.563342710264 6290.525238304922
1177.4247955485826 6245.46100832133
1178.2860362020947 6393.88957321899
1179.147064731069 6187.967595151998
1180.0078811957483 6303.604094159022
1180.8684856563486 6423.083341379346
1181.7288781730604 6343.863217626328
1182.589058806052 6397.344309291262
1183.4490276154593 6436.911962572006
1184.3087846614017 6331.1425531992445
1185.1683300039676 6578.484956617899
1186.027663703222 6558.928633828118
1186.8867858192025 6487.131573889019
1187.7456964119228 6626.718467906581
1188.6043955413716 6684.609660957876
1189.4628832675116 6620.540503925511
1190.3211596502842 6669.286752025502
1191.179224749596 6781.004155411263
1192.0370786253388 6636.184669844459
1192.8947213373758 6817.6234296801285
1193.7521529455407 6898.9707633800035
1194.6093735096438 6789.019905862397
1195.466383089477 6844.979874800248
1196.3231817447977 6737.668338011014
1197.1797695353398 6901.954802679856
1198.0361465208189 6768.855650496397
1198.8923127609214 6726.626867138734
1199.7482683153048 6830.654445874386
1200.6040132436028 6890.3113267368335
1201.459547605431 6735.732634594667
1202.3148714603722 6756.600609607951
1203.1699848679855 6691.131530392806
1204.0248878878065 6911.1431907241595
1204.8795805793507 6583.82463953109
1205.7340630020935 6719.155309493544
1206.5883352155033 6604.644928956384
1207.4423972790064 6613.625855447589
1208.2962492520237 6539.921703409574
1209.1498911939307 6541.028012679861
1210.0033231640937 6516.774161803334
1210.8565452218427 6347.370368921894
1211.7095574264913 6312.291385100027
1212.5623598373222 6379.139197575399
1213.4149525135963 6254.962102181472
1214.2673355145507 6245.98153915482
1215.1195088993936 6245.783091240448
1215.9714727273113 6192.479856525115
1216.8232270574663 6323.969214289214
1217.6747719489904 6066.78625362774
1218.5261074609934 6094.260807074473
1219.3772336525653 6187.396682777195
1220.2281505827668 6250.843678145177
1221.0788583106296 6113.61298494558
1221.9293568951707 6042.362048413799
1222.7796463953746 5956.378991404794
1223.629726870202 6048.569023822158
1224.4795983785934 5919.137710928249
1225.3292609794553 5988.434948189962
1226.1787147316809 5951.736795154724
1227.0279596941327 5953.43237694528
1227.8769959256424 5915.740291447763
1228.7258234850306 6003.374900857784
1229.5744424310833 5872.382260071188
1230.422852822563 5983.036565660614
1231.2710547182105 6072.1200363542375
1232.119048176739 6041.102266192798
1232.9668332568417 6020.076892726368
1233.8144100171812 5927.854184244484
1234.6617785163999 5999.486744513337
1235.508938813111 5805.158576062922
1236.3558909659114 5936.681034760838
1237.2026350333617 6083.373375484681
1238.049171074008 6039.374771373681
1238.8954991463652 5962.461415933786
1239.741619308932 5989.641107207897
1240.587531620169 4841.288698288156
1241.4332361385277 6000.259036408175
1242.2787329224248 5924.657621049021
1243.1240220302534 5866.712127762971
1243.9691035203869 5895.623374811867
1244.813977451171 6042.893205840625
1245.6586438809263 6023.086088065595
1246.5031028679496 5920.65495859433
1247.3473544705157 6001.8249686361505
1248.1913987468706 6022.6736807642565
1249.0352357552383 5896.542222385188
1249.8788655538228 5936.2762169603975
1250.7222882007918 6148.376549668714
1251.565503754302 6140.49286107363
1252.4085122724755 5903.184821834426
1253.2513138134182 6196.715147619021
1254.0939084352049 6080.582077564339
1254.9362961958905 6048.307272124124
1255.7784771535007 6189.4183423303675
1256.6204513660432 6156.642982262793
1257.4622188915 6227.678873451569
1258.3037797878242 6071.7213341975175
1259.1451341129468 6108.806018918272
1259.9862819247755 6227.460123764801
1260.8272232811978 6162.40038569012
1261.6679582400666 6264.546868655072
1262.5084868592203 6140.59342517095
1263.34880919647 6180.849724079938
1264.1889253095997 6295.3148948568905
1265.0288352563712 6185.543368300867
1265.8685390945266 6126.743218813554
1266.7080368817751 6259.4169335825545
1267.5473286758115 6226.408350606887
1268.386414534294 6290.981190402482
1269.2252945148703 6106.840361041836
1270.0639686751547 6205.921725884722
1270.9024370727402 6105.786865286445
1271.7406997651997 6114.4360273964285
1272.5787568100714 6016.718060780073
1273.4166082648808 6165.337726039123
1274.2542541871244 6008.187749663424
1275.091694634275 6194.897827947105
1275.9289296637817 5939.349686510372
1276.7659593330663 6216.913792869944
1277.6027836995308 6126.785533107533
1278.4394028205552 6088.889675727747
1279.2758167534867 6219.248325993997
1280.112025555658 6191.643826391728
1280.9480292843746 6020.735665988478
1281.7838279969128 5941.260093379921
1282.6194217505326 6110.554046266372
1283.4548106024686 6007.158720324491
1284.289994609926 6063.856062503057
1285.1249738300921 6208.486246863389
1285.959748320127 5978.21273211231
1286.7943181371702 6143.264870149717
1287.6286833383328 6117.0563596814945
1288.4628439807038 6172.571997798592
1289.2968001213521 6210.55197215806
1290.1305518173194 6083.275534372547
1290.9640991256183 6259.519173646901
1291.7974421032523 6295.968058234834
1292.630580807183 6287.634851682168
1293.463515294361 6371.26386562241
1294.29624562171 6471.259064985073
1295.12877184613 6358.370577337904
1295.961094024493 6343.492874750131
1296.79321221365 6519.78816813671
1297.6251264704333 6610.851060358963
1298.4568368516466 6763.944085459014
1299.2883434140658 6693.400012462468
1300.1196462144526 6687.214991723018
1300.9507453095375 6741.630683107486
1301.7816407560313 6804.14847922186
1302.6123326106172 6926.501845784469
1303.4428209299622 6846.999790222469
1304.2731057707024 7022.955121456029
1305.1031871894502 6921.893201069288
1305.933065242798 6919.910878809463
1306.7627399873181 6952.291248687665
1307.5922114795467 7237.177622733264
1308.4214797760123 7015.836609003473
1309.2505449332057 7032.401763928926
1310.0794070076026 7003.68962893773
1310.9080660556538 7190.524702399202
1311.736522133786 7059.034413973597
1312.5647752983987 7139.761373071565
1313.3928256058734 7096.22884717547
1314.2206731125661 7013.287198288225
1315.048317874809 7240.967290314339
1315.8757599489109 7220.999212401832
1316.7029993911547 7303.42015972964
1317.5300362578055 7374.914002337602
1318.356870605101 7218.25834554598
1319.183502489257 7230.847118535533
1320.0099319664623 7287.615050667553
1320.836159092889 7325.947753250194
1321.66218392468 7341.750223334275
1322.4880065179532 7246.730683260066
1323.3136269288134 7279.6807355515975
1324.1390452133292 7298.629781104564
1324.9642614275563 7366.031131426347
1325.7892756275214 7325.109346604184
1326.6140878692295 7015.4498371445325
1327.4386982086617 7361.4823217537005
1328.2631067017755 7166.7075576444495
1329.0873134045069 7020.314941492614
1329.911318372764 7046.645498528387
1330.735121662441 6862.351260693472
1331.558723329399 6859.767921820176
1332.3821234294774 6947.089094331172
1333.2053220185007 6855.952921976057
1334.0283191522612 6700.510704155029
1334.851114886529 6811.2902968536555
1335.6737092770582 6544.295280538136
1336.4961023795695 6529.946041171776
1337.3182942497697 6449.945513403929
1338.1402849433325 6428.679840678071
1338.962074515921 6356.590989516515
1339.7836630231632 6179.407019497153
1340.6050505206676 6387.339098452861
1341.426237064028 6260.662714138436
1342.2472227088037 6261.918847962896
1343.0680075105338 6033.13252593767
1343.888591524741 6228.730712510975
1344.7089748069138 6155.377481071691
1345.5291574125276 6093.816476896052
1346.3491393970307 5949.692858291453
1347.168920815846 6096.463269997944
1347.9885017243778 5959.837890297723
1348.8078821780036 6094.246355553198
1349.6270622320844 5957.255106790642
1350.4460419419447 5854.3433736547995
1351.2648213629054 5792.896641174366
1352.0834005502438 5858.533413511988
1352.90177955923 5924.842552105935
1353.7199584451064 5758.001855228054
1354.5379372630887 5935.835158615405
1355.355716068374 5788.926510504884
1356.1732949161305 5675.989017467688
1356.9906738615155 5747.91987727906
1357.8078529596478 5681.792579751468
1358.6248322656375 5840.817537188954
1359.441611834567 5607.476066685584
1360.2581917214866 5882.140595072783
1361.0745719814367 5705.906480185076
1361.890752669433 5735.265842999686
1362.7067338404577 5726.628383013981
1363.5225155494845 5689.864378513228
1364.3380978514506 5693.529133430612
1365.1534808012839 5508.804735713717
1365.9686644538815 5437.901403167413
1366.783648864117 5697.743896525175
1367.5984340868417 5728.87617857019
1368.413020176893 5694.633293866687
1369.2274071890715 5633.583843648415
1370.0415951781652 5570.624665231941
1370.8555841989346 5610.990136509212
1371.6693743061223 5531.497579866621
1372.48296555444 5462.89473409976
1373.2963579985844 5626.806126012031
1374.1095516932255 5579.853953190434
1374.9225466930166 5502.985511682118
1375.7353430525782 5601.5707034502975
1376.5479408265164 5556.221808960916
1377.36034006941 5577.092865595063
1378.1725408358216 5485.285861952028
1378.9845431802805 5482.143584330823
1379.796347157304 5775.918294531052
1380.6079528213813 5568.991040556811
1381.4193602269788 5523.563710634483
1382.230569428546 5498.967832334704
1383.0415804805016 5520.995197824943
1383.852393437246 5618.144402392058
1384.6630083531563 5616.627659498039
1385.4734252825892 5590.889073526223
1386.2836442798798 5596.776649781727
1387.0936653993322 5649.361691242262
1387.9034886952395 5584.593032931478
1388.713114221864 5660.680754514877
1389.5225420334482 5627.401392917584
1390.331772184214 5605.298960253479
1391.1408047283585 5502.7596362452305
1391.9496397200564 5683.209753059767
1392.758277213461 5679.1878474767145
1393.5667172627054 5557.91905841378
1394.3749599218918 5562.2794419109505
1395.1830052451114 5483.338702195596
1395.9908532864265 5612.8802116519555
1396.7985040998774 5568.907292417667
1397.6059577394808 5562.75909875286
1398.4132142592352 5619.94633235957
1399.2202737131156 5506.809552298704
1400.027136155073 5671.05938325795
1400.8338016390353 5589.88714042753
1401.6402702189134 5583.390473544206
1402.446541948586 5514.553871675747
1403.2526168819204 5488.557284829016
1404.058495072757 5377.203976187697
1404.8641765749107 5368.802992980875
1405.6696614421799 5499.951649022759
1406.4749497283356 5545.260998419718
1407.280041487129 5308.532612763176
1408.084936772295 5264.467329446546
1408.8896356375335 5425.670772493391
1409.6941381365323 5350.761425365573
1410.498444322955 5239.58280319321
1411.3025542504402 5296.52992965266
1412.106467972606 5325.182767439959
1412.9101855430508 5260.676730798734
1413.7137070153458 5165.355268796667
1414.5170324430437 5153.485280209128
1415.320161879672 5506.668179714228
1416.1230953787435 5371.3887019646445
1416.925832993742 5213.0282416865075
1417.7283747781275 5214.868866116486
1418.5307207853439 5181.182577774381
1419.3328710688093 5183.340819716687
1420.134825681922 5201.642509115001
1420.9365846780584 5350.417874636899
1421.7381481105713 5360.520816454738
1422.539516032788 5333.217510140159
1423.3406884980232 5281.661589170724
1424.1416655595604 5367.071125091093
1424.942447270665 5348.555547093329
1425.7430336845828 5447.646938707666
1426.5434248545298 5416.755182210798
1427.3436208337116 5439.335479166975
1428.143621675301 5601.1900875883075
1428.9434274324558 5688.83165180266
1429.7430381583108 5556.853470332545
1430.5424539059713 5682.276423621578
1431.3416747285337 5813.094992181707
1432.1407006790632 5765.9242407178635
1432.9395318106053 5756.94353362922
1433.7381681761835 5720.827470686936
1434.5366098288014 5873.528493079774
1435.3348568214424 5655.789091379851
1436.1329092070573 5832.10534603065
1436.9307670385879 5908.4628779727445
1437.7284303689503 6020.614223060474
1438.5258992510335 5837.036765496576
1439.3231737377118 5939.37388660615
1440.1202538818306 5924.517646006899
1440.9171397362225 5732.402745018295
1441.7138313536925 5765.565198501133
1442.5103287870243 5777.258310135725
1443.3066320889775 5576.088855215974
1444.1027413122956 5872.07288457566
1444.8986565096966 5590.200114904552
1445.694377733882 5758.719671347645
1446.4899050375207 5551.264948803639
1447.2852384732687 5510.640203730116
1448.0803780937622 5558.665462693372
1448.8753239516063 5533.518790132714
1449.6700760993954 5348.188252756163
1450.464634589689 5486.505456449858
1451.2589994750397 5499.889997870085
1452.0531708079689 5382.89723529147
1452.8471486409799 5215.462132022884
1453.6409330265524 5292.5324506151055
1454.4345240171442 5211.91881666193
1455.2279216651987 5252.013764149398
1456.0211260231263 5340.796347593218
1456.8141371433194 5406.029024815825
1457.6069550781594 5145.1890413565825
1458.3995798799897 4998.2706299601505
1459.1920116011424 5158.164491183091
1459.98425029393 5160.907999004779
1460.7762960106338 5150.225916649519
1461.5681488035225 5149.329521207814
1462.3598087248392 5150.635819304354
1463.1512758268036 5123.889658988754
1463.942550161617 5045.7436431456645
1464.7336317814625 5087.0221037367255
1465.524520738496 5117.268572006013
1466.3152170848552 4984.6281305838365
1467.1057208726506 4903.2141035150635
1467.8960321539817 4921.605723427117
1468.6861509809169 4756.116255680021
1469.4760774055085 4767.597604252143
1470.265811479785 4821.0066786252555
1471.055353255755 4662.685158895689
1471.844702785409 4674.118018789182
1472.6338601207044 4660.922288140075
1473.4228253135934 4672.501305459649
1474.2115984159936 4672.025772562165
1475.0001794798063 4550.850040207823
1475.7885685569145 4640.876380515701
1476.576765699172 4589.4761239272675
1477.3647709584238 4652.891669489264
1478.1525843864802 4649.7601545939315
1478.9402060351367 4578.051384500694
1479.7276359561693 4516.014845451013
1480.514874201328 4624.234603585586
1481.3019208223468 4546.317109571665
1482.0887758709323 4329.353019319269
1482.8754393987747 4489.265478302216
1483.6619114575406 4402.763057803766
1484.4481920988783 4452.960006404963
1485.2342813744108 4424.60285031648
1486.0201793357446 4521.935307158684
1486.8058860344572 4448.809654521965
1487.591401522117 4519.251170893952
1488.3767258502594 4411.822963803346
1489.1618590704056 4376.758907367835
1489.9468012340494 4346.433634556781
1490.7315523926754 4483.739554031945
1491.5161125977356 4543.209872339278
1492.3004819006637 4500.836839935509
1493.084660352877 4424.944680048577
1493.8686480057622 4466.339243005555
1494.6524449106964 4418.840985467175
1495.4360511190262 4512.715579637927
1496.219466682087 4547.574746204007
1497.0026916511779 4577.084187361166
1497.7857260775945 4452.9584873524755
1498.5685700125996 4370.557268145279
1499.3512235074395 4441.920707977169
1500.133686613337 4318.737131628193
1500.9159593814966 4327.340716012194
1501.698041863101 4595.75262859282
1502.4799341093094 4305.4282316187
1503.2616361712662 4312.184360359857
1504.043148100087 4280.1634584117655
1504.8244699468742 4494.3742170113865
1505.6056017626997 4415.427213007237
1506.3865435986281 4240.147206247171
1507.1672955056893 4308.437511893726
1507.9478575348967 4267.65802903473
1508.7282297372512 4478.291089804641
1509.5084121637192 4389.042167585043
1510.2884048652577 4304.814247946799
1511.0682078927948 4329.758342329392
1511.8478212972423 4363.377186790117
1512.6272451294917 4325.500736660697
1513.4064794404076 4329.641458827721
1514.1855242808433 4274.471129825334
1514.9643797016215 4501.734832077952
1515.743045753552 4451.769147290728
1516.5215224874191 4384.20933232873
1517.2998099539836 4291.836893189793
1518.077908203999 4340.984573737059
1518.8558172881785 4412.458370386596
1519.633537257234 4484.335550096352
1520.4110681618404 4385.691596135436
1521.1884100526604 4531.3821877173405
1521.9655629803365 4503.797077779335
1522.7425269954856 4703.729402204355
1523.5193021487103 4690.262252773036
1524.2958884905856 4514.332882517748
1525.0722860716687 4590.6475026718745
1525.848494942502 4506.857723828254
1526.624515153595 4589.872863400977
1527.4003467554485 4694.46373097778
1528.175989798534 4713.704579831371
1528.9514443333064 4571.112572663518
1529.726710410203 4684.396700633682
1530.5017880796331 4508.842490994761
1531.276677391992 4633.819008844959
1532.0513783976457 4702.7304920752495
1532.825891146953 4624.0809653717515
1533.6002156902414 4752.143324636361
1534.3743520778207 4530.537537031601
1535.1483003599806 4618.476966411136
1535.9220605869923 4640.439451184597
1536.6956328091019 4787.070276497547
1537.4690170765407 4579.190747875337
1538.242213439511 4596.961477545745
1539.015221948208 4620.553150033559
1539.78804265279 4603.933100198435
1540.560675603405 4497.7767037674075
1541.3331208501804 4542.445400753332
1542.1053784432224 4721.396240906992
1542.8774484326168 4628.745175395481
1543.649330868422 4578.7960967542585
1544.4210258006842 4440.772940882538
1545.1925332794308 4506.785683197957
1545.9638533546604 4544.413914981747
1546.7349860763552 4465.531907891795
1547.5059314944829 4515.121567182519
1548.27668965898 4436.04691150485
1549.0472606197673 4472.2937894144525
1549.817644426752 4354.904791145613
1550.5878411298072 4472.138227250827
1551.3578507787988 4351.222582167585
1552.1276734235635 4406.223786691111
1552.8973091139233 4509.179344086808
1553.6667578996767 4488.14364294089
1554.436019830604 4473.362891107873
1555.20509495646 4307.512888010859
1555.9739833269869 4373.161377810037
1556.7426849919011 4243.800375218675
1557.511200000903 4482.998888530522
1558.2795284036674 4515.087083770902
1559.0476702498509 4477.9411419056305
1559.8156255890954 4474.984548012841
1560.5833944710157 4580.07177291794
1561.3509769452048 4503.324743153285
1562.1183730612447 4474.526643972835
1562.8855828686865 4380.549109678663
1563.6526064170703 4649.728822394523
1564.4194437559127 4641.15292550372
1565.1860949347047 4450.827454287818
1565.9525600029283 4599.333642404104
1566.7188390100328 4686.008318122501
1567.4849320054564 4402.626349986288
1568.250839038612 4461.8696016778695
1569.0165601588997 4411.268388125544
1569.7820954156887 4468.129041281778
1570.5474448583373 4482.436670328085
1571.31260853618 4459.965932011416
1572.0775864985299 4385.313893211838
1572.8423787946813 4604.155424826182
1573.6069854739108 4559.417348215926
1574.371406585471 4651.004658062602
1575.1356421785986 4654.148757326877
1575.899692302506 4522.7799489637855
1576.6635570063845 4560.431371782468
1577.4272363394157 4443.142399348379
1578.190730350747 4405.582599378284
1578.9540390895163 4469.937279916767
1579.7171626048384 4293.073795159097
1580.480100945806 4443.53045218557
1581.2428541614918 4456.962710269672
1582.0054223009538 4319.765665503914
1582.767805413223 4380.2548665684935
1583.5300035473156 4385.461300972314
1584.292016752228 4454.381731735136
1585.0538450769309 4512.683781460828
1585.8154885703807 4397.486981403649
1586.5769472815136 4346.348409915308
1587.3382212592405 4478.0907860873895
1588.099310552463 4514.341258144785
1588.8602152100484 4353.840785047032
1589.6209352808564 4551.710682779057
1590.3814708137234 4176.875232204963
1591.14182185746 4632.018894921446
1591.9019884608679 4379.744234614531
1592.6619706727215 4159.364319197606
1593.4217685417734 4318.80385849893
1594.1813821167616 4355.116411876899
1594.9408114464022 4221.903074214422
1595.7000565793933 4254.842544245124
1596.459117564409 4336.043749715832
1597.2179944501113 4240.280783563772
1597.9766872851324 4215.948730212067
1598.735196118092 4304.922296668137
1599.4935209975883 4300.220533548909
1600.2516619721973 4276.534858280602
1601.0096190904787 4220.498553835031
1601.7673924009723 4308.53260654921
1602.524981952196 4029.8848636908524
1603.2823877926476 4173.615907285858
1604.0396099708087 4227.505195573669
1604.7966485351371 4030.1224898843416
1605.5535035340745 4272.8479827001465
1606.3101750160404 4314.962027153249
1607.0666630294363 4139.4456459846715
1607.822967622642 4109.186157496146
1608.5790888440224 4054.7102008419033
1609.3350267419137 4165.119002873949
1610.0907813646445 4093.475323015481
1610.8463527605145 4152.660719192174
1611.601740977805 4103.929451164869
1612.356946064785 4223.090801095759
1613.1119680696902 3929.7387879207045
1613.8668070407512 4176.237983240527
1614.6214630261748 4081.8342729424453
1615.375936074137 4188.514716568548
1616.1302262328118 4114.803774516398
1616.8843335503425 4252.922462596462
1617.638258074854 4023.2321236355792
1618.391999854457 4291.371883667342
1619.1455589372363 4258.236717415798
1619.8989353712623 4224.624282016892
1620.65212920458 3932.056988110607
1621.4051404852235 4025.592056219827
1622.1579692611976 4020.266913548888
1622.9106155804966 3887.568180210761
1623.663079491087 3974.734197626506
1624.4153610409248 4147.298973634864
1625.1674602779385 3928.8371807001613
1625.9193772500403 3949.6980753113467
1626.6711120051277 4119.071971223833
1627.4226645910676 3968.634914726104
1628.174035055721 3914.376019344059
1628.9252234469168 3983.7252541872585
1629.676229812474 3969.508204321818
1630.4270542001905 4048.9069219697108
1631.1776966578382 4142.7984677195045
1631.9281572331747 4046.140013873922
1632.678435973945 4105.316940262618
1633.4285329278573 4015.0866107131405
1634.1784481426203 3866.2729495738945
1634.9281816659113 3959.1251681569615
1635.677733545388 4023.4438044746407
1636.4271038286934 3983.4467759459935
1637.176292563452 4038.39877557633
1637.9252997972635 4084.0605094271887
1638.674125577716 4165.622218117603
1639.4227699523672 4146.285726599573
1640.171232968767 4008.5527692852934
1640.9195146744423 4049.0113789575503
1641.6676151168977 4164.35118275901
1642.4155343436178 4228.128685756713
1643.1632724020765 4037.067451620649
1643.9108293397167 4153.046383505635
1644.658205203974 4028.939540263708
1645.4054000422566 4515.742241842554
1646.1524139019566 4014.310913009934
1646.8992468304423 4028.322734639353
1647.6458988750728 4111.992114375132
1648.3923700831765 4179.930982731854
1649.1386605020743 4185.301202696945
1649.8847701790564 4170.963882275342
1650.6306991614038 4235.153820981356
1651.3764474963682 4068.6450982958436
1652.1220152311944 3934.0745169090724
1652.867402413096 4254.329643897025
1653.6126090892776 4058.3601673772732
1654.3576353069184 4231.655157155632
1655.1024811131829 4157.877489116988
1655.8471465552066 4172.488971811266
1656.5916316801213 4305.77357456969
1657.3359365350298 4193.413426014123
1658.0800611670165 3952.6143296281043
1658.824005623148 4065.9842363298217
1659.5677699504722 4026.532680118966
1660.3113541960192 4076.8361227315436
1661.054758406799 3919.5002366801264
1661.7979826297997 3930.3544816029585
1662.5410269119966 3874.2293939484834
1663.283891300338 3833.266900312033
1664.0265758417645 4007.1990690644343
1664.7690805831826 3941.131653772024
1665.5114055714948 3815.9856724590995
1666.2535508535748 4047.0663995530244
1666.9955164762814 3704.396324091689
1667.7373024864555 3850.1029360640146
1668.478908930916 3833.9273382190413
1669.220335856462 3676.12610267969
1669.9615833098778 3808.578296514201
1670.7026513379296 3743.4286218050875
1671.44353998736 3765.032404235307
1672.1842493048916 3583.888952518236
1672.9247793372379 3793.2119408899425
1673.6651301310812 3787.1262008371195
1674.4053017330934 3672.1560648309423
1675.1452941899242 3663.684668973743
1675.885107548207 3414.9890938763956
1676.6247418545518 3463.6334362402376
1677.3641971555535 3557.4161349211595
1678.1034734977893 3651.1490582748715
1678.8425709278108 3702.413294337489
1679.5814894921605 3653.6038632362297
1680.320229237359 3417.5134200681705
1681.0587902098978 3683.197494783032
1681.7971724562685 3585.479499977414
1682.5353760229264 3482.5118778943556
1683.2734009563173 3510.6131105642867
1684.0112473028657 3308.625575492989
1684.7489151089794 3568.4431732811017
1685.4864044210462 3470.4125922306907
1686.2237152854377 3316.748195929452
1686.960847748498 3427.0769666732995
1687.6978018565642 3430.612779556507
1688.434577655944 3386.4949319013285
1689.1711751929379 3271.341535845742
1689.9075945138156 3214.109149946128
1690.6438356648396 3404.5376446694813
1691.3798986922448 3147.945866819343
1692.1157836422499 3314.402009997054
1692.851490561059 3234.6824503250873
1693.587019494853 3253.0001660039147
1694.3223704897991 3109.1632589724964
1695.0575435920364 3107.2692818440137
1695.792538847696 3246.878379785887
1696.527356302886 3165.8977329062755
1697.2619960036936 3058.487665841329
1697.9964579961907 2946.627698346988
1698.730742326432 2862.5248215221973
1699.4648490404488 2954.819428185833
1700.1987781842563 3072.179044855732
1700.9325298038548 2914.911002651973
1701.6661039452174 3058.1726490531896
1702.3995006543082 3117.3256385898803
1703.1327199770658 3092.9752597386187
1703.865761959416 2630.809382426613
1704.598626647261 2955.651590455024
1705.3313140864866 2906.5698317699694
1706.0638243229587 2812.5789159214473
1706.7961574025303 2972.0847262718294
1707.528313371029 2883.9113765613006
1708.260292274268 2840.5224229463047
1708.9920941580403 2850.834342996276
1709.7237190681226 2878.702546170759
1710.4551670502697 2843.5056224142736
1711.18643815022 2787.392660863252
1711.9175324136959 3029.7404103629715
1712.6484498863938 2845.4363353454755
1713.379190614005 2733.0131162493954
1714.109754642188 2863.3671643098587
1714.8401420165883 2764.5894058845865
1715.570352782839 3264.3781740214586
1716.3003869865497 2800.6963826327337
1717.0302446733076 2725.0507870766714
1717.7599258886876 2842.331017888819
1718.4894306782444 2905.287521261763
1719.2187590875183 2636.6899131577493
1719.9479111620203 2824.312803048749
1720.6768869472544 2650.151474460028
1721.4056864887025 2802.925682386633
1722.1343098318284 2853.3139099222963
1722.8627570220742 2849.796721699919
1723.591028104871 2696.100101182159
1724.3191231256242 2654.0084587945403
1725.0470421297232 2678.6178682804984
1725.7747851625427 2773.8007603529327
1726.5023522694337 2822.955887215183
1727.2297434957363 2676.101256184242
1727.9569588867635 2409.1231288521185
1728.6839984878152 2794.149369527391
1729.4108623441734 2572.338051249949
1730.1375505011038 2635.137740508879
1730.8640630038426 2634.1501570075843
1731.5903998976264 2669.838383173173
1732.316561227657 2719.5679255957175
1733.0425470391274 2551.392984012685
1733.7683573772065 2560.520630493956
1734.4939922870508 2657.8179754247017
1735.2194518137949 2735.492748132181
1735.9447360025606 2665.4693720675928
1736.669844898439 2537.9245012848614
1737.3947785465189 2669.3530002482066
1738.1195369918605 2590.7718963838875
1738.8441202795093 2600.505673756523
1739.5685284544943 2788.267375443636
1740.292761561821 2714.3542642412726
1741.0168196464838 2672.3818298845536
1741.7407027534518 2607.3130431356885
1742.464410927687 2531.445187453625
1743.187944214118 2655.8128440673254
1743.9113026576688 2574.716164507752
1744.634486303241 2645.0402658804232
1745.3574951957125 2674.9029734157293
1746.0803293799509 2708.841758285619
1746.8029889008048 2619.720997691108
1747.5254738031017 2545.179739955112
1748.2477841316504 2439.6548703046183
1748.969919931249 2493.1086772859867
1749.6918812466665 2507.2103585336845
1750.4136681226646 2591.036443399591
1751.1352806039777 2633.2123236206426
1751.856718735331 2369.8547832417707
1752.5779825614281 2477.2992210758825
1753.2990721269507 2707.930928953644
1754.0199874765676 2507.0494231479315
1754.7407286549314 2438.941920774408
1755.4612957066693 2433.7496737758574
1756.1816886763954 2503.3018094000545
1756.9019076087097 2575.0421590487003
1757.6219525481865 2547.251400733059
1758.3418235393856 2504.2501786572184
1759.061520626854 2443.741801913497
1759.7810438551096 2520.9088550979095
1760.5003932686614 2385.6476100122763
1761.2195689119999 2587.4935453276134
1761.938570829594 2565.2209707744405
1762.657399065898 2570.553924880819
1763.376053665348 2364.759775349816
1764.0945346723602 2430.0827159751966
1764.812842131334 2525.580795681565
1765.5309760866512 2425.354031361756
1766.2489365826787 2338.4923063987576
1766.9667236637597 2452.7309362232622
1767.684337374223 2341.4733930670823
1768.401777758383 2312.2863710871675
1769.1190448605284 2442.9635322390886
1769.836138724937 2269.8161618999347
1770.5530593958665 2521.4068272089553
1771.2698069175603 2559.9971530366997
1771.9863813342326 2580.346191067377
1772.702782690094 2290.295405405854
1773.4190110293293 2547.4770934740986
1774.1350663961111 2416.6857148559334
1774.8509488345844 2488.1141532589245
1775.5666583888924 2466.0425512148263
1776.2821951031437 2452.601123316564
1776.9975590214362 2406.302959650681
1777.7127501878585 2556.8093131497235
1778.4277686464684 2521.0491120796883
1779.1426144413108 2442.909549132909
1779.8572876164162 2473.8766715921765
1780.571788215797 2301.141340979274
1781.2861162834415 2459.2645993288997
1782.0002718633277 2444.8206546822285
1782.7142549994132 2574.4643170576755
1783.4280657356376 2532.6001210688287
1784.141704115922 2398.541719157603
1784.855170184177 2336.742677145613
1785.5684639842839 2356.2945327393636
1786.2815855601148 2163.9417576328656
1786.9945349555237 2477.801305112954
1787.707312214343 2330.6706044708
1788.4199173803918 2688.332875309988
1789.132350497468 2337.1213684271343
1789.8446116093583 2367.0544929027687
1790.556700759822 2284.2429033119156
1791.2686179926077 2396.6297728739573
1791.9803633514493 2317.8770139899348
1792.6919368800554 2306.6080289836177
1793.4033386221236 2362.2129999805957
1794.1145686213295 2520.86035365548
1794.8256269213307 2549.713021853493
1795.536513565774 2448.3722240817015
1796.247228598284 2252.5240453634333
1796.9577720624693 2293.4381985864698
1797.6681440019165 2497.89827902621
1798.3783444602013 2285.7420374779654
1799.0883734808776 2332.377326192608
1799.7982311074884 2409.4539771681257
1800.5079173835475 2428.795059560603
1801.2174323525633 2399.32509559117
1801.9267760580187 2411.7924293932847
1802.635948543386 2364.6606249386205
1803.3449498521113 2282.65520605839
1804.0537800276325 2365.160369082415
1804.7624391133668 2500.748551881999
1805.47092715271 2194.124223353738
1806.1792441890484 2271.824057436168
1806.8873902657433 2307.379142942174
1807.5953654261448 2374.5875537611814
1808.3031697135812 2303.188396792116
1809.0108031713662 2146.0496865099876
1809.71826584279 2316.4244527157452
1810.425557771141 2316.2844614067494
1811.1326789996747 2373.495698978719
1811.839629571632 2153.9387591990703
1812.5464095302468 2263.4115100489657
1813.2530189187182 2191.025437372406
1813.959457780249 2253.7175876346623
1814.6657261580076 2408.277740487647
1815.371824095153 2332.4407015154075
1816.0777516348262 2301.713883541678
1816.78350882015 2123.8805184968137
1817.4890956942272 2150.0508524235397
1818.1945123001533 2367.1358067810725
1818.8997586809928 2234.4739647011947
1819.6048348798067 2239.917549553077
1820.3097409396287 2207.6009464351723
1821.0144769034796 2483.8277666217273
1821.7190428143622 2328.0420906559607
1822.423438715261 2324.7698427996966
1823.1276646491478 2215.5547263574827
1823.8317206589727 2295.1589389576725
1824.5356067876692 2211.72057513648
1825.2393230781581 2273.575348987396
1825.942869573335 2153.8618782659864
1826.646246316086 2288.8455756851704
1827.3494533492758 2227.9671517580855
1828.052490715756 2416.0776089530896
1828.7553584583547 2358.662691784187
1829.458056619891 2363.563221429763
1830.1605852431585 2306.254513995871
1830.8629443709433 2231.3185134762707
1831.5651340460063 2319.8890478147887
1832.2671543110919 2181.0677629213396
1832.9690052089318 2465.634527866277
1833.6706867822395 2089.067715143394
1834.3721990737104 2332.092857578825
1835.0735421260233 2321.3794402373546
1835.774715981841 2229.821233863594
1836.4757206838058 2301.2049793063306
1837.1765562745459 2281.769301986639
1837.8772227966747 2231.494548474477
1838.5777202927839 2224.2519598948684
1839.2780488054523 2247.3926934422393
1839.9782083772352 2205.927162793337
1840.6781990506806 2288.730041395563
1841.378020868313 2049.136025154832
1842.0776738726418 2335.4743635227223
1842.777158106157 2273.243937036326
1843.4764736113375 2177.830053205044
1844.1756204306403 2335.6547917875596
1844.8745986065078 2118.5209605291325
1845.5734081813607 2169.7145149913317
1846.2720491976124 2087.6641179626727
1846.970521697649 2058.7615322935935
1847.6688257238511 2292.359764923658
1848.3669613185684 2254.1117393908207
1849.0649285241452 2090.7500960183647
1849.7627273829057 2264.1135290941256
1850.460357937156 2269.437703928478
1851.1578202291857 2045.149406256151
1851.8551143012664 2235.6256301001
1852.5522401956569 2145.814744591201
1853.2491979545957 2167.530551386771
1853.9459876203055 2272.3516936082615
1854.6426092349902 2125.16413189976
1855.3390628408451 2055.705158190018
1856.0353484800362 2215.8466507926705
1856.7314661947203 2308.1534556657307
1857.4274160270397 2099.9813800971233
1858.123198019115 2143.152851365025
1858.8188122130487 2034.0770061381718
1859.5142586509319 2242.675551844364
1860.209537374838 2167.279662565453
1860.9046484268183 2234.0035577985864
1861.599591848917 2229.6163827214255
1862.294367683151 2008.0085450989354
1862.988975971528 2189.431109353288
1863.6834167560355 2056.1474531447325
1864.3776900786452 2135.9593793695567
1865.0717959813119 2175.805506801794
1865.7657345059724 1927.148671991053
1866.4595056945564 2308.1304523498866
1867.1531095889586 2168.4748424859085
1867.846546231076 2057.511718157385
1868.5398156627743 2190.4544539310345
1869.2329179259123 2083.7910019390065
1869.9258530623283 2302.8730535841146
1870.618621113843 2051.3872387276815
1871.3112221222636 1948.6163517888685
1872.0036561293764 2052.019187789403
1872.695923176956 2084.3381709958453
1873.3880233067594 2216.0816705037178
1874.0799565605212 2112.997833227543
1874.7717229799673 2129.5996535453805
1875.4633226068036 2140.096087881181
1876.1547554827175 2277.7108521755276
1876.8460216493859 2044.6664240244004
1877.5371211484617 2169.18144579727
1878.2280540215852 2276.19115140919
1878.9188203103804 1968.170029181931
1879.6094200564548 2239.914282847762
1880.299853301396 1924.2385832614254
1880.9901200867826 2346.2599535840845
1881.6802204541673 2357.779881524337
1882.3701544450942 2203.1150589369017
1883.059922101087 1962.8275541585015
1883.7495234636517 2039.8379374653844
1884.4389585742792 2026.9859356590773
1885.1282274744517 1945.4792179382534
1885.8173302056166 2395.2669388076147
1886.506266809225 2079.2322423696596
1887.195037326701 1944.0418259958046
1887.8836417994517 2165.1901434620368
1888.5720802688702 2173.9057891547336
1889.260352776333 2118.261777712564
1889.9484593632042 2086.7611484278286
1890.63640007082 2006.8637166848737
1891.3241749405151 1928.6682070613078
1892.0117840135954 2092.7350510276283
1892.6992273313572 2139.400127150041
1893.3865049350788 1961.344672443889
1894.0736168660223 2195.0930532902826
1894.7605631654333 2090.5239213564446
1895.4473438745408 2028.0556876130431
1896.133959034556 2371.2105651377383
1896.820408686679 2108.2983685212857
1897.506692872088 2005.7132150755886
1898.192811631945 2148.7041869631944
1898.8787650073991 2091.2046318801954
1899.5645530395832 2163.955461242517
1900.2501757696118 2106.5778014198554
1900.9356332385796 1979.5201234429428
1901.620925487574 2259.4587379324075
1902.3060525576602 2216.128101970685
1902.9910144898859 2198.302823550015
1903.6758113252872 2028.7376499706756
1904.3604431048789 2258.4617578655843
1905.0449098696663 2138.852882878449
1905.7292116606295 2049.095711388856
1906.4133485187394 2065.060294119248
1907.0973204849488 1889.0446905964322
1907.7811276001976 2005.4599209288456
1908.4647699053967 2019.4472263761334
1909.1482474414588 1613.3844146504257
1909.8315602492694 1850.812686561346
1910.5147083696957 2048.1501371620566
1911.1976918436012 2031.4775211884203
1911.880510711815 1911.6124894785075
1912.5631650151681 2219.69814695735
1913.2456547944657 1946.6729110740598
1913.927980090495 2058.7136580381543
1914.6101409440362 1995.5713998480576
1915.2921373958416 2078.2750278069884
1915.9739694866603 2168.526900885155
1916.655637257214 2122.062972965672
1917.3371407482136 2047.7745601032013
1918.0184800003572 2268.8455402337436
1918.6996550543154 2050.802264018704
1919.3806659507554 2025.304533290871
1920.0615127303208 1966.2522678808891
1920.7421954336423 2080.701594504532
1921.4227141013343 2095.7720868817737
1922.103068773993 2096.8777312284155
1922.783259492202 2083.127516956211
1923.4632862965227 1858.1522432762806
1924.1431492275078 2026.955946233936
1924.8228483256917 1955.6352243744955
1925.5023836315922 1784.5161540192862
1926.1817551857057 1843.7554986304501
1926.8609630285227 2288.022178847371
1927.5400072005123 2129.164257491261
1928.218887742125 1763.3352397118135
1928.8976046938005 1929.8981598546295
1929.5761580959588 2140.0571632402907
1930.2545479890086 1978.1537438475357
1930.9327744133352 1905.2600976528392
1931.6108374093164 1995.015788888526
1932.2887370173066 2133.968939987207
1932.9664732776473 1867.669861044144
1933.6440462306673 2109.5903215645026
1934.3214559166754 2041.9453094759479
1934.9987023759659 2015.7215450076903
1935.675785648813 1951.5187445304286
1936.3527057754836 1780.9855782053805
1937.029462796223 2092.282859735552
1937.70605675126 1919.7047619796006
1938.3824876808085 1948.4579747671905
1939.058755625072 1903.99122700466
1939.7348606242267 2013.9018739594176
1940.4108027184448 1993.3160087561787
1941.0865819478713 2053.9042947884723
1941.7621983526478 1845.793308277156
1942.4376519728921 1950.3775864188833
1943.1129428487038 1957.362701574692
1943.7880710201734 1996.9555101986814
1944.4630365273733 2046.1865206508853
1945.1378394103576 1916.5331221276142
1945.8124797091714 2133.1950279356142
1946.4869574638324 1912.6274285187392
1947.161272714353 1887.42458980642
1947.8354255007234 2116.092390873218
1948.5094158629272 1892.8090819587323
1949.1832438409183 1959.3239645628055
1949.8569094746435 2060.8099071586225
1950.530412804037 2208.989593725606
1951.2037538690092 2145.0006027711165
1951.8769327094578 1841.0723224549256
1952.5499493652678 1921.3491314035825
1953.222803876306 1876.2327367259506
1953.895496282421 1937.037701956328
1954.5680266234522 2004.6479425124694
1955.2403949392155 1973.835405701065
1955.9126012695142 1896.1133929445903
1956.5846456541403 1969.5250221306621
1957.2565281328643 1797.972008676994
1957.9282487454457 2141.17534555702
1958.5998075316202 1892.4037640355796
1959.27120453112 1926.1402377385832
1959.9424397836501 2015.811373049532
1960.613513328908 1856.7042104592874
1961.2844252065697 2038.6792889804601
1961.9551754563017 1791.897484122907
1962.6257641177453 1749.002380511655
1963.29619123054 1852.4358539877908
1963.966456834296 1997.2248220736353
1964.6365609686181 1833.057842346625
1965.306503673086 2041.8797121595235
1965.976284987275 2013.4106165677094
1966.645904950734 2028.2319774630607
1967.315363603002 1900.9702714164391
1967.9846609836077 1855.403325718264
1968.6537971320486 1903.4827760704115
1969.3227720878222 1948.5512103979465
1969.9915858904042 1864.2201657874907
1970.660238579252 1899.4262255985636
1971.3287301938108 1979.255541360783
1971.997060773514 1877.3804620396
1972.665230357772 1872.596436135565
1973.3332389859843 1884.8554133322632
1974.0010866975335 1786.3007890242236
1974.6687735317864 1940.6129711154274
1975.3362995280932 1980.027128275688
1976.003664725793 1905.1542125226574
1976.6708691642052 1663.9689654853075
1977.3379128826364 1911.8700162063983
1978.004795920373 2038.4944134839102
1978.6715183166925 2034.679832494763
1979.3380801108524 1792.619581347455
1980.0044813420973 1898.4183779580549
1980.6707220496555 1736.9811903438108
1981.3368022727373 1943.0040085723103
1982.0027220505417 1833.634921379678
1982.66848142225 1635.177349372767
1983.3340804270283 1833.0306039965594
1983.999519104027 1917.0635867331464
1984.6647974923835 1906.964353934968
1985.329915631215 1909.8823593826278
1985.99487355963 1856.4418654263832
1986.6596713167146 2071.523858344782
1987.3243089415428 1756.070655883016
1987.9887864731754 1901.7501922030974
1988.6531039506553 1792.373465949259
1989.3172614130071 1725.2342767937039
1989.9812588992481 1658.0063217497943
1990.645096448372 1722.202710795788
1991.3087740993633 1791.6062438156478
1991.9722918911848 1573.327476949952
1992.635649862792 1961.2990403516676
1993.2988480531185 1852.4913031508472
1993.9618865010852 2183.642149812461
1994.6247652455968 1902.0277085973794
1995.287484325545 1818.5354206725322
1995.9500437798033 1852.2154372024258
1996.6124436472292 1718.6143352720399
1997.2746839666706 1888.3153317126623
1997.936764776954 1879.3485398099317
1998.598686116895 1824.2292512738454
1999.2604480252903 1841.7694951174271
1999.9220505409212 1913.7104578511203
2000.5834937025593 1730.7287835156262
2001.2447775489582 1826.1512228524457
2001.9059021188514 1849.5051245330305
2002.5668674509616 1620.1364525047827
2003.2276735839987 1796.7972400512986
2003.8883205566508 1929.2080027701554
2004.5488084075987 1893.3182240605954
2005.2091371755014 1847.0543923617893
2005.8693068990033 1829.777155114461
2006.5293176167397 1918.2387613110138
2007.1891693673224 1689.8597499960038
2007.848862189354 1658.32925051772
2008.5083961214223 1755.6672268056996
2009.1677712020955 1824.2334788526928
2009.8269874699254 1715.0576462684626
2010.4860449634598 2067.504189287899
2011.1449437212177 1800.9708713056134
2011.8036837817108 1989.5428137488102
2012.4622651834325 1743.2912280001196
2013.1206879648653 2091.8478493696016
2013.7789521644736 1847.2408232800892
2014.4370578207036 1618.7243232876122
2015.0950049719922 1817.0660687405762
2015.7527936567585 2031.7803154208636
2016.4104239134067 1719.988126367468
2017.067895780323 1681.195056085203
2017.725209295886 1642.2422556402016
2018.3823644984514 1861.9559271701442
2019.0393614263648 1818.820745142415
2019.6962001179545 1704.2835079308838
2020.3528806115355 1744.9269135804036
2021.0094029454067 1798.4876958516888
2021.6657671578487 1731.5477586073416
2022.321973287133 1834.5240069344727
2022.9780213715148 1650.8451290697217
2023.6339114492293 1845.3563270104491
2024.2896435585026 1856.8682227112604
2024.9452177375442 1839.4579034013009
2025.600634024544 1953.5750468310412
2026.2558924576842 1869.4488213194243
2026.9109930751292 2013.2778717670985
2027.565935915025 1740.4622085829349
2028.2207210155066 1889.9645818409
2028.8753484146964 2094.2868115266674
2029.529818150695 1631.6748032661328
2030.1841302615903 1869.8636942083024
2030.8382847854573 1706.6502710680725
2031.4922817603601 1819.5300897627967
2032.1461212243357 1813.1115978158837
2032.7998032154192 1593.7139456829686
2033.4533277716218 1773.1976527691518
2034.1066949309443 1718.8090329321763
2034.7599047313688 1619.0859202430363
2035.4129572108704 1897.6749938873731
2036.0658524074006 1914.5247892671418
2036.7185903589016 1898.3549759939535
2037.3711711032956 1861.2882781124622
2038.023594678496 1838.6538379970182
2038.675861122394 1713.382416241281
2039.3279704728757 1848.0166906962045
2039.9799227678031 1699.566884296271
2040.6317180450278 1736.0775389570167
2041.2833563423865 1629.4827205748818
2041.9348376977014 1873.9579201982785
2042.5861621487784 1832.8599541645483
2043.2373297334088 1800.4505226706813
2043.8883404893695 1880.5045055685937
2044.5391944544208 1770.6726289606845
2045.1898916663158 1833.725331976742
2045.8404321627804 1881.0457056340765
2046.4908159815368 1788.3248530693859
2047.1410431602853 1398.4738115889481
2047.7911137367173 1686.1881278252054
2048.441027748504 1749.8348992948772
2049.090785233302 1755.1371002681688
2049.7403862287592 1657.1466601280322
2050.389830772503 1927.4115879487556
2051.0391189021466 1748.5855905270248
2051.688250655294 1743.8992827653808
2052.337226069527 1631.3433917263974
2052.986045182417 1782.1502289691223
2053.634708031521 1639.331010575074
2054.283214654375 1580.3808493496597
2054.931565088511 1521.3936430878562
2055.579759371436 1702.2803716778046
2056.2277975406523 1742.1120740714791
2056.8756796336384 1923.2322407960692
2057.5234056878617 1861.0223255110354
2058.1709757407752 1798.4830795800694
2058.8183898298194 1805.8673944368281
2059.465647992416 1663.5114425796291
2060.1127502659747 1765.716515219357
2060.759696687888 1699.042709192032
2061.4064872955405 1784.2322621501821
2062.053122126292 1931.8557749360164
2062.699601217497 1571.7469415501967
2063.345924606485 1740.018221410842
2063.992092330587 1889.210354181012
2064.638104427102 1656.1516258863044
2065.283960933324 1833.92913598198
2065.92966188653 1685.9120803221783
2066.5752073239855 1724.1303777129037
2067.2205972829397 1639.6238965044472
2067.86583180062 1714.270140773943
2068.5109109142522 1742.3549915636308
2069.15583466104 1787.5581784378105
2069.8006030781708 1716.6445470632916
2070.445216202821 1483.8687274005233
2071.089674072153 1653.24213223064
2071.7339767233116 1829.6126650479011
2072.3781241934303 1746.0304231587404
2073.0221165196253 1795.957438489202
2073.6659537390024 1768.336910736242
2074.3096358886505 1812.7442658714147
2074.953163005637 1732.646479095089
2075.596535127028 1522.069636323542
2076.2397522898664 1638.6716719720775
2076.882814531182 1528.6081972767922
2077.5257218879924 1721.0219741088908
2078.1684743973 1730.1443870779617
2078.8110720960885 1579.716347839769
2079.453515021336 1611.6691480180841
2080.095803209997 1643.6143401911122
2080.7379366990135 1769.815376653039
2081.37991552532 1747.7159336603988
2082.0217397258275 1816.4899525371197
2082.6634093374414 1483.5006117840844
2083.3049243970418 1634.0940116975648
2083.9462849415067 1779.2109819152852
2084.587491007689 1791.995603711397
2085.2285426324324 1851.117972178353
2085.869439852564 1801.8268086600317
2086.510182704902 1533.9315952978156
2087.1507712262483 1850.109658443766
2087.791205453381 1534.266720376839
2088.4314854230743 1715.2591812178252
2089.0716111720867 1814.1378942899078
2089.7115827371617 1826.67510138066
2090.351400155023 1839.2939633962947
2090.991063462385 1704.855311014108
2091.6305726959527 1652.944034430259
2092.2699278924047 1777.0386045586924
2092.9091290884153 1598.0440430180824
2093.548176320641 1610.2952506732036
2094.187069625721 1869.3592068900525
2094.8258090402887 1857.9461851245323
2095.464394600951 1846.510183053552
2096.102826344313 1752.3280637091943
2096.741104306955 1693.1898162539085
2097.379228525453 1752.7008271924253
2098.017199036358 1613.3721424599087
2098.6550158762147 1833.1963319019644
2099.2926790815527 1710.1307532311348
2099.9301886888825 1736.7793320237622
2100.5675447347076 1798.9342351343482
2101.2047472555114 1772.4325912181037
2101.841796287761 1448.4552352184671
2102.47869186792 1699.1088115154344
2103.1154340324265 1534.6952467523688
2103.752022817709 1510.213872311894
2104.388458260184 1645.162730215338
2105.024740396251 1711.3252912423054
2105.660869262292 1734.7190868688522
2106.296844894685 1512.2065549363804
2106.93266732978 1646.675805887867
2107.5683366039284 1518.1760630876533
2108.2038527534532 1600.3216387316575
2108.8392158146726 1785.892191626186
2109.4744258238843 1594.7195914533315
2110.1094828173755 1341.7331532442652
2110.744386831422 1637.370908854968
2111.3791379022787 1772.1920233636986
2112.01373606619 1735.8953025933981
2112.648181359389 1885.7238145332872
2113.28247381809 1683.5484059862677
2113.916613478492 1661.4362512701596
2114.550600376786 1663.4620747424906
2115.1844345491445 1658.1067215761218
2115.818116031729 1715.90539968515
2116.451644860679 1748.1501437291765
2117.085021072133 1571.8980408428122
2117.718244702204 1455.0170476197143
2118.3513157869984 1587.0049180099627
2118.984234362604 1742.3744967658108
2119.617000465092 1596.979840721729
2120.249614130529 1887.1845453631583
2120.8820753949585 1805.3536881461343
2121.5143842944162 1492.9010890035747
2122.14654086492 1497.9142064297405
2122.7785451424734 1784.4406415819963
2123.4103971630702 1528.1155652956534
2124.042096962681 1622.3381259243579
2124.6736445772767 1581.3041279335453
2125.305040042802 1532.8305985917405
2125.936283395191 1641.2523816674372
2126.567374670365 1668.1652832659443
2127.198313904233 1655.3270379721023
2127.8291011326855 1889.2158995405055
2128.4597363916037 1566.8681981785708
2129.0902197168507 1461.3170630147179
2129.720551144279 1494.8107907647316
2130.3507307097225 1695.0894576336316
2130.980758449008 1552.8956403047168
2131.6106343979427 1575.0029524178494
2132.2403585923203 1817.831521956615
2132.8699310679276 1672.7313290667867
2133.499351860526 1679.7832870037462
2134.1286210058715 1609.396795888528
2134.7577385397053 1655.2167450891618
2135.3867044977487 1701.1625666132397
2136.0155189157176 1799.8206710378254
2136.644181829308 1628.2619118445668
2137.2726932742025 1596.9013199170645
2137.901053286074 1807.6175184601482
2138.5292619005777 1398.7125673258784
2139.1573191533535 1683.854170822824
2139.7852250800315 1777.1610454879265
2140.4129797162295 1579.9482421866942
2141.0405830975433 1514.665546989535
2141.6680352595613 1808.6415573749623
2142.2953362378576 1537.761916020359
2142.9224860679915 1603.6915349699514
2143.549484785508 1600.2021367340174
2144.1763324259373 1716.9502178141101
2144.803029024799 1503.1772392997457
2145.429574617594 1443.652258266838
2146.0559692398165 1587.001229222101
2146.682212926942 1566.594081096266
2147.308305714432 1613.3977894603765
2147.9342476377333 1625.8273899144847
2148.5600387322847 1587.328649631611
2149.185679033506 1615.0283543528997
2149.8111685768017 1588.0737158897916
2150.4365073975678 1591.8264109672332
2151.061695531187 1651.9112641953936
2151.686733013021 1773.582057504956
2152.311619878423 1662.8765544850921
2152.9363561627342 1499.4792632394353
2153.560941901278 1548.4000066829713
2154.1853771293663 1512.6295116781953
2154.809661882293 1644.7661093139654
2155.433796195348 1568.1534785636113
2156.0577801037944 1491.2508285125991
2156.681613642895 1422.4790935762285
2157.3052968478896 1522.0568418762814
2157.928829754006 1768.3698975380644
2158.552212396462 1684.1229405167153
2159.1754448104566 1374.558590069641
2159.7985270311783 1657.5290912917055
2160.4214590938027 1405.9231204519315
2161.0442410334927 1441.8490342104196
2161.6668728853874 1511.5292568650734
2162.289354684628 1439.2079808011426
2162.911686466332 1726.4606765726737
2163.533868265602 1621.8194158954407
2164.1559001175337 1712.6467293925284
2164.7777820572046 1777.6100538892529
2165.399514119681 1418.109266423719
2166.021096340013 1553.024890599409
2166.6425287532384 1790.902094050284
2167.263811394385 1533.4649550990807
2167.8849442984574 1389.0151778998902
2168.505927500455 1584.7442336685724
2169.126761035366 1553.9337946942362
2169.7474449381552 1506.210479570028
2170.367979243778 1402.1959111729639
2170.9883639871823 1543.0382312582017
2171.608599203293 1444.115741847469
2172.2286849270276 1508.5109582502332
2172.8486211932886 1573.0256636290949
2173.4684080369625 1593.5084266604727
2174.0880454929265 1462.269174443263
2174.7075335960417 1519.5687244687317
2175.3268723811543 1641.8189816545193
2175.9460618831 1311.5061453459823
2176.565102136701 1615.513155739782
2177.1839931767627 1660.1198157810734
2177.802735038078 1355.2198292214287
2178.421327755432 1583.328434363146
2179.0397713635866 1405.45239644066
2179.658065897298 1624.7968336444176
2180.276211391305 1561.3125297767858
2180.8942078803357 1545.7588168678428
2181.5120553991 1544.8365266444566
2182.129753982299 1224.7416673018934
2182.7473036646206 1376.4614563895761
2183.3647044807367 1594.4128163779203
2183.9819564653044 1426.76630688687
2184.599059652968 1745.0952779564127
2185.216014078367 1631.2509282085869
2185.832819776113 1612.298993787124
2186.4494767808137 1593.2098213619245
2187.065985127063 1555.668219580183
2187.682344849436 1490.803044475826
2188.298555982501 1688.7533307058445
2188.9146185608097 1543.5796276784852
2189.530532618901 1873.5135257445897
2190.1462981912937 1728.2199105208176
2190.761915312507 1483.4271636033009
2191.377384017036 1206.9564862253415
2191.9927043393654 1486.1213253754079
2192.6078763139667 1347.0467713695905
2193.2228999753006 1680.2440999558107
2193.837775357808 1474.168297889525
2194.452502495922 1485.2526628277703
2195.0670814240602 1503.2023575693847
2195.6815121766285 1407.3653602382672
2196.2957947880186 1331.9175174755878
2196.9099292926057 1256.3220032796848
2197.523915724758 1417.158530987542
2198.137754118825 1425.5473800020989
2198.7514445091456 1629.7376373953928
2199.3649869300443 1670.9326491169663
2199.9783814158327 1712.2940516895392
2200.5916280008096 1642.4574387966873
2201.2047267192593 1749.7642069796232
2201.8176776054515 1446.8883862344182
2202.430480693649 1212.6864569747745
2203.0431360180955 1539.580765090945
2203.6556436130195 1700.3095625895378
2204.268003512645 1362.4688833318255
2204.8802157511727 1527.7011705566306
2205.492280362796 1851.44150929561
2206.1041973816937 1698.761248953767
2206.715966842032 1502.1600801277295
2207.3275887779655 1560.4563993354634
2207.93906322363 1483.7885242891357
2208.550390213153 1377.1568890318906
2209.1615697806465 1384.186667260155
2209.7726019602105 1522.1691352973526
2210.3834867859277 1538.7479466086388
2210.9942242918787 1316.5098735041734
2211.6048145121167 1589.7566543527278
2212.2152574806914 1776.9639501954837
2212.825553231638 1432.7480211200752
2213.435701798975 1686.6563343780751
2214.045703216707 1547.5491339437608
2214.655557518832 1341.893993235364
2215.2652647393297 1318.9915249075898
2215.874824912169 1255.079880771496
2216.4842380713 1446.9223070646456
2217.09350425067 1510.5926199301105
2217.7026234842033 1574.471822297613
2218.311595805819 1569.321472484033
2218.9204212494133 1327.0467692953212
2219.52909984888 1540.1282339824468
2220.137631638092 1400.0964454266846
2220.7460166509154 1467.3954030550244
2221.354254921198 1374.1658977246675
2221.9623464827764 1671.096058440117
2222.5702913694713 1638.1685299111489
2223.178089615096 1560.6107321941506
2223.7857412534486 1303.0097740496653
2224.39324631831 1371.9208260185142
2225.000604843457 1507.2479463204852
2225.607816862641 1460.922127230057
2226.214882409611 1505.420217461106
2226.8218015180973 1632.2660174737644
2227.4285742218217 1507.5169847850968
2228.0352005544864 1386.8593672503193
2228.6416805497847 1373.1425771948627
2229.248014241399 1326.0585789319114
2229.8542016629945 1322.4101560561244
2230.460242848223 1531.9622198199365
2231.0661378307304 1572.024831760045
2231.671886644139 1404.5542245925903
2232.277489322065 1366.2072732692823
2232.8829458981127 1183.907508750936
2233.48825640587 1503.251343328618
2234.0934208789095 1769.1613877524371
2234.6984393507955 1417.8434730062704
2235.3033118550793 1440.6954102335872
2235.9080384252975 1459.2530243284807
2236.5126190949723 1350.8876311862748
2237.1170538976166 1444.0095571629686
2237.721342866729 1360.3820911652222
2238.32548603579 1487.3471954433921
2238.9294834382763 1569.100006710801
2239.533335107646 1558.620767547998
2240.1370410773434 1329.543336162515
2240.740601380803 1245.4369765186161
2241.3440160514474 1575.52202769527
2241.9472851226783 1609.1478251648155
2242.550408627896 1354.42319346398
2243.1533866004793 1449.831314639677
2243.756219073799 1352.3178767087254
2244.3589060812064 1292.274638778434
2244.961447656049 1232.1465726070644
2245.5638438316564 1447.600589746741
2246.166094641343 1425.2982631472082
2246.7682001184166 1365.9662326215912
2247.3701602961664 1276.8910329535706
2247.971975207871 1468.0887307498876
2248.5736448867974 1503.676311853651
2249.175169366197 1548.1892117770988
2249.7765486793123 1495.9752124633017
2250.3777828593684 1419.744667872941
2250.9788719395783 1489.3485363264388
2251.579815953146 1463.524182429633
2252.1806149332606 1330.157180614389
2252.781268913097 1327.9862121598123
2253.381777925817 1442.3366639468263
2253.9821420045737 1485.0708866771427
2254.5823611825035 1481.5110472901206
2255.1824354927303 1395.6491085567466
2255.782364968365 1308.217182714746
2256.38214964251 1220.705008881931
2256.9817895482483 1368.6170335106194
2257.5812847186553 1441.7391345897665
2258.180635186791 1343.7480848891703
2258.779840985704 1408.0407300006889
2259.37890214843 1371.6437470754252
2259.97781870799 1412.0289334728016
2260.5765906973957 1521.8529497270515
2261.175218149645 1579.0499366151917
2261.773701097718 1355.3888378251459
2262.3720395745895 1193.283469154567
2262.970233613216 1253.2642430847206
2263.568283246548 1461.6741269439992
2264.1661885075137 1265.777431613533
2264.763949429038 1413.7559783123827
2265.3615660440246 1563.4360024667756
2265.959038385374 1268.4384705131567
2266.5563664859637 1377.2420019232454
2267.153550378669 1294.6686616738614
2267.7505900963424 1248.5742748646976
2268.3474856718312 1498.015868941843
2268.9442371379664 1295.153763490335
2269.5408445275643 1266.7238142028177
2270.1373078734377 1238.2728377950993
2270.7336272083758 1264.0672185379517
2271.32980256516 1409.3448606412398
2271.925833976562 1534.9634815762392
2272.5217214753357 1657.7344209489474
2273.117465094223 1409.0235537704098
2273.7130648659586 1284.3368812445137
2274.308520823257 1342.5324672686006
2274.903832998827 1516.370706719552
2275.4990014253563 1309.6772393668812
2276.094026135528 1602.622703951328
2276.6889071620117 1463.5133714673493
2277.2836445374614 1395.9850331653754
2277.878238294519 1328.265981126746
2278.472688465812 1079.9644634796975
2279.066995083962 1200.0937712926448
2279.6611581815705 1325.0419575983417
2280.255177791232 1293.4424931704793
2280.8490539455233 1508.821192789965
2281.442786677013 1681.1172586495945
2282.0363760182554 1443.0381588309076
2282.6298220017943 1212.3900578924977
2283.223124660155 1240.177936391543
2283.816284025859 1268.0930185475033
2284.4093001314086 1374.2622300994756
2285.002173009292 1353.9747556056248
2285.5949026919952 1480.88422344547
2286.1874892119777 1528.074937581616
2286.7799326016993 1503.0866396026136
2287.3722328936 1199.765314035627
2287.964390120109 1211.9567635715725
2288.556404313642 1427.2114473881493
2289.1482755066027 1452.0618166545157
2289.7400037313873 1560.484187530737
2290.3315890203703 1399.1263596255708
2290.9230314059205 1314.932216224258
2291.5143309203904 1230.642456523004
2292.1054875961236 1405.7854829815853
2292.6965014654506 1346.9112483540562
2293.287372560684 1256.295723179876
2293.878100914131 1282.2162986970677
2294.468686558086 1308.233515957897
2295.059129524827 1288.9984108703427
2295.649429846617 1257.7668153386596
2296.239587555716 1226.4317704321238
2296.8296026843636 1355.3327238362272
2297.419475264791 1368.6148866381927
2298.0092053292137 1381.836857074761
2298.598792909839 1246.9942025215746
2299.1882380388597 1292.7912530588715
2299.777540748455 1407.4702810045858
2300.3667010707904 1502.9730715151468
2300.9557190380256 1271.2262884579766
2301.544594682302 1315.2598599355924
2302.1333280357503 1211.5637604576136
2302.721919130485 1443.6259169351963
2303.3103679986198 1444.5045600340227
2303.898674672242 1540.4548815722396
2304.486839183437 1317.882665615948
2305.0748615642697 1259.4860847848433
2305.6627418468015 1336.6356575436632
2306.2504800630704 1281.5837113625523
2306.8380762451143 1454.4716267825438
2307.425530424949 1414.0489328082408
2308.012842634582 1373.522444001751
2308.6000129060103 1358.8558100856599
2309.187041271214 1428.6391293351362
2309.773927762164 1293.6702763615185
2310.3606724108213 1405.9381954052435
2310.9472752491274 1197.322203239213
2311.5337363090184 1148.1966489655024
2312.120055622414 1316.3387135498776
2312.706233221221 1329.43742779914
2313.2922691373424 1126.2703350998695
2313.8781634026564 1424.5876342426411
2314.463916049037 1414.819548216867
2315.049527108342 1357.3157392080616
2315.6349966124235 1299.6476235162502
2316.2203245931123 1312.6970425900922
2316.8055110822315 1249.8329621327723
2317.3905561115935 1186.8026542307912
2317.9754597129977 1307.2056927258157
2318.560221918229 1371.5925697401067
2319.1448427590603 1149.380270691557
2319.729322267256 1082.69869426179
2320.313660474563 1177.0938457801458
2320.8978574127195 1300.07981782535
2321.481913113452 1315.9940181022491
2322.0658276084705 1332.0047428860812
2322.6496009294806 1302.146599436897
2323.233233108165 1036.2983868901833
2323.8167241762058 1359.4502356235905
2324.4000741652617 1456.1033241969735
2324.983283106987 1552.9121889216199
2325.5663510330232 1435.363779319157
2326.1492779749933 1431.8768843366565
2326.7320639645204 1416.4030351774404
2327.3147090332004 1329.8700255758974
2327.897213212629 1627.9376216563278
2328.4795765343843 1429.6747244772857
2329.0617990300307 1488.867513353857
2329.643880731124 1548.1521719415362
2330.22582166921 1229.3354164647824
2330.807621875816 1553.7550647904868
2331.3892813824623 1170.2638839073973
2331.9708002206517 1402.0789449825768
2332.5521784218818 1257.3999490568754
2333.133416017634 1323.2964932841626
2333.7145130393765 1215.7745122727788
2334.295469518571 1424.9379124755553
2334.876285486658 1445.2546586861258
2335.456960975076 1459.6615284878517
2336.037496015242 1474.1258840395446
2336.6178906385667 1374.8475248173638
2337.198144876451 1359.3200903532752
2337.778258760278 1203.1052592121234
2338.3582323214214 1508.490516931533
2338.938065591243 1376.1161777551752
2339.517758601087 1556.6682159844686
2340.0973113822965 1425.6698845890364
2340.676723966193 1382.313399640435
2341.255996384094 1387.1819786908945
2341.835128667295 1343.6537218835606
2342.4141208470883 1554.3741095287357
2342.992972954751 1221.690259372532
2343.5716850215467 1465.6479918569594
2344.1502570787306 1284.8685420103343
2344.7286891575386 1103.6784293754156
2345.3069812892045 1269.8008483104582
2345.885133504944 1267.3315126229077
2346.4631458359618 1149.8467292513058
2347.04101831345 1011.2201490543578
2347.6187509685915 1369.2564344678071
2348.196343832553 1473.009863425987
2348.7737969364935 1395.3546266627095
2349.351110311558 1174.4063754074473
2349.9282839888765 1330.7342327561612
2350.5053179995757 1352.6605633379756
2351.0822123747585 1295.920932475641
2351.658967145526 1282.9574194909137
2352.2355823429643 1254.2674025637523
2352.812057998144 1367.7431749112097
2353.3883941421263 1332.192446015789
2353.9645908059647 1296.6297264067546
2354.540648020693 1144.8634619389843
2355.116565817336 1121.440736227057
2355.6923442269126 1385.5408494496446
2356.2679832804224 1279.3296323064264
2356.8434830088518 1141.0293056070846
2357.41884344318 1165.2158762871236
2357.994064614377 1176.9979035473384
