#exp_cfg={"servo_angle": 0.0, "laser_lim": 100.0, "servo_angle_to": 18.0, "laser_wup": 0.0, "bt_dev": "EnSpectr-25AE3", "laser_wdn_max": 0.0, "frames": 10.0, "servo_used": 0, "servo_calib_use": 0, "laser_wdn_min": 0.0, "servo_pix_from": 90.0, "cooler_tout": 300.0, "servo_angle_from": 0.0, "servo_calib": "[-1.9174921013161362e-09, 3.9322238269163779e-05, -0.27385609119055809, 653.59552119713567]", "laser_autoctl": 0, "servo_pix_to": 3682.0, "laser_pw": 100.0, "cooler_on": 0, "laser_volt": 4.0, "cooler_autoctl": 0, "cooler_curr": 70.0, "cooler_startup": 10.0, "laser_fixed_pw": 0, "gain": 1.3, "offset": 2.53059635486, "servo_calib_degree": 3.0, "laser_curr": 55.0, "shutter": 8200.0, "servo_calib_step": 1.0, "laser_fixed_curr": 0, "exp": 2000.0, "ccd_volt": 4.7, "bt_addr": "00:06:66:62:5A:E3", "servo_delay": 500.0, "laser_autooff": 1}
#proc_cfg={"flat_auto_wnd": 200.0, "flat_auto_fr": 200.0, "flat_auto_shift": 5.0, "yconv": 1, "flatten": 1, "flatten_strength": 100.0, "xfrom": 300.0, "auto_max_frame": 2000.0, "auto_signal": 48000.0, "flat_auto_tol": 0.1, "autoclip": 1, "xrel_range": 0.0, "flat_auto_to": 4000.0, "intensity_adj": 1.0, "xrel": 7852.0, "rmhot": 1, "flat_auto_slit": 4.999999999999997, "auto_ini_exp": 300.0, "auto_off": 0, "xto": 2860.0, "flat_auto_ref": "", "flat_auto_rank": 1, "autobackg": 0, "xrel_adj": 0.0, "auto_black_lvl": 1, "base_wnd": 100.0, "sub_baseline": 0, "xconv": 2, "auto_max_exp": 1000.0, "auto_total_exp": 10000.0, "auto_exp": 0, "rmripple": 0, "black_lvl": 8217.15, "shutter_clip_adj": 0.0, "auto_bckg": 0, "flat_auto_thr": 0.9, "subbackg": 1}
316.8218498245369 23781.185790906104
317.89969571804795 23573.45568529919
318.977263876126 23533.41524740243
320.05455438786703 23345.092716438834
321.1315673423287 23220.742470441615
322.2083028285215 23364.50306247146
323.2847609354267 23226.429251338803
324.3609417519747 23142.169045675037
325.43684536705587 23011.00286037561
326.5124718695279 22897.31818187841
327.58782134820103 22800.690896457632
328.66289389184385 22781.148363158936
329.7376895891921 22647.84995292158
330.8122085289342 22500.75690917392
331.88645079971866 22421.709741425235
332.9604164901575 22327.917261635594
334.03410568881554 22160.117417325953
335.1075184842266 22233.28843492746
336.18065496487543 22021.217788875154
337.2535152192122 21954.854470679136
338.32609933564163 21847.877835781776
339.39840740253203 21736.987438971544
340.4704395082099 21711.167939419087
341.5421957409617 21635.651326798514
342.6136761890357 21582.80831481898
343.6848809406365 21543.82007060611
344.75581008392874 21387.237716708776
345.82646370703696 21368.934128431825
346.8968418980512 21351.194860557374
347.96694474501055 21294.287015479167
349.0367723359268 21373.789195783007
350.106324758759 21165.813956001766
351.1756021014353 21147.343976981945
352.2446044518383 21170.285672233927
353.31333189781435 21211.77056093112
354.38178452716966 21069.308411118218
355.449962427665 21145.17048109307
356.51786568702846 20928.675046540928
357.58549439294256 21144.09234893958
358.6528486330535 21057.908516211297
359.71992849496564 21030.89409229377
360.7867340662433 21019.485032562054
361.8532654344144 20881.158329570848
362.9195226869597 21023.6896119859
363.9855059113288 20923.6439272402
365.05121519492604 20898.376304044006
366.11665062511565 20893.63953527185
367.1818122892273 20874.24582478025
368.2467002745434 20882.97633723208
369.31131466831175 20824.121396264603
370.375655557742 20865.126460553118
371.4397230299983 20889.564227223476
372.5035171722102 20793.89652580664
373.5670380714637 20765.31594902741
374.6302858148101 20787.19122863681
375.6932604892554 20825.53503178021
376.7559621817709 20740.550110196687
377.81839097928605 20720.51928852767
378.8805469686886 20725.86811114684
379.94243023683157 20767.134275345023
381.0040408705263 20574.317570498795
382.0653789565458 20600.89713983556
383.1264445816196 20557.292815202316
384.1872378324406 20466.69842122783
385.2477587956637 20336.41730826068
386.3080075579037 20279.386502983496
387.3679842057336 20318.236555567717
388.4276888256918 20219.23574732262
389.48712150426945 20351.414735979153
390.54628232792857 20071.20368922088
391.6051713830857 20092.367650689885
392.66378875611736 20132.0815748725
393.7221345333637 20111.478499851524
394.7802088011249 19970.910977609157
395.838011645661 19949.442271313477
396.89554315319765 19905.18481658474
397.9528034099112 19778.13106100639
399.00979250194723 19720.562095887904
400.06651051541485 19607.28800578605
401.1229575363741 19626.035182458574
402.17913365085224 19632.094805115245
403.23503894483656 19528.22495299792
404.2906735042761 19566.4789236695
405.3460374150818 19461.084500771467
406.401130763119 19481.27530708123
407.455953634224 19438.594036490635
408.5105061141876 19357.62806931044
409.56478828876243 19138.440925533498
410.6188002436629 19216.64809552904
411.6725420645689 19101.034421863693
412.72601383711117 19154.509909089633
413.77921564689314 19153.452553662017
414.8321475794728 19111.737643441844
415.88480972036814 18965.55936017088
416.93720215506437 19074.52808000414
417.9893249690049 18848.43296250135
419.04117824759123 18863.480493360432
420.09276207619223 18790.552602251246
421.144076540133 18859.56075968624
422.1951217247042 18787.054746918573
423.24589771515275 18726.30171506406
424.2964045966928 18565.23928820025
425.34664245449494 18577.816977746985
426.3966113736933 18545.07123737524
427.4463114393875 18465.383492098652
428.49574273662984 18482.28778684364
429.5449053504417 18436.29947663022
430.5937993658026 18453.429807298093
431.6424248676558 18354.159703753186
432.6907819409007 18363.880680893526
433.73887067040596 18256.99871945111
434.7866911409965 18377.19291119973
435.8342434374608 18309.57476238964
436.88152764455117 18203.12341316702
437.9285438469724 18105.102661954163
438.9752921294057 18029.867397645143
440.02177257648145 18199.68114075224
441.06798527279716 18002.722621307064
442.1139303029122 18105.92724284238
443.1596077513459 18017.71310312446
444.2050177025794 18088.545000026214
445.25016024105753 18124.034999526128
446.2950354511886 17983.821651025464
447.33964341733736 18026.697918187474
448.383984223834 17950.589046304223
449.4280579549686 17941.72392939117
450.471864694995 18059.17013034875
451.5154045281306 17882.590648145087
452.5586775385509 17875.38613574945
453.60168381039693 17815.328971795967
454.64442342776783 18003.46806831696
455.6868964747264 17902.030093959223
456.7291030353008 17750.01177865789
457.77104319347563 17853.24449073198
458.8127170332027 17816.623083088365
459.854124638392 17809.99943686165
460.895266092919 17983.491677135076
461.93614148061897 17951.046652787885
462.97675088529104 17996.65750652538
464.01709439069236 18011.980504407282
465.0571720805492 18044.410204129337
466.0969840385442 17960.971861906804
467.1365303483253 18092.851392122564
468.17581109350067 18038.908819091528
469.2148263576437 18051.15861426913
470.2535762242878 18085.682789188962
471.29206077693016 18172.26555606165
472.33028009902773 18113.672706499136
473.3682342740012 18284.07782344025
474.40592338523857 18308.959656103645
475.4433475160804 18379.97666749976
476.4805067498364 18392.400183189133
477.51740116978 18473.564955045113
478.5540308591426 18629.16622376073
479.59039590112116 18774.357196396
480.6264963788726 18912.65461913125
481.6623323755193 19211.348193210815
482.6979039741436 19335.054646883007
483.7332112577915 19715.243506658073
484.76825430947247 19857.540642927088
485.80303321215797 20193.67416532148
486.837548048783 20256.1255092761
487.8717989022425 20420.040830693335
488.90578585539697 20422.247963400936
489.9395089910686 20667.446773447584
490.97296839203955 20594.10297687144
492.00616414106116 20505.563834308497
493.0390963208429 20452.195032348744
494.0717650140559 20419.94361429789
495.10417030333883 20040.88526272524
496.1363122712901 19837.902558832044
497.16819100046814 19654.30054422268
498.1998065734024 19366.724869326943
499.2311590725767 19195.60228821897
500.26224858044407 18836.838146782582
501.2930751794156 18738.536692781257
502.3236389518679 18536.58251201601
503.35393998014115 18333.07107733903
504.38397834653733 18234.509793479643
505.4137541333221 18108.50486724582
506.4432674227228 17963.347766746134
507.4725182969323 17882.529336149164
508.5015068381035 17685.43825025947
509.53023312835467 17651.09104273149
510.55869724976765 17617.29353233713
511.58689928438434 17494.563652276196
512.6148393142121 17391.413534745087
513.6425174212218 17510.23824025114
514.6699336873462 17399.570648751927
515.6970881944835 17407.818671268175
516.7239810244901 17303.68056481628
517.7506122591931 17200.706894027433
518.7769819803761 17269.23163278174
519.8030902697901 17256.671031690697
520.8289372091476 17317.05882255918
521.8545228801249 17336.171453048068
522.8798473643619 17143.139325671295
523.9049107434621 17228.446128782067
524.9297130989908 17187.27517110111
525.9542545124805 17151.524297428048
526.9785350654201 17168.7619243762
528.0025548392696 17115.41770574048
529.0263139154504 17005.1496498738
530.0498123753423 17029.64271279143
531.073050300296 17013.21078355404
532.0960277716204 16958.473521373995
533.1187448705896 17005.314175014075
534.1412016784416 16949.6193158921
535.1633982763833 16867.68106203845
536.1853347455726 16781.151360443735
537.2070111671401 16714.721063231325
538.2284276221817 16736.418746449715
539.2495841917516 16678.206786935712
540.2704809568677 16676.96541032691
541.2911179985167 16719.513802430665
542.3114953976419 16580.65354407674
543.3316132351592 16654.675268441475
544.3514715919409 16507.922677326816
545.3710705488247 16591.989447299387
546.3904101866156 16707.89155939656
547.4094905860784 16674.854700393942
548.4283118279418 16655.40523284439
549.4468739929034 16722.106917560955
550.4651771616191 16730.746859165385
551.4832214147063 16623.017712581906
552.501006832761 16768.647082825515
553.5185334963226 16672.141657825043
554.5358014859103 16688.43167339079
555.5528108820035 16709.8958738674
556.5695617650363 16729.82777594338
557.5860542154242 16792.921369214142
558.6022883135283 16743.504952264215
559.6182641396881 16676.952770020336
560.6339817741991 16655.645306896815
561.6494412973225 16721.975861801046
562.6646427892883 16732.90591507051
563.6795863302796 16542.23987250182
564.694272000459 16551.822684098974
565.7086998799423 16601.79586216388
566.7228700488104 16463.78776164161
567.7367825871115 16359.57198126309
568.7504375748576 16384.468076290876
569.7638350920224 16341.920923649737
570.7769752185486 16272.56002367046
571.7898580343353 16319.585513566737
572.802483619258 16273.297559282955
573.8148520531431 16289.32412230637
574.8269634157932 16359.312336463709
575.8388177869692 16287.94994293678
576.8504152463938 16433.28516818237
577.8617558737587 16588.70081933376
578.8728397487175 16527.64183313966
579.883666950891 16773.84018240562
580.8942375598654 16855.020217937137
581.9045516551851 16987.567801279292
582.9146093163617 17073.848413078158
583.924410622878 17111.51857606169
584.9339556541727 17137.33019013267
585.9432444896538 17215.133707940764
586.9522772086875 17167.482986418985
587.9610538906127 17103.160519059074
588.9695746147318 16956.019037687052
589.9778394603054 16953.54334807883
590.985848506567 16829.31050486172
591.9936018327098 16763.204153636507
593.0010995178891 16534.393435124457
594.0083416412344 16576.459510506134
595.0153282818283 16323.523136945176
596.0220595187293 16209.682565466239
597.0285354309508 16132.04482770604
598.0347560974806 16042.075918323
599.0407215972609 16006.319817027883
600.0464320092051 16044.482975541196
601.0518874121954 15873.274839987393
602.0570878850685 15977.780478234472
603.062033506636 15854.016630605673
604.0667243556636 15924.688074286338
605.0711605108936 15836.806388021465
606.0753420510264 16040.367085498612
607.0792690547278 15890.802893213147
608.082941600629 15914.044329336679
609.0863597673306 15960.051197475015
610.0895236333909 16119.591148282858
611.0924332773357 16261.07739285954
612.0950887776617 16298.111818259666
613.0974902128219 16423.669209169
614.0996376612384 16533.436663651097
615.1015312013005 16766.603431339194
616.1031709113595 16916.152319385375
617.1045568697336 17082.43228003088
618.1056891547069 17406.943836325903
619.1065678445229 17589.053508153134
620.1071930173985 17869.602829460862
621.1075647515099 17974.975743720068
622.1076831250048 18183.92779463058
623.1075482159849 18385.826766169084
624.1071601025305 18569.637465977383
625.1065188626781 18692.562307802193
626.105624574433 19111.076028328043
627.1044773157682 19094.771909927716
628.1030771646128 19276.450269323937
629.1014241988742 19389.951931376003
630.0995184964158 19555.920777887313
631.0973601350688 19805.146833513638
632.0949491926294 19925.935091639687
633.0922857468631 19772.457030107136
634.089369875499 19877.22003780357
635.0862016562278 19795.662131513174
636.0827811667077 19684.667350172087
637.0791084845641 19586.632360887364
638.0751836873878 19412.040855264695
639.0710068527369 19393.630072980817
640.0665780581294 19093.47216541893
641.0618973810506 18797.980817547923
642.0569648989604 18784.490209595828
643.0517806892676 18406.312918013
644.0463448293649 18138.140367327804
645.040657396592 17917.269614025696
646.0347184682723 17735.24714815593
647.0285281216875 17517.813459153745
648.0220864340772 17334.577451429774
649.0153934826558 17014.322356967208
650.0084493446047 16939.619101898134
651.0012540970674 16639.51152692183
651.9938078171526 16564.50392980444
652.9861105819346 16390.929316701655
653.9781624684565 16294.880886342808
654.9699635537254 16127.421271043135
655.9615139147136 16064.285726059801
656.9528136283589 15828.699051707212
657.9438627715699 15838.307150106382
658.9346614212154 15605.058936767406
659.925209654135 15500.497392665635
660.9155075471263 15405.229440737621
661.9055551769616 15349.032468171306
662.895352620375 15354.449150531456
663.8848999540678 15367.557613528601
664.8741972547068 15061.9854746885
665.863244598926 15027.838085275256
666.8520420633213 15060.847327678832
667.8405897244611 15089.9249143987
668.8288876588758 14906.22231419577
669.8169359430613 14842.572637296693
670.8047346534822 14914.160463081633
671.7922838665672 14830.754320173393
672.7795836587156 14832.464412476882
673.766634106285 14897.285798646266
674.7534352856092 14737.743561537369
675.7399872729766 14841.413926521225
676.7262901446538 14810.420145477701
677.712343976862 14689.30911913341
678.6981488457986 14809.13370992947
679.6837048276229 14711.918864615665
680.6690119984596 14734.119472977496
681.6540704344043 14662.652660731896
682.6388802115107 14634.925750120843
683.6234414058108 14610.535040154336
684.6077540932874 14507.692659321992
685.591818349907 14528.894126368832
686.575634251587 14495.62552303352
687.5592018742263 14343.084588532443
688.5425212936734 14233.863197924326
689.5255925857564 14467.949760886568
690.5084158262707 14292.759141144512
691.4909910909646 14236.894411308775
692.4733184555644 14173.88212332841
693.4553979957618 14220.197358242236
694.4372297872123 14246.705916572624
695.4188139055404 14243.918747127474
696.4001504263324 14312.488068551273
697.3812394251509 14284.726321308248
698.3620809775111 14367.616257608195
699.3426751589104 14338.536436346674
700.3230220448004 14395.265511788744
701.3031217106054 14471.200655946199
702.2829742317172 14479.607759872673
703.2625796834873 14438.752759033398
704.2419381412474 14502.028196698291
705.22104968028 14546.736048678393
706.1999143758458 14606.496824209898
707.178532303169 14541.259447915878
708.1569035374378 14721.107314946723
709.1350281538107 14934.07014635771
710.1129062274158 15083.08821613669
711.0905378333373 15304.751125180763
712.0679230466376 15556.45801937973
713.0450619423427 15823.807278119793
714.0219545954424 16125.353856995713
714.9986010808989 16433.60033620525
715.9750014736292 16886.065009625167
716.9511558485392 17288.52082903701
717.9270642804786 17538.32631181686
718.9027268442787 17858.14317651556
719.8781436147328 18006.75100719097
720.8533146666014 18163.099675080688
721.828240074612 18149.237048776275
722.8029199134635 18167.10970792078
723.7773542578125 17908.51816330038
724.751543182294 17778.72307898408
725.7254867615029 17554.125089059053
726.6991850700015 17351.639890311453
727.6726381823228 17331.60567571037
728.6458461729599 17204.39797424635
729.6188091163858 17247.9353866432
730.5915270870246 17359.536611592943
731.5640001592856 17589.671375867794
732.536228407529 17760.02759852843
733.5082119060917 17969.334866164816
734.4799507292755 18168.56440210314
735.4514449513481 18401.07516514061
736.4226946465496 18514.667170324443
737.3936998890786 18450.437158235138
738.3644607531078 18358.923562285174
739.3349773127793 18110.260169118985
740.3052496421951 17814.997580824474
741.27527781543 17425.26401170447
742.2450619065221 16868.514550161784
743.2146019894826 16444.903465460357
744.183898138288 15906.411387172451
745.1529504268801 15524.451227907102
746.1217589291682 15067.240067173721
747.0903237190341 14686.298488887207
748.058644870318 14489.82598477
749.0267224568397 14268.781697944887
749.994556552374 13905.283692617217
750.9621472306771 13727.270878447172
751.9294945654583 13650.281625613618
752.8965986304011 13434.232057845662
753.8634594991636 13406.206097996968
754.8300772453586 13369.433532148392
755.7964519425768 13243.167662737516
756.762583664371 13183.00429367832
757.7284724842611 13179.004757215356
758.6941184757416 13193.513669803127
759.6595217122667 13184.775136590493
760.6246822672638 13083.537024775836
761.5896002141235 13066.709637597958
762.5542756262093 12969.843339486592
763.5187085768503 13045.00388485693
764.4828991393406 12983.074637654481
765.4468473869474 12960.666586059922
766.4105533929032 12862.498120498476
767.3740172304078 12713.505160977755
768.3372389726283 12687.87804154123
769.3002186926988 12619.894969635732
770.2629564637282 12615.508183452272
771.2254523587872 12459.175449083927
772.1877064509154 12352.37862114084
773.1497188131179 12270.22326418487
774.1114895183728 12193.289518609343
775.0730186396268 12200.508635664683
776.0343062497905 12080.98413441269
776.9953524217381 12073.479573779248
777.9561572283274 12073.66845538342
778.9167207423689 12108.822189870229
779.8770430366476 12001.04584572199
780.8371241839159 12056.330350439357
781.7969642568951 12090.602608602214
782.7565633282757 12080.748738826718
783.7159214707099 11986.755559036474
784.6750387568281 12091.447163582172
785.6339152592227 12002.175256531533
786.5925510504512 11875.103284156303
787.5509462030477 12020.27898844481
788.5091007895098 11949.611587742358
789.4670148823006 12019.154924564533
790.4246885538596 12018.771498716673
791.3821218765861 11995.512414890947
792.3393149228505 11932.111551839578
793.2962677649975 12036.826785354235
794.2529804753303 12082.689683254634
795.20945312613 12062.065804591743
796.1656857896378 12077.739128244632
797.1216785380675 12125.014167452833
798.0774314435985 12228.99167223402
799.0329445783846 12234.944973778842
799.9882180145414 12383.51525476056
800.9432518241574 12301.800911512257
801.89804607929 12503.426742896248
802.852600851962 12508.632892964399
803.8069162141637 12646.25396235938
804.760992237856 12626.159637361689
805.714828994971 12587.135286160752
806.6684265574077 12591.88133434216
807.6217849970271 12561.98451860538
808.574904385674 12619.704341176432
809.527784795142 12542.500058316096
810.4804262972102 12527.79782663098
811.4328289636178 12378.3244649768
812.3849928660748 12359.604602553902
813.3369180762638 12268.153763567901
814.2886046658241 12148.702250493523
815.2400527063783 12076.162867356728
816.1912622695108 11945.85394860508
817.1422334267718 11887.88311618394
818.0929662496856 11834.554041524256
819.0434608097457 11688.13639285401
819.9937171784059 11635.225502786772
820.9437354271013 11476.007583269615
821.8935156272255 11480.651489259868
822.8430578501484 11367.633043033597
823.7923621672016 11239.67832139568
824.7414286496896 11305.21137784029
825.6902573688876 11212.281293304044
826.6388483960363 11227.78215822059
827.5872018023492 11147.874135953378
828.5353176590033 11140.700768342638
829.4831960371503 11057.58666275777
830.4308370079016 11072.334339858042
831.3782406423525 11037.070868711462
832.3254070115545 10970.806797188154
833.2723361865319 10967.472379146106
834.2190282382799 10919.496070887593
835.1654832377644 11024.015331989951
836.1117012559116 10952.934361151809
837.0576823636256 10917.422918378363
838.003426631778 10757.797265885558
838.9489341312074 10790.266280799922
839.8942049327197 10859.837741681697
840.8392391070975 10910.178426424998
841.7840367250865 10817.657010106901
842.7285978573982 10827.423019831493
843.672922574724 10807.801264756132
844.6170109477152 10915.021144452674
845.560863046996 10807.306912313312
846.5044789431595 10817.691798032212
847.4478587067697 10766.863539483273
848.3910024083561 10831.685730514795
849.333910118421 10828.0451219124
850.2765819074339 10700.007647188291
851.2190178458332 10846.011174892259
852.161218004032 10776.056202269801
853.1031824524016 10887.64426391592
854.0449112612987 10786.57789753842
854.9864045010327 10838.157667769055
855.9276622418947 10740.790559655414
856.8686845541379 10802.480211567929
857.8094715079915 10720.99996674251
858.7500231736467 10852.396254331645
859.690339621271 10825.381963209107
860.6304209209939 10794.73888323297
861.5702671429244 10706.804441117352
862.5098783571284 10790.473662171664
863.4492546336569 10787.091043742661
864.3883960425155 10751.595390038423
865.3273026536863 10792.048906734193
866.2659745371238 10812.494914143173
867.2044117627465 10868.734453899053
868.1426144004472 10900.669561450899
869.0805825200823 10924.452413884037
870.0183161914847 10991.277714645525
870.9558154844526 10947.357663635958
871.8930804687552 11016.032679937096
872.8301112141307 11074.943911289969
873.7669077902865 11086.835133017586
874.7034702669062 11302.638988760638
875.6397987136315 11268.260823288261
876.5758932000863 11211.554666287648
877.5117537958522 11347.492741385458
878.4473805704911 11354.300269438358
879.3827735935283 11269.315520814718
880.3179329344603 11368.903455310072
881.2528586627541 11436.285393754408
882.1875508478479 11520.925242077517
883.1220095591489 11259.55050911631
884.0562348660296 11366.816561821684
884.9902268378391 11345.755102315688
885.9239855438955 11414.380015605348
886.8575110534839 11267.060953036
887.7908034358588 11203.509561685094
888.7238627602474 11180.140889739014
889.6566890958475 11187.332475391817
890.5892825118208 11083.288405372641
891.5216430773125 10940.87134317369
892.4537708614189 10963.09490725842
893.3856659332196 10828.584401561
894.3173283617652 10791.658880764899
895.2487582160684 10737.997551025463
896.179955565116 10673.206606831587
897.110920477864 10547.35923690926
898.0416530232451 10551.186779734406
898.9721532701478 10531.069609867805
899.9024212874428 10410.764028363534
900.8324571439662 10472.283016031126
901.7622609085302 10447.353859947969
902.6918326499072 10435.748575088504
903.6211724368477 10384.171261388692
904.5502803380696 10348.272925999872
905.4791564222614 10502.428999370046
906.4078007580792 10452.191686452574
907.3362134141571 10314.95199800449
908.2643944590909 10400.071488721875
909.1923439614493 10380.678762845093
910.1200619897754 10321.810141808597
911.0475486125779 10454.495657351834
911.9748038983344 10346.522078052969
912.9018279155007 10277.707811837266
913.8286207324982 10261.40647736313
914.7551824177117 10336.905427416934
915.6815130395116 10376.08383507052
916.6076126662283 10265.516438619281
917.533481366163 10310.690756928558
918.4591192075914 10236.979432586264
919.3845262587565 10230.053451710013
920.3097025878706 10244.05751487636
921.2346482631237 10165.714902258967
922.1593633526682 10192.94006593613
923.0838479246304 10087.923389053205
924.0081020471061 10208.486788643144
924.9321257881656 10032.94058190957
925.8559192158464 10087.732936613962
926.7794823981512 9987.634228206107
927.7028154030686 10011.257747311356
928.6259182985414 9922.215921886014
929.5487911524906 10094.271347059937
930.4714340328119 10056.009659584814
931.3938470073608 9794.346753298923
932.3160301439748 9869.993191982441
933.2379835104548 9968.743002206942
934.1597071745709 9914.565667336763
935.0812012040769 9874.541981358456
936.002465666681 9924.81283810141
936.9235006300696 9913.486023191697
937.8443061619055 9946.870676075341
938.7648823298077 9762.338208761812
939.6852292013809 9892.231187740743
940.6053468441951 9983.15784214423
941.5252353257874 10034.96610760323
942.4448947136698 9986.650651476872
943.364325075323 9972.779981616999
944.2835264782043 9988.7666464268
945.2024989897309 10046.652971700563
946.1212426773054 10085.314411457468
947.0397576082851 10185.357037809199
947.9580438500125 10164.228126739969
948.8761014697939 10257.293099718454
949.7939305349064 10305.016974193644
950.7115311125999 10116.650665544223
951.6289032700952 10222.308322060571
952.5460470745875 10081.488580628882
953.4629625932339 10122.113977096926
954.3796498931715 10114.038345376763
955.2961090415029 10162.581375088801
956.2123401053068 10101.748931319384
957.1283431516276 10072.476629547391
958.0441182474842 10035.494839393825
958.9596654598663 10073.075758059413
959.8749848557309 10053.184140152936
960.7900765020167 10075.159198637713
961.7049404656209 9892.881956601348
962.6195768134185 9987.061593203827
963.5339856122537 9866.237815760338
964.4481669289453 9911.052051625125
965.3621208302793 9730.325874864111
966.2758473830145 9841.612042928318
967.1893466538822 9770.070037411528
968.1026187095813 9816.741181350746
969.0156636167867 9703.170005583717
969.9284814421426 9781.391863996554
970.8410722522622 9588.858479106715
971.753436113735 9624.944833314064
972.6655730931161 9544.959133250904
973.5774832569368 9566.103610326227
974.4891666716958 9534.276353289699
975.4006234038698 9598.97929945389
976.3118535198955 9534.100979166189
977.2228570861935 9545.524850573467
978.1336341691494 9587.137574011998
979.0441848351202 9435.018749638275
979.9545091504333 9580.519729689353
980.864607181391 9590.450923594459
981.7744789942699 9519.277611239575
982.6841246553086 9567.25135180984
983.5935442307236 9483.392339970927
984.5027377867027 9414.936697437852
985.4117053894024 9523.314790707249
986.3204471049557 9518.356281749071
987.2289629994648 9496.17384216844
988.1372531390007 9582.203798900558
989.0453175896091 9612.000430866276
989.9531564173067 9606.016890107003
990.860769688079 9452.627704520324
991.7681574678918 9633.137164062591
992.6753198226706 9539.967603375273
993.582256818323 9604.822776268342
994.4889685207218 9657.826636283991
995.3954549957143 9779.659091227692
996.301716309119 9711.84031647454
997.2077525267232 9734.732531837804
998.1135637142943 9644.097934400295
999.0191499375615 9717.163816022327
999.924511262232 9699.548234035605
1000.8296477539861 9816.517747896134
1001.7345594784656 9735.424609210702
1002.6392465012996 9712.494601773495
1003.5437088880753 9633.084100661708
1004.4479467043584 9737.084880385573
1005.3519600156869 9621.47161114682
1006.2557488875718 9736.42290340344
1007.1593133854858 9651.16049855158
1008.0626535748888 9531.380062111526
1008.9657695212009 9511.391333932908
1009.8686612898182 9653.030645011526
1010.7713289461135 9623.552822692462
1011.6737725554212 9536.176449094835
1012.5759921830577 9500.669198699372
1013.4779878943027 9558.327537014087
1014.379759754418 9472.689652015666
1015.2813078286254 9477.355824424898
1016.18263218213 9444.44764251781
1017.0837328801026 9458.721479429132
1017.9846099876886 9351.855760111122
1018.8852635700023 9288.7918987096
1019.7856936921362 9275.912126115702
1020.6859004191447 9352.05224739902
1021.5858838160675 9303.468954655691
1022.4856439479063 9268.277768694534
1023.3851808796389 9226.14579487822
1024.2844946762143 9254.332360316655
1025.183585402554 9285.286321669248
1026.082453123554 9107.20917223725
1026.9810979040776 9024.282203722565
1027.8795198089647 9165.980387938655
1028.777718903024 9082.642789123489
1029.6756952510368 9107.526588925091
1030.5734489177648 8991.656668877651
1031.4709799679313 9057.447318979126
1032.3682884662358 9051.856134272633
1033.2653744773506 8987.764510447947
1034.1622380659192 8990.728632702918
1035.058879296559 9120.428519199051
1035.9552982338591 9068.646594847565
1036.8514949423825 9056.165891306506
1037.7474694866614 9045.345636619793
1038.6432219312028 9053.79764803546
1039.5387523404825 9248.12686142788
1040.4340607789582 9209.65100042383
1041.3291473110476 9194.268718035855
1042.2240120011465 9323.81237058109
1043.1186549136273 9422.434710874617
1044.0130761128294 9476.872141047292
1044.9072756630649 9463.927850592305
1045.8012536286205 9536.445490778115
1046.6950100737577 9579.670036082292
1047.588545062701 9741.72757442343
1048.481858659663 9799.10071609914
1049.3749509288118 9824.90770897443
1050.2678219343034 9881.724297031711
1051.1604717402515 9891.405652131227
1052.0529004107575 9848.407820805076
1052.9451080098825 9940.20618756086
1053.8370946016694 9941.70554380034
1054.7288602501267 9948.002600745674
1055.6204050192446 9963.263797819767
1056.511728972977 10006.702791301204
1057.402832175254 9819.762834543188
1058.2937146899785 9851.433032877638
1059.1843765810263 9690.150897013504
1060.0748179122456 9821.982924940286
1060.9650387474576 9774.074132093543
1061.855039150456 9816.744418407285
1062.7448191850071 9685.357746645037
1063.6343789148505 9698.75465739406
1064.5237184037014 9647.30193577821
1065.412837715241 9560.582069760258
1066.3017369131267 9549.138177810793
1067.190416060992 9553.359890666685
1068.0788752224398 9442.308225983128
1068.9671144610438 9399.392294269785
1069.8551338403558 9448.957974858808
1070.7429334239023 9428.074320367026
1071.6305132751695 9322.563627431828
1072.517873457633 9418.45838071933
1073.4050140347335 9366.283467917343
1074.2919350698776 9344.859298292264
1075.1786366264623 9297.794047927335
1076.0651187678395 9287.91949508616
1076.95138155735 9303.547434540922
1077.8374250582929 9353.64523058262
1078.7232493339507 9277.915178478832
1079.608854447577 9251.07441069656
1080.4942404623907 9242.838024851497
1081.3794074415982 9338.717076075754
1082.2643554483657 9392.130967416206
1083.149084545841 9307.279345871853
1084.033594797138 9327.630889824763
1084.9178862653516 9448.632587651611
1085.8019590135427 9356.06240677516
1086.6858131047484 9383.923361748424
1087.5694486019802 9614.366533674442
1088.4528655682225 9599.377576895515
1089.3360640664287 9602.221952099875
1090.2190441595321 9650.47812184647
1091.1018059104317 9641.640695077129
1091.98434938201 9776.296527473527
1092.866674637111 9832.420147765295
1093.748781738559 9837.907891166446
1094.6306707491512 9771.564632215663
1095.5123417316554 9784.828752909956
1096.3937947488157 9847.631013159338
1097.2750298633455 9855.514274381747
1098.156047137938 9788.19836795943
1099.0368466352556 9779.253208630325
1099.9174284179317 9713.800194794878
1100.7977925485757 9694.661770195376
1101.6779390897755 9587.091669154051
1102.5578681040806 9516.709961389888
1103.4375796540226 9445.28152708775
1104.3170738021054 9464.437715601996
1105.1963506108077 9335.018587002613
1106.0754101425773 9265.917027842543
1106.9542524598382 9310.570614581095
1107.8328776249855 9208.293233673485
1108.7112857003904 9107.36627632145
1109.5894767483987 9087.702937216396
1110.4674508313292 9027.871898125528
1111.3452080114657 9048.08346688929
1112.2227483510815 9003.732295250087
1113.1000719124077 9126.059964227808
1113.9771787576592 9077.811019558703
1114.854068949022 9096.39563965202
1115.7307425486542 9126.137142004685
1116.6071996186893 9076.662169422028
1117.483440221229 9343.953841911813
1118.3594644183577 9317.02121439833
1119.235272272128 9423.433902713841
1120.1108638445658 9480.042484881253
1120.9862391976712 9618.401516386768
1121.8613983934229 9706.901399913195
1122.7363414937627 9712.168883715807
1123.6110685606182 9824.566071386738
1124.485579655884 9851.279986239464
1125.359874841426 10109.557519125168
1126.2339541790916 10148.931863604483
1127.1078177306936 10223.656942756399
1127.9814655580267 10043.482634958644
1128.854897722851 10214.02710565957
1129.7281142869106 10256.964829287494
1130.6011153119125 10331.376201265293
1131.473900859548 10265.01443264729
1132.3464709914697 10209.422297802997
1133.2188257693178 10217.72046698396
1134.0909652546961 10161.351264418783
1134.96288950919 9990.54406090521
1135.8345985943506 10021.171443351868
1136.7060925717087 9963.482278888225
1137.57737150277 9915.97463227737
1138.4484354490069 9796.616737037619
1139.3192844718778 9696.843396426873
1140.1899186327992 9531.789201471223
1141.060337993178 9675.95758631259
1141.930542614382 9365.23024480312
1142.8005325577597 9328.120295234936
1143.670307884635 9157.259429299698
1144.5398686563003 9157.89330245613
1145.409214934025 9099.265090749424
1146.2783467790541 8961.360747714216
1147.1472642526023 8863.181894412548
1148.0159674158622 8908.239899552775
1148.8844563300026 8781.003353961756
1149.7527310561618 8721.058643897342
1150.6207916554504 8671.022019056882
1151.4886381889592 8564.846248589525
1152.3562707177498 8601.59128344496
1153.2236893028585 8620.893169710658
1154.090894005296 8602.835423551549
1154.9578848860474 8548.75523149574
1155.8246620060709 8428.536320739251
1156.6912254262988 8447.925305766157
1157.5575752076438 8458.402732779643
1158.42371141098 8377.981053751322
1159.2896340971656 8413.068787628974
1160.1553433270346 8340.374158035795
1161.0208391613887 8371.584922094848
1161.8861216610057 8252.347337911078
1162.75119088664 8280.73897294125
1163.6160468990201 8319.521728836284
1164.4806897588442 8202.275490832779
1165.3451195267917 8166.474666116851
1166.2093362635114 8228.927578163857
1167.0733400296285 8324.983156504659
1167.9371308857444 8254.47984748895
1168.8007088924278 8142.289564871736
1169.6640741102328 8145.205956415077
1170.5272265996773 8127.473133376139
1171.390166421259 8198.979617427016
1172.252893635452 8181.163150455376
1173.1154083026995 8228.128730125547
1173.977710483421 8196.434452407508
1174.8398002380145 8257.676906133716
1175.7016776268483 8221.35133042395
1176.563342710264 8251.25588780196
1177.4247955485826 8296.237304898055
1178.2860362020947 8293.166480486236
1179.147064731069 8268.173240900414
1180.0078811957483 8396.280194422787
1180.8684856563486 8368.409600758821
1181.7288781730604 8395.485496851723
1182.589058806052 8544.49976547776
1183.4490276154593 8585.9224409616
1184.3087846614017 8444.462704058227
1185.1683300039676 8614.974137877458
1186.027663703222 8752.120819083699
1186.8867858192025 8839.024021180838
1187.7456964119228 8881.091414083423
1188.6043955413716 8862.247087606473
1189.4628832675116 8981.938501253991
1190.3211596502842 9040.153700836057
1191.179224749596 9047.373441409665
1192.0370786253388 8970.242662802428
1192.8947213373758 9148.129984125433
1193.7521529455407 9198.214918516282
1194.6093735096438 9100.66127651641
1195.466383089477 9196.90678232878
1196.3231817447977 9147.688745639816
1197.1797695353398 9215.289188132932
1198.0361465208189 9259.759849233988
1198.8923127609214 9215.420779321228
1199.7482683153048 9235.433942488238
1200.6040132436028 9264.443891164605
1201.459547605431 9109.19133527084
1202.3148714603722 9085.37277516945
1203.1699848679855 9019.413325853227
1204.0248878878065 8973.46932405386
1204.8795805793507 8977.965394905266
1205.7340630020935 8969.266892459607
1206.5883352155033 8903.116923811998
1207.4423972790064 8926.86329088757
1208.2962492520237 8795.584120368385
1209.1498911939307 8813.153194054688
1210.0033231640937 8779.25892952254
1210.8565452218427 8682.86779116077
1211.7095574264913 8564.695287897068
1212.5623598373222 8555.467572321775
1213.4149525135963 8449.90693064646
1214.2673355145507 8528.956290756028
1215.1195088993936 8367.18857107281
1215.9714727273113 8361.959433471038
1216.8232270574663 8393.81608691451
1217.6747719489904 8266.008208968518
1218.5261074609934 8236.813467301034
1219.3772336525653 8304.661872062205
1220.2281505827668 8330.581788979562
1221.0788583106296 8261.225610876381
1221.9293568951707 8172.623068917342
1222.7796463953746 8061.072345964014
1223.629726870202 8168.259485014356
1224.4795983785934 8083.165776950603
1225.3292609794553 8019.4447461125455
1226.1787147316809 8027.423322422221
1227.0279596941327 7972.816120085283
1227.8769959256424 7990.263320035362
1228.7258234850306 8051.996327686631
1229.5744424310833 7876.162871568116
1230.422852822563 8023.891393196968
1231.2710547182105 8019.5029168957435
1232.119048176739 7922.520610023016
1232.9668332568417 7945.20119689014
1233.8144100171812 7930.165168988924
1234.6617785163999 8021.150516349129
1235.508938813111 7858.971156673928
1236.3558909659114 7833.675133772941
1237.2026350333617 7948.059937640137
1238.049171074008 7887.066732082257
1238.8954991463652 7775.590179048086
1239.741619308932 7862.940808227225
1240.587531620169 6594.113156395082
1241.4332361385277 7983.519335356851
1242.2787329224248 7747.912666149056
1243.1240220302534 7790.56653734381
1243.9691035203869 7797.79817285363
1244.813977451171 7960.019344118875
1245.6586438809263 7810.876234672867
1246.5031028679496 7762.803959072968
1247.3473544705157 7812.14080062446
1248.1913987468706 7972.956803130114
1249.0352357552383 7881.037811915441
1249.8788655538228 7985.77081690335
1250.7222882007918 8109.564501309322
1251.565503754302 7915.486824842561
1252.4085122724755 7868.296720386565
1253.2513138134182 8106.2695930304735
1254.0939084352049 8020.8072228788415
1254.9362961958905 8008.736786264017
1255.7784771535007 8207.757866787848
1256.6204513660432 8149.619160967702
1257.4622188915 8202.306612223507
1258.3037797878242 8286.5691783641
1259.1451341129468 8164.719267860649
1259.9862819247755 8292.783927192053
1260.8272232811978 8272.08311489911
1261.6679582400666 8285.994166051678
1262.5084868592203 8353.180476243333
1263.34880919647 8262.629805971446
1264.1889253095997 8218.035483089692
1265.0288352563712 8297.268350626098
1265.8685390945266 8223.52549898929
1266.7080368817751 8247.88043079754
1267.5473286758115 8257.753303223837
1268.386414534294 8312.313476980253
1269.2252945148703 8204.094747676234
1270.0639686751547 8192.824429911585
1270.9024370727402 8158.793141145621
1271.7406997651997 8180.094724126737
1272.5787568100714 7995.7619026462025
1273.4166082648808 8105.135951700404
1274.2542541871244 8136.705391461479
1275.091694634275 8169.9547692043925
1275.9289296637817 8032.5243922706095
1276.7659593330663 8182.03854799624
1277.6027836995308 8077.06330937812
1278.4394028205552 8052.252481338108
1279.2758167534867 7996.561335165636
1280.112025555658 8072.930709479918
1280.9480292843746 8060.030799048776
1281.7838279969128 8008.172086806587
1282.6194217505326 8027.67223643113
1283.4548106024686 7995.1386476019425
1284.289994609926 8009.349558092108
1285.1249738300921 8059.270277038779
1285.959748320127 8130.882938227199
1286.7943181371702 8112.894101037537
1287.6286833383328 8157.572582178288
1288.4628439807038 8232.247514860455
1289.2968001213521 8231.610150355438
1290.1305518173194 8269.631795481673
1290.9640991256183 8362.091977017106
1291.7974421032523 8450.669721876979
1292.630580807183 8358.788841765241
1293.463515294361 8478.311757283616
1294.29624562171 8506.835187537577
1295.12877184613 8589.154456629547
1295.961094024493 8549.180690809788
1296.79321221365 8700.822616527677
1297.6251264704333 8843.347808675979
1298.4568368516466 9021.263082428075
1299.2883434140658 9009.288546961801
1300.1196462144526 8957.64458782361
1300.9507453095375 9142.75219473234
1301.7816407560313 9110.155790246168
1302.6123326106172 9223.762510107397
1303.4428209299622 9330.14560863227
1304.2731057707024 9508.472709139623
1305.1031871894502 9448.175054556541
1305.933065242798 9337.24003688254
1306.7627399873181 9543.246619261281
1307.5922114795467 9667.939798370588
1308.4214797760123 9489.30336636461
1309.2505449332057 9638.262618282353
1310.0794070076026 9618.250411982986
1310.9080660556538 9795.660452512942
1311.736522133786 9683.783836623556
1312.5647752983987 9642.35004685038
1313.3928256058734 9677.61593013955
1314.2206731125661 9862.8145971316
1315.048317874809 9874.942100878976
1315.8757599489109 9921.399496386646
1316.7029993911547 9894.30037464681
1317.5300362578055 10132.264202270413
1318.356870605101 9926.644457606435
1319.183502489257 9990.34121352337
1320.0099319664623 10046.235421522404
1320.836159092889 10027.564658790663
1321.66218392468 10039.56199591197
1322.4880065179532 10021.470643497403
1323.3136269288134 10057.436111899386
1324.1390452133292 10139.4349382919
1324.9642614275563 10059.9660652894
1325.7892756275214 10090.31441837091
1326.6140878692295 9741.43664018677
1327.4386982086617 9957.310368997478
1328.2631067017755 9808.683952239771
1329.0873134045069 9689.488203751393
1329.911318372764 9656.501182051974
1330.735121662441 9386.571593050317
1331.558723329399 9422.540454140524
1332.3821234294774 9348.037668674831
1333.2053220185007 9176.846815174931
1334.0283191522612 9077.6758788504
1334.851114886529 8962.502659054748
1335.6737092770582 8871.44614303303
1336.4961023795695 8697.205139105225
1337.3182942497697 8546.648667545915
1338.1402849433325 8613.288556086352
1338.962074515921 8470.680359139962
1339.7836630231632 8380.107715853104
1340.6050505206676 8588.690470506579
1341.426237064028 8308.870764756066
1342.2472227088037 8407.800740267156
1343.0680075105338 8104.69348638503
1343.888591524741 8263.100191707508
1344.7089748069138 8043.76136926046
1345.5291574125276 8019.93349571663
1346.3491393970307 7927.597714441848
1347.168920815846 8063.43366807882
1347.9885017243778 8012.960916774097
1348.8078821780036 7885.397223856172
1349.6270622320844 7810.579295584563
1350.4460419419447 7795.934053534768
1351.2648213629054 7733.27057483767
1352.0834005502438 7771.100399593556
1352.90177955923 7648.398139955124
1353.7199584451064 7686.938675636744
1354.5379372630887 7737.730310919107
1355.355716068374 7672.766936887645
1356.1732949161305 7540.983000453952
1356.9906738615155 7651.705988358304
1357.8078529596478 7591.481625858212
1358.6248322656375 7586.491312957007
1359.441611834567 7536.537375733797
1360.2581917214866 7581.268679048591
1361.0745719814367 7389.355100893767
1361.890752669433 7469.896197239279
1362.7067338404577 7540.457238052125
1363.5225155494845 7512.2820709297475
1364.3380978514506 7452.126883267952
1365.1534808012839 7360.43855111602
1365.9686644538815 7381.095725965465
1366.783648864117 7541.945513840174
1367.5984340868417 7595.248060470025
1368.413020176893 7481.305177940192
1369.2274071890715 7563.324695119709
1370.0415951781652 7476.228381131068
1370.8555841989346 7620.980853730715
1371.6693743061223 7462.418752601718
1372.48296555444 7291.69878686765
1373.2963579985844 7414.043128772675
1374.1095516932255 7432.02393028791
1374.9225466930166 7422.289901596171
1375.7353430525782 7414.741751578229
1376.5479408265164 7428.610449852726
1377.36034006941 7396.638855085499
1378.1725408358216 7481.177018922908
1378.9845431802805 7404.9071847234445
1379.796347157304 7532.915311022254
1380.6079528213813 7524.564924702498
1381.4193602269788 7418.169028295053
1382.230569428546 7455.2573095214775
1383.0415804805016 7428.03540860552
1383.852393437246 7443.674114461896
1384.6630083531563 7575.84692533972
1385.4734252825892 7421.245658659854
1386.2836442798798 7570.621546226615
1387.0936653993322 7499.53016611016
1387.9034886952395 7582.655450455246
1388.713114221864 7483.720774718536
1389.5225420334482 7631.252917287542
1390.331772184214 7563.76189569386
1391.1408047283585 7601.768836998141
1391.9496397200564 7608.391915852853
1392.758277213461 7641.895471349317
1393.5667172627054 7616.993681592985
1394.3749599218918 7579.504433032525
1395.1830052451114 7499.163797228386
1395.9908532864265 7676.457989356357
1396.7985040998774 7615.372423242341
1397.6059577394808 7516.921357408971
1398.4132142592352 7455.242708903305
1399.2202737131156 7471.081990859605
1400.027136155073 7578.232044550881
1400.8338016390353 7494.208450947995
1401.6402702189134 7436.242969136637
1402.446541948586 7484.2214362605255
1403.2526168819204 7434.2831766300715
1404.058495072757 7332.825639275953
1404.8641765749107 7395.386584669766
1405.6696614421799 7325.499514758044
1406.4749497283356 7405.341390940259
1407.280041487129 7346.1033217878885
1408.084936772295 7188.774801834447
1408.8896356375335 7294.9273841553095
1409.6941381365323 7202.032839783725
1410.498444322955 7117.735915254166
1411.3025542504402 7144.0984989828985
1412.106467972606 7120.757953275459
1412.9101855430508 7132.6946165474565
1413.7137070153458 6941.957429811175
1414.5170324430437 7038.6123275979535
1415.320161879672 7124.3427462417285
1416.1230953787435 7228.22417053673
1416.925832993742 6957.912163729197
1417.7283747781275 6968.472852172138
1418.5307207853439 6998.745599360042
1419.3328710688093 7184.4471497887525
1420.134825681922 6920.423551628572
1420.9365846780584 7065.759004989997
1421.7381481105713 7083.602323025839
1422.539516032788 7148.01074774502
1423.3406884980232 7135.082809767024
1424.1416655595604 7186.922479365872
1424.942447270665 7056.7882110833525
1425.7430336845828 7286.059587324256
1426.5434248545298 7309.105385569502
1427.3436208337116 7391.287733463354
1428.143621675301 7510.999859158335
1428.9434274324558 7564.792696744565
1429.7430381583108 7477.953519461361
1430.5424539059713 7631.785499998495
1431.3416747285337 7905.726308706794
1432.1407006790632 7831.56134401517
1432.9395318106053 7757.236280238196
1433.7381681761835 7836.568971433492
1434.5366098288014 7859.433886932337
1435.3348568214424 7839.720584929497
1436.1329092070573 7971.816200942592
1436.9307670385879 8033.252674363745
1437.7284303689503 8080.018503608742
1438.5258992510335 8030.559555964646
1439.3231737377118 8077.192295060641
1440.1202538818306 8050.918804455204
1440.9171397362225 7829.249527404792
1441.7138313536925 7834.569893569157
1442.5103287870243 7921.023292882685
1443.3066320889775 7732.002935984815
1444.1027413122956 7901.845435662848
1444.8986565096966 7813.259075396821
1445.694377733882 7720.704318298003
1446.4899050375207 7522.6715724746155
1447.2852384732687 7397.282305366383
1448.0803780937622 7309.176686823407
1448.8753239516063 7407.374206651317
1449.6700760993954 7310.42737029726
1450.464634589689 7316.719856809464
1451.2589994750397 7286.5566763495835
1452.0531708079689 7078.642110815837
1452.8471486409799 7058.9943907202905
1453.6409330265524 7054.244016709791
1454.4345240171442 6953.498357223955
1455.2279216651987 6983.833266945246
1456.0211260231263 6940.185592782373
1456.8141371433194 7141.486589214767
1457.6069550781594 6939.2871614365695
1458.3995798799897 6856.339953331677
1459.1920116011424 6746.048126124127
1459.98425029393 6781.935909201248
1460.7762960106338 6765.488050317081
1461.5681488035225 6739.596782028393
1462.3598087248392 6788.588210262877
1463.1512758268036 6732.098934798754
1463.942550161617 6624.145856584674
1464.7336317814625 6528.839551058313
1465.524520738496 6685.524963964317
1466.3152170848552 6565.03184326598
1467.1057208726506 6406.947755585283
1467.8960321539817 6487.132606757235
1468.6861509809169 6327.8719921654165
1469.4760774055085 6345.514557359464
1470.265811479785 6259.1520042972015
1471.055353255755 6144.282285119075
1471.844702785409 6182.750271972591
1472.6338601207044 6167.871466999728
1473.4228253135934 6258.792722612472
1474.2115984159936 6011.3828836756475
1475.0001794798063 6006.151240314624
1475.7885685569145 5924.897494203312
1476.576765699172 5922.064795471514
1477.3647709584238 6065.346416011196
1478.1525843864802 5967.789935978574
1478.9402060351367 5859.246953697881
1479.7276359561693 5943.128038982292
1480.514874201328 5982.508986269413
1481.3019208223468 5903.524202270284
1482.0887758709323 5748.085969806543
1482.8754393987747 5930.552084952267
1483.6619114575406 5760.777598821755
1484.4481920988783 5848.360850230567
1485.2342813744108 5783.465901415982
1486.0201793357446 5924.825990535546
1486.8058860344572 5802.7613761532475
1487.591401522117 5828.985098536099
1488.3767258502594 5820.346428570165
1489.1618590704056 5867.588930237942
1489.9468012340494 5787.754026319362
1490.7315523926754 5766.045206643635
1491.5161125977356 5923.356321237303
1492.3004819006637 5843.748640549008
1493.084660352877 5775.233929126032
1493.8686480057622 5806.703068990044
1494.6524449106964 5808.905350889919
1495.4360511190262 5926.860955010634
1496.219466682087 5879.521800860475
1497.0026916511779 5924.7376245913
1497.7857260775945 5824.108555828362
1498.5685700125996 5772.406613148399
1499.3512235074395 5883.4890822091675
1500.133686613337 5846.800260937793
1500.9159593814966 5771.2235006677865
1501.698041863101 6009.366166911268
1502.4799341093094 5849.028709641765
1503.2616361712662 5671.945365380108
1504.043148100087 5713.132823948914
1504.8244699468742 5810.669207155316
1505.6056017626997 5714.270431997
1506.3865435986281 5755.421815504894
1507.1672955056893 5751.659630951088
1507.9478575348967 5807.211265579631
1508.7282297372512 5831.436453521495
1509.5084121637192 5725.408261648602
1510.2884048652577 5840.549594198105
1511.0682078927948 5763.1462474535265
1511.8478212972423 5788.143350118508
1512.6272451294917 5698.360559027986
1513.4064794404076 5849.029044902772
1514.1855242808433 5724.655369838143
1514.9643797016215 5821.172145948491
1515.743045753552 5858.689375370116
1516.5215224874191 5853.763321791276
1517.2998099539836 5801.62328249932
1518.077908203999 5871.661459464105
1518.8558172881785 5837.40597405468
1519.633537257234 5942.562162120901
1520.4110681618404 5859.629085042062
1521.1884100526604 5959.429858719728
1521.9655629803365 5864.517285028408
1522.7425269954856 6020.261320963251
1523.5193021487103 6087.40805036165
1524.2958884905856 6077.964477489606
1525.0722860716687 6110.069898107879
1525.848494942502 6050.086246708472
1526.624515153595 6050.0776384563305
1527.4003467554485 6264.443613457081
1528.175989798534 6139.667272790907
1528.9514443333064 6133.4124842442425
1529.726710410203 6358.571929037165
1530.5017880796331 6276.545637476191
1531.276677391992 6173.326405182957
1532.0513783976457 6237.651078593752
1532.825891146953 6264.24050086073
1533.6002156902414 6345.699760920683
1534.3743520778207 6257.2492867722
1535.1483003599806 6318.359372247692
1535.9220605869923 6180.485632394944
1536.6956328091019 6280.442116661653
1537.4690170765407 6084.76881901938
1538.242213439511 6229.5551217376
1539.015221948208 6276.191250183655
1539.78804265279 6275.2430245028545
1540.560675603405 6077.876092495701
1541.3331208501804 6200.3263917350705
1542.1053784432224 6168.240592045089
1542.8774484326168 6068.497272706767
1543.649330868422 6106.139351702587
1544.4210258006842 6001.534460399986
1545.1925332794308 6196.547484590885
1545.9638533546604 6249.144963428631
1546.7349860763552 6065.354602280348
1547.5059314944829 6170.155172073009
1548.27668965898 6042.525756237177
1549.0472606197673 6030.1721770490285
1549.817644426752 6085.5957060641795
1550.5878411298072 6056.892298949501
1551.3578507787988 6062.565158302286
1552.1276734235635 5964.357457453844
1552.8973091139233 6068.753123513916
1553.6667578996767 6189.745429506495
1554.436019830604 6171.4897775419195
1555.20509495646 6026.1207690942365
1555.9739833269869 5991.476819651804
1556.7426849919011 6029.7834444139235
1557.511200000903 6177.843263653687
1558.2795284036674 6204.077594886344
1559.0476702498509 6083.669111670977
1559.8156255890954 6190.79302906133
1560.5833944710157 6246.219550350101
1561.3509769452048 6129.3819990617185
1562.1183730612447 6108.247315020467
1562.8855828686865 6140.427139608658
1563.6526064170703 6224.72684700439
1564.4194437559127 6205.030932122082
1565.1860949347047 6193.785684639312
1565.9525600029283 6367.795195974033
1566.7188390100328 6313.708524019075
1567.4849320054564 6183.03375422882
1568.250839038612 6170.262580459496
1569.0165601588997 6309.066963121275
1569.7820954156887 6142.183134597842
1570.5474448583373 6254.109988778374
1571.31260853618 6187.9245201331205
1572.0775864985299 6093.277828426259
1572.8423787946813 6225.173148149481
1573.6069854739108 6294.434329723657
1574.371406585471 6315.290111935853
1575.1356421785986 6296.141732526693
1575.899692302506 6214.976253815537
1576.6635570063845 6353.580082803259
1577.4272363394157 6309.152106065951
1578.190730350747 6133.987651959735
1578.9540390895163 6258.4560489989035
1579.7171626048384 6013.058670227902
1580.480100945806 6145.44745513015
1581.2428541614918 6193.367095911961
1582.0054223009538 6134.204248400769
1582.767805413223 6174.039712563407
1583.5300035473156 5998.266540553414
1584.292016752228 6280.098752829717
1585.0538450769309 6086.304270795148
1585.8154885703807 6035.528174024419
1586.5769472815136 5979.453023632802
1587.3382212592405 6065.64643488097
1588.099310552463 6123.877261409636
1588.8602152100484 5977.538337168152
1589.6209352808564 5972.894122325596
1590.3814708137234 5799.417658103387
1591.14182185746 6398.97526425112
1591.9019884608679 5907.033122422731
1592.6619706727215 5871.329670427132
1593.4217685417734 5984.421146603541
1594.1813821167616 5945.301251486262
1594.9408114464022 5938.393655771337
1595.7000565793933 5936.73920488209
1596.459117564409 5902.0735254375995
1597.2179944501113 5764.331753082383
1597.9766872851324 5715.208971653185
1598.735196118092 5906.4777997509755
1599.4935209975883 5922.18852061439
1600.2516619721973 5930.306736340392
1601.0096190904787 5729.750296062351
1601.7673924009723 5754.710684858432
1602.524981952196 5658.077961817952
1603.2823877926476 5644.228790817384
1604.0396099708087 5650.027288847188
1604.7966485351371 5597.568122041804
1605.5535035340745 5680.730688229771
1606.3101750160404 5822.468275708395
1607.0666630294363 5692.603293541446
1607.822967622642 5598.491718041527
1608.5790888440224 5655.7724126168605
1609.3350267419137 5674.758417564464
1610.0907813646445 5659.994814570382
1610.8463527605145 5587.99710581916
1611.601740977805 5496.266854307723
1612.356946064785 5744.429571917974
1613.1119680696902 5483.709825053796
1613.8668070407512 5552.5029860997965
1614.6214630261748 5516.210758466409
1615.375936074137 5542.266741900988
1616.1302262328118 5635.335393616517
1616.8843335503425 5607.5430482131815
1617.638258074854 5303.061661537084
1618.391999854457 5560.106705629056
1619.1455589372363 5695.818574586297
1619.8989353712623 5678.767109371294
1620.65212920458 5392.164567657308
1621.4051404852235 5481.777948433104
1622.1579692611976 5417.57685134351
1622.9106155804966 5398.45583739041
1623.663079491087 5434.461586054856
1624.4153610409248 5511.3368118030385
1625.1674602779385 5386.820918445327
1625.9193772500403 5298.300249334964
1626.6711120051277 5452.673002907458
1627.4226645910676 5404.176939978856
1628.174035055721 5394.240347304603
1628.9252234469168 5515.278685970317
1629.676229812474 5385.869495833771
1630.4270542001905 5499.925701248437
1631.1776966578382 5613.627298236092
1631.9281572331747 5407.8046007481225
1632.678435973945 5752.772206486168
1633.4285329278573 5639.924831487535
1634.1784481426203 5554.293830225794
1634.9281816659113 5578.914400466086
1635.677733545388 5680.579637466055
1636.4271038286934 5497.146314748743
1637.176292563452 5698.720440141233
1637.9252997972635 5718.39382564348
1638.674125577716 5878.687859227301
1639.4227699523672 5813.727160506424
1640.171232968767 5729.068135442615
1640.9195146744423 5843.326084531684
1641.6676151168977 5910.336137082331
1642.4155343436178 5912.531352948962
1643.1632724020765 5886.684062132757
1643.9108293397167 5907.661356272089
1644.658205203974 5906.639477993442
1645.4054000422566 6182.119464551758
1646.1524139019566 5840.765047141583
1646.8992468304423 5935.538243930194
1647.6458988750728 5866.700346316722
1648.3923700831765 6018.8951876711135
1649.1386605020743 5930.464812078667
1649.8847701790564 6007.613591803422
1650.6306991614038 5987.200481505529
1651.3764474963682 5923.011838983618
1652.1220152311944 5772.6168577209755
1652.867402413096 6136.760667096984
1653.6126090892776 5939.733259268811
1654.3576353069184 6028.66951147617
1655.1024811131829 5962.886299396763
1655.8471465552066 5843.5985125824545
1656.5916316801213 5940.326840105476
1657.3359365350298 5927.439005271651
1658.0800611670165 5815.099329704064
1658.824005623148 5758.826092306231
1659.5677699504722 5790.913776600644
1660.3113541960192 5812.753522152271
1661.054758406799 5886.621300458234
1661.7979826297997 5677.271443575399
1662.5410269119966 5648.755787981501
1663.283891300338 5493.027863249622
1664.0265758417645 5603.331679439555
1664.7690805831826 5662.700252840468
1665.5114055714948 5518.908281913612
1666.2535508535748 5581.118602317636
1666.9955164762814 5246.263725633139
1667.7373024864555 5418.819333232033
1668.478908930916 5286.054263020092
1669.220335856462 5298.296307149934
1669.9615833098778 5314.554556571426
1670.7026513379296 5342.085524986267
1671.44353998736 5289.999050116965
1672.1842493048916 5120.572457862652
1672.9247793372379 5361.685082296978
1673.6651301310812 5137.977526882486
1674.4053017330934 5110.636541059153
1675.1452941899242 5177.202028199822
1675.885107548207 5028.782670258697
1676.6247418545518 4892.2177689761875
1677.3641971555535 5006.785251769248
1678.1034734977893 4980.637216532372
1678.8425709278108 4957.658043021325
1679.5814894921605 4951.520249759447
1680.320229237359 4853.7248056685075
1681.0587902098978 4844.771501398429
1681.7971724562685 4918.4569985318385
1682.5353760229264 4659.966012832465
1683.2734009563173 4836.589390946462
1684.0112473028657 4623.157458700016
1684.7489151089794 4732.944737818975
1685.4864044210462 4697.088545704089
1686.2237152854377 4500.203926340164
1686.960847748498 4526.799822954397
1687.6978018565642 4506.621713065809
1688.434577655944 4461.9903600964335
1689.1711751929379 4306.470044714704
1689.9075945138156 4498.473300649494
1690.6438356648396 4444.482520016792
1691.3798986922448 4179.3670073166095
1692.1157836422499 4391.830604209592
1692.851490561059 4349.378991035459
1693.587019494853 4297.770983206578
1694.3223704897991 4126.144766024015
1695.0575435920364 4132.853345728728
1695.792538847696 4265.686764030923
1696.527356302886 4138.443032660663
1697.2619960036936 4065.8470612030483
1697.9964579961907 3970.565969264741
1698.730742326432 3886.2531064421214
1699.4648490404488 3902.9585847665376
1700.1987781842563 3946.1318111400533
1700.9325298038548 3922.0160061924507
1701.6661039452174 4013.0781902668577
1702.3995006543082 3942.2195136202768
1703.1327199770658 4035.1675363298173
1703.865761959416 3542.081780141435
1704.598626647261 3889.685290856477
1705.3313140864866 3751.586359376333
1706.0638243229587 3750.3967883186683
1706.7961574025303 3911.4647658753115
1707.528313371029 3734.8252603514397
1708.260292274268 3655.21907380954
1708.9920941580403 3714.195837291999
1709.7237190681226 3696.0713943023234
1710.4551670502697 3668.047324011256
1711.18643815022 3656.098416085967
1711.9175324136959 3807.8044194616878
1712.6484498863938 3626.1776595859847
1713.379190614005 3572.110731024591
1714.109754642188 3685.2432671607153
1714.8401420165883 3599.742233193814
1715.570352782839 3954.5139862014075
1716.3003869865497 3584.476479350178
1717.0302446733076 3580.312822976927
1717.7599258886876 3587.279147056801
1718.4894306782444 3771.0346599457794
1719.2187590875183 3375.4728196398455
1719.9479111620203 3648.9388871228134
1720.6768869472544 3568.9934700246913
1721.4056864887025 3545.8455943625872
1722.1343098318284 3637.345255964342
1722.8627570220742 3627.7598175480875
1723.591028104871 3508.5147970153894
1724.3191231256242 3487.3834564630124
1725.0470421297232 3384.05898587688
1725.7747851625427 3515.854305461761
1726.5023522694337 3654.313807859134
1727.2297434957363 3489.0827191233548
1727.9569588867635 3248.137873054244
1728.6839984878152 3439.783283320795
1729.4108623441734 3316.4062842595354
1730.1375505011038 3486.8884720550195
1730.8640630038426 3438.2029827106453
1731.5903998976264 3418.6655174119683
1732.316561227657 3400.2879183850555
1733.0425470391274 3273.818708998342
1733.7683573772065 3339.964167485402
1734.4939922870508 3303.730326153651
1735.2194518137949 3397.3791186484013
1735.9447360025606 3369.2206773699445
1736.669844898439 3293.489447143255
1737.3947785465189 3363.8502265070883
1738.1195369918605 3214.8616297052945
1738.8441202795093 3346.6259962959825
1739.5685284544943 3343.7122651202744
1740.292761561821 3410.2358243187773
1741.0168196464838 3401.6266297823
1741.7407027534518 3317.836739724798
1742.464410927687 3254.6673169425244
1743.187944214118 3378.726040129493
1743.9113026576688 3356.478960124031
1744.634486303241 3334.41811214778
1745.3574951957125 3434.0594125773605
1746.0803293799509 3236.226453652077
1746.8029889008048 3420.3330814430847
1747.5254738031017 3284.113773838607
1748.2477841316504 3174.697032015864
1748.969919931249 3237.390143049699
1749.6918812466665 3195.772256196622
1750.4136681226646 3303.5206531073372
1751.1352806039777 3346.424455057905
1751.856718735331 3194.7698582924313
1752.5779825614281 3202.9153578076325
1753.2990721269507 3319.2784854938627
1754.0199874765676 3178.2590414440483
1754.7407286549314 3145.9769113883594
1755.4612957066693 3174.3098079300134
1756.1816886763954 3124.3194150038626
1756.9019076087097 3236.46306193924
1757.6219525481865 3181.0086443648324
1758.3418235393856 3076.5733441213874
1759.061520626854 3175.3567663248464
1759.7810438551096 3257.5736809893165
1760.5003932686614 3052.8783735715897
1761.2195689119999 3217.3832886692535
1761.938570829594 3207.9728588253024
1762.657399065898 3294.518864022191
1763.376053665348 3078.9598428666077
1764.0945346723602 3153.428068514577
1764.812842131334 3172.390268235219
1765.5309760866512 3094.754893444578
1766.2489365826787 3076.2714095106617
1766.9667236637597 3092.610229112543
1767.684337374223 3055.423896323447
1768.401777758383 3042.786276425499
1769.1190448605284 3186.1193887303793
1769.836138724937 3107.2706918161193
1770.5530593958665 3116.3438460214006
1771.2698069175603 3325.5152007183665
1771.9863813342326 3210.8027293376795
1772.702782690094 3082.156562748917
1773.4190110293293 3190.3947208281843
1774.1350663961111 3135.9314839777303
1774.8509488345844 3032.423408536536
1775.5666583888924 3135.3285158066838
1776.2821951031437 3202.265050461849
1776.9975590214362 3052.5314865716146
1777.7127501878585 3177.082870850228
1778.4277686464684 3132.1685528150892
1779.1426144413108 3083.363159760754
1779.8572876164162 3094.827235543793
1780.571788215797 3010.169039059997
1781.2861162834415 3134.4247922950062
1782.0002718633277 3056.302324904312
1782.7142549994132 3147.098694159972
1783.4280657356376 3090.4692952769765
1784.141704115922 3052.0982060084043
1784.855170184177 2959.3526510886
1785.5684639842839 2985.841571864597
1786.2815855601148 2789.89912888592
1786.9945349555237 3110.6778170825987
1787.707312214343 2987.5033177080104
1788.4199173803918 3245.2155755630747
1789.132350497468 2884.774878971543
1789.8446116093583 3054.0919833501935
1790.556700759822 2899.6768483731585
1791.2686179926077 3195.0147579002323
1791.9803633514493 3080.506715535321
1792.6919368800554 2879.258871022574
1793.4033386221236 3084.0825146201923
1794.1145686213295 3233.6993857783214
1794.8256269213307 3136.491669436198
1795.536513565774 3032.4904647046637
1796.247228598284 2833.974301124361
1796.9577720624693 2910.7839538982157
1797.6681440019165 3141.346113061433
1798.3783444602013 2887.888832374623
1799.0883734808776 3012.4782631260377
1799.7982311074884 2974.818269011016
1800.5079173835475 3105.9570993595835
1801.2174323525633 3026.6734583254965
1801.9267760580187 2919.019330982289
1802.635948543386 2949.911805340951
1803.3449498521113 2906.3204773418793
1804.0537800276325 3002.4514704118988
1804.7624391133668 2993.5397710926163
1805.47092715271 2799.898030146002
1806.1792441890484 2908.666403144966
1806.8873902657433 2868.3322449935736
1807.5953654261448 3017.29209487117
1808.3031697135812 2958.8166912664847
1809.0108031713662 2851.198112630443
1809.71826584279 2953.012209721331
1810.425557771141 2952.458820309223
1811.1326789996747 3009.221866564355
1811.839629571632 2888.361554022473
1812.5464095302468 2953.17092371459
1813.2530189187182 2834.380415044533
1813.959457780249 3007.512728562045
1814.6657261580076 3076.3856475616094
1815.371824095153 2907.2762931798993
1816.0777516348262 3002.98713778071
1816.78350882015 2743.5503277979433
1817.4890956942272 2760.83342570721
1818.1945123001533 2942.259733849572
1818.8997586809928 2874.397915757585
1819.6048348798067 2859.2541759748337
1820.3097409396287 2922.841856858738
1821.0144769034796 3062.716585726107
1821.7190428143622 2811.534319395706
1822.423438715261 2841.192987974091
1823.1276646491478 2713.679280009325
1823.8317206589727 2919.4266305983174
1824.5356067876692 2799.177673622918
1825.2393230781581 2745.192801710166
1825.942869573335 2734.0144886784774
1826.646246316086 2802.7034407071014
1827.3494533492758 2766.3268482775024
1828.052490715756 2919.2387298741487
1828.7553584583547 2900.659757022953
1829.458056619891 2955.3745403487615
1830.1605852431585 2884.791323974986
1830.8629443709433 2837.022267535517
1831.5651340460063 2847.490817689405
1832.2671543110919 2660.873166972856
1832.9690052089318 2895.0937252521444
1833.6706867822395 2771.9733281303534
1834.3721990737104 2857.555362607959
1835.0735421260233 2790.65288176547
1835.774715981841 2785.0290585169614
1836.4757206838058 2841.0049140545716
1837.1765562745459 2901.2884922053213
1837.8772227966747 2743.3369037225743
1838.5777202927839 2853.006923714654
1839.2780488054523 2877.6209830629787
1839.9782083772352 2804.348695606982
1840.6781990506806 2959.8827774203414
1841.378020868313 2763.1995600237033
1842.0776738726418 2966.6181275058525
1842.777158106157 2779.4587355895264
1843.4764736113375 2848.193535358768
1844.1756204306403 2889.787187031919
1844.8745986065078 2565.530939912151
1845.5734081813607 2705.079636674195
1846.2720491976124 2771.774258530867
1846.970521697649 2547.7917538993456
1847.6688257238511 2770.641700696118
1848.3669613185684 2761.354369129186
1849.0649285241452 2575.110618030566
1849.7627273829057 2798.960897308214
1850.460357937156 2819.4265109445146
1851.1578202291857 2559.532206381908
1851.8551143012664 2741.227257243483
1852.5522401956569 2753.8081444391364
1853.2491979545957 2835.849780684957
1853.9459876203055 2701.425350446075
1854.6426092349902 2686.2630394630764
1855.3390628408451 2759.3867744627164
1856.0353484800362 2794.908732431413
1856.7314661947203 2711.516411692788
1857.4274160270397 2665.2363588935177
1858.123198019115 2711.4499268707305
1858.8188122130487 2664.26982639334
1859.5142586509319 2705.3390310047257
1860.209537374838 2701.3798023753016
1860.9046484268183 2757.2372697899023
1861.599591848917 2720.257861987252
1862.294367683151 2727.496978150312
1862.988975971528 2639.9342445011534
1863.6834167560355 2545.2532430912306
1864.3776900786452 2746.427822767607
1865.0717959813119 2747.5003367710624
1865.7657345059724 2716.3500014161064
1866.4595056945564 2834.4208411328746
1867.1531095889586 2681.205026840746
1867.846546231076 2598.625829964797
1868.5398156627743 2742.523321668731
1869.2329179259123 2652.0926649422213
1869.9258530623283 2732.3549901242827
1870.618621113843 2638.1946970514136
1871.3112221222636 2585.045883112582
1872.0036561293764 2613.4123779216116
1872.695923176956 2596.9352790439775
1873.3880233067594 2779.2006124776594
1874.0799565605212 2592.914515497081
1874.7717229799673 2601.9569478151416
1875.4633226068036 2661.316771110701
1876.1547554827175 2702.2930963985527
1876.8460216493859 2624.1339181083013
1877.5371211484617 2668.6952684187295
1878.2280540215852 2703.578186711673
1878.9188203103804 2458.7463953132683
1879.6094200564548 2542.175915073646
1880.299853301396 2537.0403598060348
1880.9901200867826 2794.4948674299876
1881.6802204541673 2741.5309496583286
1882.3701544450942 2684.890282941884
1883.059922101087 2561.4349380942062
1883.7495234636517 2690.4749414025546
1884.4389585742792 2509.7738932627917
1885.1282274744517 2577.3951933760895
1885.8173302056166 2942.8982311546997
1886.506266809225 2637.9359873758713
1887.195037326701 2549.5529877697436
1887.8836417994517 2521.84845692704
1888.5720802688702 2693.548736390091
1889.260352776333 2630.239352425023
1889.9484593632042 2591.073885339355
1890.63640007082 2658.5483201911115
1891.3241749405151 2325.265532090627
1892.0117840135954 2673.6763263852795
1892.6992273313572 2612.120973049894
1893.3865049350788 2523.470933358915
1894.0736168660223 2709.981008782789
1894.7605631654333 2622.9202859062966
1895.4473438745408 2465.3104868948312
1896.133959034556 2736.614845950383
1896.820408686679 2547.926686498479
1897.506692872088 2522.3499964614703
1898.192811631945 2566.2599619827147
1898.8787650073991 2669.0062682944913
1899.5645530395832 2634.4764211652264
1900.2501757696118 2613.6205221386417
1900.9356332385796 2499.621117953905
1901.620925487574 2764.576212446361
1902.3060525576602 2599.206696801842
1902.9910144898859 2652.5975479437243
1903.6758113252872 2548.9632167591335
1904.3604431048789 2683.6796723294715
1905.0449098696663 2534.4706201742733
1905.7292116606295 2504.443979344529
1906.4133485187394 2683.459727173862
1907.0973204849488 2376.4755857473056
1907.7811276001976 2436.6721262760184
1908.4647699053967 2395.2235843774533
1909.1482474414588 1985.8670189421882
1909.8315602492694 2328.2881682503325
1910.5147083696957 2481.0350231745247
1911.1976918436012 2494.1486816718143
1911.880510711815 2484.1530253939823
1912.5631650151681 2612.171352996405
1913.2456547944657 2461.99578625542
1913.927980090495 2516.30164536009
1914.6101409440362 2659.281443724917
1915.2921373958416 2498.651549151162
1915.9739694866603 2547.623434114852
1916.655637257214 2555.088680687978
1917.3371407482136 2530.1857713778663
1918.0184800003572 2728.4618899126335
1918.6996550543154 2621.061789549415
1919.3806659507554 2474.4381629755444
1920.0615127303208 2510.3450282648764
1920.7421954336423 2434.721541636238
1921.4227141013343 2502.950995631098
1922.103068773993 2557.265756072475
1922.783259492202 2589.3455267284053
1923.4632862965227 2488.453400245115
1924.1431492275078 2491.8717219668188
1924.8228483256917 2505.6758338868667
1925.5023836315922 2322.8321755247443
1926.1817551857057 2305.0152191794273
1926.8609630285227 2616.0751674399553
1927.5400072005123 2594.929894915457
1928.218887742125 2411.9969691859005
1928.8976046938005 2323.476553614949
1929.5761580959588 2664.37644248644
1930.2545479890086 2423.264736627987
1930.9327744133352 2317.9940117722826
1931.6108374093164 2442.109612001167
1932.2887370173066 2589.128512768785
1932.9664732776473 2302.610715195654
1933.6440462306673 2544.0774135275637
1934.3214559166754 2413.578646914853
1934.9987023759659 2381.125036957538
1935.675785648813 2460.3248966034444
1936.3527057754836 2292.2174469475717
1937.029462796223 2557.5443984059775
1937.70605675126 2433.9262410979995
1938.3824876808085 2350.051726507972
1939.058755625072 2263.1843203142294
1939.7348606242267 2387.8066688909325
1940.4108027184448 2481.2351933978493
1941.0865819478713 2470.717265807046
1941.7621983526478 2446.767345902478
1942.4376519728921 2322.171680987899
1943.1129428487038 2372.7224739283197
1943.7880710201734 2411.813028465336
1944.4630365273733 2515.3019568940335
1945.1378394103576 2339.96441578295
1945.8124797091714 2650.4554032983237
1946.4869574638324 2193.2866785807487
1947.161272714353 2265.789847650497
1947.8354255007234 2457.1464693862677
1948.5094158629272 2412.011675289788
1949.1832438409183 2476.090672120613
1949.8569094746435 2480.245904883307
1950.530412804037 2467.926542263499
1951.2037538690092 2540.936359277198
1951.8769327094578 2393.660999555875
1952.5499493652678 2357.8095969006918
1953.222803876306 2428.770210311167
1953.895496282421 2392.678894738933
1954.5680266234522 2359.3295348189054
1955.2403949392155 2499.302234219953
1955.9126012695142 2276.6159937852544
1956.5846456541403 2433.211736172262
1957.2565281328643 2354.719637322715
1957.9282487454457 2390.5170527017726
1958.5998075316202 2332.5957265863863
1959.27120453112 2285.449118690961
1959.9424397836501 2386.178611111192
1960.613513328908 2352.8258666951756
1961.2844252065697 2493.0201866359057
1961.9551754563017 2127.809239432532
1962.6257641177453 2419.1688125584396
1963.29619123054 2423.7725374449205
1963.966456834296 2217.751985675745
1964.6365609686181 2345.0566483688735
1965.306503673086 2521.6666644801203
1965.976284987275 2419.55373200981
1966.645904950734 2522.3200820646853
1967.315363603002 2261.1547611980805
1967.9846609836077 2345.9880979076142
1968.6537971320486 2165.2471313846904
1969.3227720878222 2404.924688604471
1969.9915858904042 2358.271228334589
1970.660238579252 2491.4607930221096
1971.3287301938108 2447.968063749954
1971.997060773514 2374.01416232564
1972.665230357772 2298.2877390591757
1973.3332389859843 2245.499417190117
1974.0010866975335 2072.909213700522
1974.6687735317864 2417.923662592575
1975.3362995280932 2467.680942162201
1976.003664725793 2313.7209236572344
1976.6708691642052 2126.541648315932
1977.3379128826364 2319.033278066501
1978.004795920373 2413.0501822964034
1978.6715183166925 2491.140994500366
1979.3380801108524 2176.5743488404823
1980.0044813420973 2224.7538415625213
1980.6707220496555 2192.2791041669625
1981.3368022727373 2372.6672030400614
1982.0027220505417 2249.6545105267746
1982.66848142225 2152.6187476924474
1983.3340804270283 2246.817578080465
1983.999519104027 2261.092482567897
1984.6647974923835 2315.5637345140085
1985.329915631215 2174.2474443658716
1985.99487355963 2346.285624853594
1986.6596713167146 2371.6161741328115
1987.3243089415428 2180.325339685828
1987.9887864731754 2309.2320851517898
1988.6531039506553 2243.588445502667
1989.3172614130071 2495.953372203374
1989.9812588992481 2118.0863355158444
1990.645096448372 2214.0528792105188
1991.3087740993633 2068.226197602938
1991.9722918911848 2157.2918062035797
1992.635649862792 2308.4288084361497
1993.2988480531185 2282.200745207524
1993.9618865010852 2458.2649756005358
1994.6247652455968 2248.1573247088986
1995.287484325545 2139.57701300088
1995.9500437798033 2247.042862481795
1996.6124436472292 2165.9747386503823
1997.2746839666706 2232.9753633315077
1997.936764776954 2206.0054383467677
1998.598686116895 2052.9143125776054
1999.2604480252903 2214.3421657338504
1999.9220505409212 2338.059415953145
2000.5834937025593 2201.80521894865
2001.2447775489582 2223.6076654732724
2001.9059021188514 2226.7330896043604
2002.5668674509616 2224.513979672166
2003.2276735839987 2082.8067066950252
2003.8883205566508 2136.9460291606392
2004.5488084075987 2172.4919290409475
2005.2091371755014 2301.1601657550536
2005.8693068990033 2042.0892495599542
2006.5293176167397 2305.7310166578336
2007.1891693673224 2192.749470122469
2007.848862189354 1977.03920071302
2008.5083961214223 2076.797366974589
2009.1677712020955 2275.7101435334785
2009.8269874699254 2261.8225526192437
2010.4860449634598 2362.7037065773507
2011.1449437212177 2096.565996201858
2011.8036837817108 2308.546476963345
2012.4622651834325 2228.149416497789
2013.1206879648653 2336.309552244938
2013.7789521644736 2099.423646863229
2014.4370578207036 1963.828725300736
2015.0950049719922 2140.578338821716
2015.7527936567585 2303.0403244389954
2016.4104239134067 2099.3836803029035
2017.067895780323 2235.6654821719744
2017.725209295886 2033.3059097588289
2018.3823644984514 2207.9485207719736
2019.0393614263648 2175.9065465921944
2019.6962001179545 2048.0252202138468
2020.3528806115355 2238.2378679003996
2021.0094029454067 2235.9450655008854
2021.6657671578487 1889.8046291515554
2022.321973287133 2227.216149350126
2022.9780213715148 2161.9230043615603
2023.6339114492293 2237.0738674711793
2024.2896435585026 2191.190450268915
2024.9452177375442 2137.73928554334
2025.600634024544 2328.889433543771
2026.2558924576842 2247.563099922151
2026.9109930751292 2264.4137019200357
2027.565935915025 2091.7102622721295
2028.2207210155066 2306.9343716828357
2028.8753484146964 2323.882397022372
2029.529818150695 1965.101634883751
2030.1841302615903 2173.2819699254424
2030.8382847854573 2000.6955033862655
2031.4922817603601 2052.731304769218
2032.1461212243357 2180.238287353246
2032.7998032154192 1970.0398799628852
2033.4533277716218 2166.3801857730987
2034.1066949309443 2090.382172252832
2034.7599047313688 2054.7504778634034
2035.4129572108704 2156.498879425546
2036.0658524074006 2179.0505232555515
2036.7185903589016 2207.1700335954083
2037.3711711032956 2312.6496514290893
2038.023594678496 2220.861434209038
2038.675861122394 2003.1364771996043
2039.3279704728757 2070.600157258768
2039.9799227678031 1944.5675850508335
2040.6317180450278 2250.88420995573
2041.2833563423865 2066.107466938992
2041.9348376977014 2184.384755083902
2042.5861621487784 2001.172467607872
2043.2373297334088 2272.1231408322224
2043.8883404893695 2214.3313641370446
2044.5391944544208 2086.958905150106
2045.1898916663158 2195.006810741191
2045.8404321627804 2166.537848080881
2046.4908159815368 1979.9760688357624
2047.1410431602853 1756.038934037369
2047.7911137367173 2099.994246274042
2048.441027748504 2189.6415961255816
2049.090785233302 2108.7590098427745
2049.7403862287592 2078.2732116794914
2050.389830772503 2265.6315443366752
2051.0391189021466 1985.8545131192186
2051.688250655294 1965.557579321854
2052.337226069527 2021.850697640391
2052.986045182417 2026.6032188510085
2053.634708031521 1883.970504766794
2054.283214654375 2248.537407280236
2054.931565088511 1884.9230873317563
2055.579759371436 1985.9467127414541
2056.2277975406523 2117.5611728343497
2056.8756796336384 2058.0408816546337
2057.5234056878617 1763.9039806639564
2058.1709757407752 2144.0403660202
2058.8183898298194 2171.92542252906
2059.465647992416 2088.558654199852
2060.1127502659747 2059.388865769396
2060.759696687888 1953.0846515793523
2061.4064872955405 2071.1685421807656
2062.053122126292 2243.7722024036834
2062.699601217497 1841.7824475572204
2063.345924606485 2066.82979040984
2063.992092330587 2148.06748107116
2064.638104427102 2123.916935210509
2065.283960933324 2198.5720915577513
2065.92966188653 1964.3892631055005
2066.5752073239855 2053.8584172433843
2067.2205972829397 1966.0851065069571
2067.86583180062 2064.7579948313405
2068.5109109142522 1937.1272681897342
2069.15583466104 2179.3468789335925
2069.8006030781708 2147.3359872440683
2070.445216202821 1950.0789471092874
2071.089674072153 2045.5718927319817
2071.7339767233116 2170.8029972483027
2072.3781241934303 2093.0830274842156
2073.0221165196253 2140.894842759294
2073.6659537390024 2179.692590746453
2074.3096358886505 2042.640404546069
2074.953163005637 2055.2934663554342
2075.596535127028 1711.0591152675952
2076.2397522898664 1868.9958406943776
2076.882814531182 1999.6486342737019
2077.5257218879924 2086.9057149204014
2078.1684743973 2046.9384554668536
2078.8110720960885 1954.093771297028
2079.453515021336 2209.06481555859
2080.095803209997 2124.1449506175186
2080.7379366990135 2114.9401535131506
2081.37991552532 2091.867154328121
2082.0217397258275 2027.3132696704968
2082.6634093374414 1974.2346115781888
2083.3049243970418 1777.1690448007225
2083.9462849415067 1924.6806090509035
2084.587491007689 2127.9136659022474
2085.2285426324324 2002.5757028871067
2085.869439852564 2028.5175642665986
2086.510182704902 1987.4902024269172
2087.1507712262483 2071.408064840086
2087.791205453381 1811.3615169262569
2088.4314854230743 1956.6418737668987
2089.0716111720867 1980.2924443745876
2089.7115827371617 1882.0574864380167
2090.351400155023 1982.4825407663116
2090.991063462385 1963.354015725153
2091.6305726959527 1812.706788968983
2092.2699278924047 1912.48406441415
2092.9091290884153 1990.3707845696238
2093.548176320641 2040.4326099602192
2094.187069625721 2119.8594806842266
2094.8258090402887 1802.5517281674915
2095.464394600951 2113.970655890516
2096.102826344313 1914.4774463517417
2096.741104306955 2005.8814920593632
2097.379228525453 1905.803059140837
2098.017199036358 1754.8714870713477
2098.6550158762147 2007.8531069136
2099.2926790815527 1994.7100795234571
2099.9301886888825 1985.0488590830123
2100.5675447347076 1984.7989792540952
2101.2047472555114 2072.1289109035756
2101.841796287761 1762.689592669738
2102.47869186792 2019.6100503748996
2103.1154340324265 1888.7928878325292
2103.752022817709 1827.8447049466154
2104.388458260184 1898.876902959913
2105.024740396251 1966.512471343575
2105.660869262292 2010.470092555482
2106.296844894685 1972.167516246859
2106.93266732978 1905.1317280480512
2107.5683366039284 1908.6048042552131
2108.2038527534532 1892.9574452712336
2108.8392158146726 1928.9045544980738
2109.4744258238843 1900.1026114382971
2110.1094828173755 1736.5241869596994
2110.744386831422 1966.4260004689938
2111.3791379022787 1953.331003888708
2112.01373606619 1986.1124053022038
2112.648181359389 2130.225479463755
2113.28247381809 1975.5925172287832
2113.916613478492 2053.267267201839
2114.550600376786 1996.2910504742842
2115.1844345491445 1947.572810258055
2115.818116031729 2010.5581260779516
2116.451644860679 2160.0303330402703
2117.085021072133 1896.4115530071135
2117.718244702204 1846.951873477651
2118.3513157869984 1971.9623880207487
2118.984234362604 1866.0658196748634
2119.617000465092 1996.033646559453
2120.249614130529 2073.515514788156
2120.8820753949585 1999.1837630039383
2121.5143842944162 1914.9878688137546
2122.14654086492 1820.9561363322107
2122.7785451424734 1787.7426016296781
2123.4103971630702 1754.6653475134967
2124.042096962681 1985.859473715455
2124.6736445772767 1905.8421766092524
2125.305040042802 1734.3319928583314
2125.936283395191 1829.4268589892285
2126.567374670365 1939.5381215818204
2127.198313904233 1853.8950056928966
2127.8291011326855 2128.955054868517
2128.4597363916037 1855.289333657383
2129.0902197168507 1779.8291677311558
2129.720551144279 1867.0748244444098
2130.3507307097225 2073.8425744412193
2130.980758449008 2009.1395253987562
2131.6106343979427 1799.6360538238382
2132.2403585923203 1941.5513360635346
2132.8699310679276 2001.1782015231997
2133.499351860526 1955.9494605941138
2134.1286210058715 1936.9130255747787
2134.7577385397053 1632.9545094898033
2135.3867044977487 2097.8087131519787
2136.0155189157176 2034.0460516651951
2136.644181829308 1796.2845170897021
2137.2726932742025 1783.846069825943
2137.901053286074 1879.3359309738516
2138.5292619005777 1835.7416033647157
2139.1573191533535 1854.9405383609635
2139.7852250800315 2011.2710107531839
2140.4129797162295 1785.3273550189883
2141.0405830975433 1766.8473614716786
2141.6680352595613 2020.7136458671637
2142.2953362378576 2001.2045782046007
2142.9224860679915 1736.582369699367
2143.549484785508 1916.5910112448478
2144.1763324259373 1860.2271897273604
2144.803029024799 1884.791985700835
2145.429574617594 1810.3909756820492
2146.0559692398165 1844.890912127282
2146.682212926942 1891.99537522891
2147.308305714432 1949.1847149182304
2147.9342476377333 2016.5060650601622
2148.5600387322847 1886.6130322633248
2149.185679033506 1937.4132889879445
2149.8111685768017 1696.6157114147034
2150.4365073975678 1691.5247608280526
2151.061695531187 2012.0454678574988
2151.686733013021 1929.670691808647
2152.311619878423 1888.179304032986
2152.9363561627342 1716.0564890205235
2153.560941901278 1676.7792976063604
2154.1853771293663 1769.3837419858403
2154.809661882293 1850.3819291447962
2155.433796195348 2118.7813432850103
2156.0577801037944 1828.1999411707031
2156.681613642895 1802.0050657240383
2157.3052968478896 1692.0763950910452
2157.928829754006 1886.9849770682438
2158.552212396462 1831.1035754801258
2159.1754448104566 1570.5446637796526
2159.7985270311783 1849.7612330132729
2160.4214590938027 1599.5740007939007
2161.0442410334927 1625.3262997227087
2161.6668728853874 1879.8464628394045
2162.289354684628 1699.2736869984528
2162.911686466332 1896.195616157032
2163.533868265602 1930.2710474942792
2164.1559001175337 1740.1080500463959
2164.7777820572046 1882.9240856324868
2165.399514119681 1907.769949732286
2166.021096340013 1844.288107298148
2166.6425287532384 1957.5751222242168
2167.263811394385 1658.637468406468
2167.8849442984574 1854.2725768975383
2168.505927500455 1785.791442578393
2169.126761035366 1665.1388646390144
2169.7474449381552 1752.1807449993237
2170.367979243778 1660.2712874272343
2170.9883639871823 1886.6546119848263
2171.608599203293 1677.9663598190205
2172.2286849270276 1919.437688301737
2172.8486211932886 1915.413295004601
2173.4684080369625 1895.4926850875504
2174.0880454929265 1771.230638108477
2174.7075335960417 1761.5472060191962
2175.3268723811543 1992.5509290495515
2175.9460618831 1698.4360474974696
2176.565102136701 1912.7761951179805
2177.1839931767627 1924.5805701994618
2177.802735038078 1872.629631585735
2178.421327755432 1578.253130395928
2179.0397713635866 1825.588521825974
2179.658065897298 1817.2399127704914
2180.276211391305 1560.2267769744376
2180.8942078803357 1963.4297727401179
2181.5120553991 1731.2649944474913
2182.129753982299 1711.738644768111
2182.7473036646206 1747.2150328729076
2183.3647044807367 1964.2473770412848
2183.9819564653044 1721.6896499407571
2184.599059652968 1885.4539495936478
2185.216014078367 1860.8062913875006
2185.832819776113 1644.2883833089186
2186.4494767808137 1789.5090902185996
2187.065985127063 1845.5689802382192
2187.682344849436 1615.6999256868817
2188.298555982501 1956.1435122965772
2188.9146185608097 1899.4053523796197
2189.530532618901 1888.7087645804884
2190.1462981912937 1841.2992882075348
2190.761915312507 1831.9636730386974
2191.377384017036 1577.587955518203
2191.9927043393654 1803.9430991330398
2192.6078763139667 1882.7788174839807
2193.2228999753006 1961.8211235133756
2193.837775357808 1821.6496046889165
2194.452502495922 1679.825380087541
2195.0670814240602 1841.8038682304461
2195.6815121766285 1587.2496551560678
2196.2957947880186 1548.3562587219426
2196.9099292926057 1509.3897369546837
2197.523915724758 1710.3726368469684
2198.137754118825 1977.9190226577473
2198.7514445091456 1964.9374020166779
2199.3649869300443 1589.0850655507436
2199.9783814158327 1991.631987000465
2200.5916280008096 1825.3081327147308
2201.2047267192593 1874.6731686236121
2201.8176776054515 1608.0100772617204
2202.430480693649 1529.5261774853586
2203.0431360180955 1604.490282616791
2203.6556436130195 1679.6886759692468
2204.268003512645 1570.4374998117505
2204.8802157511727 1648.0152718814504
2205.492280362796 1999.888848809213
2206.1041973816937 1798.4258756436993
2206.715966842032 1642.6315891957936
2207.3275887779655 1771.3312574843283
2207.93906322363 1921.2978848502873
2208.550390213153 1618.1197559705865
2209.1615697806465 1795.8848902809732
2209.7726019602105 1743.8399734718078
2210.3834867859277 1688.6007931802355
2210.9942242918787 1601.9978370908475
2211.6048145121167 1832.9966622801833
2212.2152574806914 2069.768179984629
2212.825553231638 1697.4008102686275
2213.435701798975 1822.7169329003445
2214.045703216707 1743.137972125403
2214.655557518832 1499.3837289502148
2215.2652647393297 1539.0006580760396
2215.874824912169 1546.2761527554408
2216.4842380713 1600.6367119700649
2217.09350425067 1803.9089856246032
2217.7026234842033 1603.9386419957082
2218.311595805819 1911.869604868228
2218.9204212494133 1581.4792063673426
2219.52909984888 1829.1591445830509
2220.137631638092 1809.6429909491574
2220.7460166509154 1789.9717079486945
2221.354254921198 1583.7768299522663
2221.9623464827764 1866.5506108470422
2222.5702913694713 1818.0025519111507
2223.178089615096 1878.6460530069514
2223.7857412534486 1690.4226621369157
2224.39324631831 1487.4329942677434
2225.000604843457 1495.9836874845375
2225.607816862641 1700.7413602405966
2226.214882409611 1788.7583912595478
2226.8218015180973 1808.8614831163327
2227.4285742218217 1694.352193296357
2228.0352005544864 1591.171047869758
2228.6416805497847 1464.631119803536
2229.248014241399 1633.4441364543638
2229.8542016629945 1677.7886354511222
2230.460242848223 1633.7486103570204
2231.0661378307304 1834.9358729087915
2231.671886644139 1590.672632309311
2232.277489322065 1604.7441938380982
2232.8829458981127 1508.3690370509814
2233.48825640587 1587.8967407302716
2234.0934208789095 1935.3784943771261
2234.6984393507955 1697.7888100740936
2235.3033118550793 1681.479397159562
2235.9080384252975 1510.581242040397
2236.5126190949723 1378.8980663324444
2237.1170538976166 1433.3260414055342
2237.721342866729 1487.866507205494
2238.32548603579 1631.0332392290009
2238.9294834382763 1581.091145485688
2239.533335107646 1651.236589576388
2240.1370410773434 1623.1943708976228
2240.740601380803 1690.5242590507958
2241.3440160514474 1757.9769915040183
2241.9472851226783 1824.0990966131594
2242.550408627896 1690.2237556897703
2243.1533866004793 1713.746640295039
2243.756219073799 1709.3305332182165
2244.3589060812064 1457.0594810431023
2244.961447656049 1555.8273239278865
2245.5638438316564 1728.7140929119826
2246.166094641343 1708.1571827636158
2246.7682001184166 1527.664498537699
2247.3701602961664 1557.3401083236517
2247.971975207871 1808.1696767801998
2248.5736448867974 1579.704889419285
2249.175169366197 1395.340138834275
2249.7765486793123 1585.5328482709704
2250.3777828593684 1720.837758247201
2250.9788719395783 1701.247718324103
2251.579815953146 1574.1599743379234
2252.1806149332606 1531.891157733231
2252.781268913097 1749.3395324621001
2253.381777925817 1580.0711310788713
2253.9821420045737 1572.0597501159511
2254.5823611825035 1713.6574520876322
2255.1824354927303 1731.2298400484378
2255.782364968365 1880.69092482872
2256.38214964251 1556.7502020407558
2256.9817895482483 1397.3994303655147
2257.5812847186553 1538.0990259878984
2258.180635186791 1542.3523615866263
2258.779840985704 1573.73127912572
2259.37890214843 1558.5492556091565
2259.97781870799 1803.9662884566176
2260.5765906973957 1778.447722612919
2261.175218149645 1597.441690147623
2261.773701097718 1487.0762196865528
2262.3720395745895 1476.251322687261
2262.970233613216 1442.662785328473
2263.568283246548 1581.571907523958
2264.1661885075137 1535.7708071582122
2264.763949429038 1618.7401706363996
2265.3615660440246 1733.6633240989402
2265.959038385374 1531.4074217171042
2266.5563664859637 1590.257710812629
2267.153550378669 1507.8489441679499
2267.7505900963424 1504.5481719895567
2268.3474856718312 1766.4095853869337
2268.9442371379664 1672.0730522765214
2269.5408445275643 1684.4812763502905
2270.1373078734377 1452.482769553113
2270.7336272083758 1490.742712045249
2271.32980256516 1562.759216991091
2271.925833976562 1729.923579254909
2272.5217214753357 1760.8273575751257
2273.117465094223 1584.4075320193904
2273.7130648659586 1550.601844429352
2274.308520823257 1613.6743948535118
2274.903832998827 1715.3763099442701
2275.4990014253563 1769.4616476832452
2276.094026135528 1823.6175645961152
2276.6889071620117 1585.8429295653261
2277.2836445374614 1307.3710033015618
2277.878238294519 1495.6773990188674
2278.472688465812 1718.2836637529192
2279.066995083962 1473.141740725572
2279.6611581815705 1595.1876734598325
2280.255177791232 1760.901573310613
2280.8490539455233 1686.1868033437718
2281.442786677013 1652.648448293316
2282.0363760182554 1619.1631154047568
2282.6298220017943 1449.435970126979
2283.223124660155 1853.2503391763298
2283.816284025859 1717.9450656718716
2284.4093001314086 1502.7025167079198
2285.002173009292 1546.715203626619
2285.5949026919952 1540.7030956208753
2286.1874892119777 1551.8929112719516
2286.7799326016993 1504.9510243886461
2287.3722328936 1489.2452862366251
2287.964390120109 1366.4256971729797
2288.556404313642 1662.1275779160428
2289.1482755066027 1703.7249520196146
2289.7400037313873 1745.3172798630262
2290.3315890203703 1535.1717164104855
2290.9230314059205 1547.4495138070877
2291.5143309203904 1559.7953409519528
2292.1054875961236 1554.8299970418955
2292.6965014654506 1646.5658381503029
2293.287372560684 1472.218453958307
2293.878100914131 1469.003649033334
2294.468686558086 1465.8292795699497
2295.059129524827 1426.0899432311483
2295.649429846617 1453.9258905904794
2296.239587555716 1481.780643512346
2296.8296026843636 1567.8576711868525
2297.419475264791 1769.0170974555372
2298.0092053292137 1538.8047314395076
2298.598792909839 1677.692200136685
2299.1882380388597 1494.8461795123367
2299.777540748455 1765.0963215245356
2300.3667010707904 1790.27963212549
2300.9557190380256 1465.6503122251338
2301.544594682302 1651.0474077009949
2302.1333280357503 1375.6819666173647
2302.721919130485 1525.8806564628105
2303.3103679986198 1722.974167370483
2303.898674672242 1761.1950868895826
2304.486839183437 1561.3497626164813
2305.0748615642697 1548.3156004685857
2305.6627418468015 1548.315018127951
2306.2504800630704 1553.266535316911
2306.8380762451143 1665.0111958296625
2307.425530424949 1731.6888068661387
2308.012842634582 1798.5059705239037
2308.6000129060103 1617.1783767589077
2309.187041271214 1578.4076237039583
2309.773927762164 1360.6613742809152
2310.3606724108213 1622.8235504369918
2310.9472752491274 1484.5776322546465
2311.5337363090184 1595.7831692260015
2312.120055622414 1565.0803531194845
2312.706233221221 1419.750802837349
2313.2922691373424 1470.6645101263164
2313.8781634026564 1590.5878775015178
2314.463916049037 1599.088964052687
2315.049527108342 1684.8763374858208
2315.6349966124235 1770.834200561453
2316.2203245931123 1627.8391123815766
2316.8055110822315 1263.3441123258233
2317.3905561115935 1350.6669149115173
2317.9754597129977 1418.3274798268953
2318.560221918229 1423.2316743349697
2319.1448427590603 1428.1780269950525
2319.729322267256 1570.9400004402003
2320.313660474563 1335.2651822123994
2320.8978574127195 1671.427204599812
2321.481913113452 1677.0124751967655
2322.0658276084705 1524.182975322205
2322.6496009294806 1270.715474622903
2323.233233108165 1098.5181184945889
2323.8167241762058 1394.9496679049337
2324.4000741652617 1408.6011777284998
2324.983283106987 1390.2711489865565
2325.5663510330232 1529.870300309923
2326.1492779749933 1539.956963729112
2326.7320639645204 1635.8264713126932
2327.3147090332004 1455.0131776575997
2327.897213212629 1466.1989065559292
2328.4795765343843 1477.2883192741588
2329.0617990300307 1569.4696073434266
2329.643880731124 1771.7177764517335
2330.22582166921 1451.3604585538874
2330.807621875816 1343.2073863691571
2331.3892813824623 1234.9960252316248
2331.9708002206517 1324.3506234977615
2332.5521784218818 1420.757919814813
2333.133416017634 1675.530946089446
2333.7145130393765 1428.8275610988835
2334.295469518571 1687.6282300721173
2334.876285486658 1653.6536008406752
2335.456960975076 1634.1421981089686
2336.037496015242 1614.6154867002201
2336.6178906385667 1505.2302175785562
2337.198144876451 1532.6885499626933
2337.778258760278 1408.4114944100575
2338.3582323214214 1721.765787825439
2338.938065591243 1596.513981954446
2339.517758601087 1741.1662111754406
2340.0973113822965 1470.7941995643203
2340.676723966193 1268.7916393985556
2341.255996384094 1463.4802250682449
2341.835128667295 1738.0643778247795
2342.4141208470883 1902.4699950562856
2342.992972954751 1474.8830217925524
2343.5716850215467 1412.2275822764864
2344.1502570787306 1243.543629423306
2344.7286891575386 1236.019960499617
2345.3069812892045 1296.2052301467957
2345.885133504944 1356.3948821816998
2346.4631458359618 1515.825770560424
2347.04101831345 1346.079287363872
2347.6187509685915 1367.8398871458207
2348.196343832553 1625.1082171994326
2348.7737969364935 1552.7820485762584
2349.351110311558 1414.0254490288776
2349.9282839888765 1481.3730857335659
2350.5053179995757 1385.3456698870345
2351.0822123747585 1289.2476945150624
2351.658967145526 1339.342730212694
2352.2355823429643 1228.2966377194741
2352.812057998144 1315.4245306102755
2353.3883941421263 1155.101098115388
2353.9645908059647 1476.320318259191
2354.540648020693 1511.3385908760163
2355.116565817336 1275.0853862994145
2355.6923442269126 1675.1967313137397
2356.2679832804224 1643.4804914072806
2356.8434830088518 1515.2948738901755
2357.41884344318 1386.7772395112654
2357.994064614377 1577.708666758798
