#exp_cfg={"servo_angle": 0.0, "laser_lim": 100.0, "servo_angle_to": 18.0, "laser_wup": 0.0, "bt_dev": "EnSpectr-25AE3", "laser_wdn_max": 0.0, "frames": 10.0, "servo_used": 0, "servo_calib_use": 0, "laser_wdn_min": 0.0, "servo_pix_from": 90.0, "cooler_tout": 300.0, "servo_angle_from": 0.0, "servo_calib": "[-1.9174921013161362e-09, 3.9322238269163779e-05, -0.27385609119055809, 653.59552119713567]", "laser_autoctl": 0, "servo_pix_to": 3682.0, "laser_pw": 100.0, "cooler_on": 0, "laser_volt": 4.0, "cooler_autoctl": 0, "cooler_curr": 70.0, "cooler_startup": 10.0, "laser_fixed_pw": 0, "gain": 1.3, "offset": 2.53059635486, "servo_calib_degree": 3.0, "laser_curr": 55.0, "shutter": 8200.0, "servo_calib_step": 1.0, "laser_fixed_curr": 0, "exp": 2000.0, "ccd_volt": 4.7, "bt_addr": "00:06:66:62:5A:E3", "servo_delay": 500.0, "laser_autooff": 1}
#proc_cfg={"flat_auto_wnd": 200.0, "flat_auto_fr": 200.0, "flat_auto_shift": 5.0, "yconv": 1, "flatten": 1, "flatten_strength": 100.0, "xfrom": 300.0, "auto_max_frame": 2000.0, "auto_signal": 48000.0, "flat_auto_tol": 0.1, "autoclip": 1, "xrel_range": 0.0, "flat_auto_to": 4000.0, "intensity_adj": 1.0, "xrel": 7852.0, "rmhot": 1, "flat_auto_slit": 4.999999999999997, "auto_ini_exp": 300.0, "auto_off": 0, "xto": 2860.0, "flat_auto_ref": "", "flat_auto_rank": 1, "autobackg": 0, "xrel_adj": 0.0, "auto_black_lvl": 1, "base_wnd": 100.0, "sub_baseline": 0, "xconv": 2, "auto_max_exp": 1000.0, "auto_total_exp": 10000.0, "auto_exp": 0, "rmripple": 0, "black_lvl": 8280.75, "shutter_clip_adj": 0.0, "auto_bckg": 0, "flat_auto_thr": 0.9, "subbackg": 1}
316.8218498245369 12847.55425343726
317.89969571804795 12718.308745395487
318.977263876126 12712.518063067457
320.05455438786703 12693.973298455609
321.1315673423287 12582.927810742436
322.2083028285215 12655.876186890202
323.2847609354267 12521.471928291745
324.3609417519747 12513.322515096037
325.43684536705587 12359.838550509368
326.5124718695279 12368.848384988178
327.58782134820103 12309.088478185973
328.66289389184385 12354.666117029676
329.7376895891921 12096.51947638817
330.8122085289342 12177.350375424961
331.88645079971866 12156.170310469573
332.9604164901575 12119.023159758317
334.03410568881554 11968.982050833327
335.1075184842266 12083.223456667272
336.18065496487543 11946.377118992117
337.2535152192122 12000.472339673872
338.32609933564163 11966.286114530607
339.39840740253203 11932.564742619605
340.4704395082099 11882.00854969674
341.5421957409617 11696.599176348873
342.6136761890357 11844.839493012063
343.6848809406365 11667.963262259389
344.75581008392874 11620.53596257616
345.82646370703696 11597.93328382089
346.8968418980512 11606.513336648402
347.96694474501055 11634.93989402985
349.0367723359268 11538.501649077109
350.106324758759 11612.674932553226
351.1756021014353 11388.060395213168
352.2446044518383 11455.329641931592
353.31333189781435 11545.598883275467
354.38178452716966 11439.29310939338
355.449962427665 11407.40523520258
356.51786568702846 11382.910469882061
357.58549439294256 11480.419986961657
358.6528486330535 11540.41134764115
359.71992849496564 11418.298717636031
360.7867340662433 11477.02359455952
361.8532654344144 11522.53996019323
362.9195226869597 11580.362159972463
363.9855059113288 11499.953493951352
365.05121519492604 11424.617100654108
366.11665062511565 11587.01118041612
367.1818122892273 11507.481430060228
368.2467002745434 11602.838159018209
369.31131466831175 11543.756284763262
370.375655557742 11530.56236153927
371.4397230299983 11623.227126401282
372.5035171722102 11624.83047220555
373.5670380714637 11543.828845054852
374.6302858148101 11670.605129870917
375.6932604892554 11672.129001324167
376.7559621817709 11712.662715261733
377.81839097928605 11609.812351013867
378.8805469686886 11556.993310759903
379.94243023683157 11733.931726372213
381.0040408705263 11600.356085065747
382.0653789565458 11429.195699593003
383.1264445816196 11463.194917768533
384.1872378324406 11474.202635904308
385.2477587956637 11471.402614906603
386.3080075579037 11412.800249722535
387.3679842057336 11342.134976451583
388.4276888256918 11389.051200156147
389.48712150426945 11315.461302074507
390.54628232792857 11280.362926484955
391.6051713830857 11203.714590103846
392.66378875611736 11268.366074865164
393.7221345333637 11223.969993833553
394.7802088011249 11108.610263947043
395.838011645661 11162.119761611935
396.89554315319765 11132.090191811336
397.9528034099112 11006.933115995687
399.00979250194723 10952.715235233296
400.06651051541485 11007.95658115565
401.1229575363741 11014.6081062489
402.17913365085224 10938.338683789942
403.23503894483656 10962.426502373537
404.2906735042761 10816.38201755084
405.3460374150818 10760.645653384894
406.401130763119 10819.768566352126
407.455953634224 10803.444137619448
408.5105061141876 10734.375839968952
409.56478828876243 10672.51037707
410.6188002436629 10571.8515427571
411.6725420645689 10601.294753404747
412.72601383711117 10601.785719157971
413.77921564689314 10666.215145707938
414.8321475794728 10521.320940647036
415.88480972036814 10475.175649519146
416.93720215506437 10486.824784606997
417.9893249690049 10382.021896496646
419.04117824759123 10400.76257182364
420.09276207619223 10412.918712883233
421.144076540133 10391.546095934144
422.1951217247042 10326.760955093507
423.24589771515275 10339.292991529566
424.2964045966928 10337.305366755607
425.34664245449494 10329.648134380304
426.3966113736933 10261.249844277318
427.4463114393875 10247.93625517113
428.49574273662984 10230.482418450587
429.5449053504417 10110.437559732727
430.5937993658026 10267.0713720344
431.6424248676558 10121.468015229937
432.6907819409007 10089.53549880254
433.73887067040596 10228.260325077797
434.7866911409965 10181.638001579919
435.8342434374608 10191.1117940128
436.88152764455117 10124.407958713284
437.9285438469724 10103.831283194128
438.9752921294057 10040.281946806568
440.02177257648145 10083.808312236823
441.06798527279716 9923.487555722979
442.1139303029122 10137.65955032242
443.1596077513459 10039.312228290535
444.2050177025794 9990.731411273338
445.25016024105753 10077.221202885243
446.2950354511886 10009.697186172489
447.33964341733736 10055.072405599238
448.383984223834 9958.077314760025
449.4280579549686 9941.638324219992
450.471864694995 9994.451637719092
451.5154045281306 9991.650854969119
452.5586775385509 10045.484515428387
453.60168381039693 9946.16292744594
454.64442342776783 10048.917053818806
455.6868964747264 10044.893973827457
456.7291030353008 9944.020767856458
457.77104319347563 10100.620493475642
458.8127170332027 10048.507914868454
459.854124638392 9998.788626302685
460.895266092919 10139.266536495665
461.93614148061897 10218.005267715886
462.97675088529104 10239.841275512244
464.01709439069236 10188.652167761045
465.0571720805492 10210.14593183797
466.0969840385442 10173.125998139121
467.1365303483253 10351.586509245139
468.17581109350067 10174.650608031638
469.2148263576437 10241.059628352437
470.2535762242878 10343.885325777368
471.29206077693016 10420.621245840197
472.33028009902773 10476.713238346128
473.3682342740012 10404.769888840874
474.40592338523857 10440.786539461851
475.4433475160804 10531.462420126354
476.4805067498364 10510.642779476148
477.51740116978 10539.918113361196
478.5540308591426 10690.218459821683
479.59039590112116 10893.302068251742
480.6264963788726 10821.51046700164
481.6623323755193 11022.744263899101
482.6979039741436 11112.616269284264
483.7332112577915 11350.530123441582
484.76825430947247 11623.231744936073
485.80303321215797 11738.325914450721
486.837548048783 11914.70118634299
487.8717989022425 12210.504364428505
488.90578585539697 12311.540035669072
489.9395089910686 12622.950431112835
490.97296839203955 12456.558506369776
492.00616414106116 12328.890345453594
493.0390963208429 12331.86639686625
494.0717650140559 12314.900977349229
495.10417030333883 12065.42912462393
496.1363122712901 12086.900547054185
497.16819100046814 11797.332043202576
498.1998065734024 11540.729784198633
499.2311590725767 11412.8072264732
500.26224858044407 11103.974600035112
501.2930751794156 10965.915439065106
502.3236389518679 10831.082620775258
503.35393998014115 10662.937578669447
504.38397834653733 10548.129447006195
505.4137541333221 10431.216254837136
506.4432674227228 10283.137207952183
507.4725182969323 10160.07972926733
508.5015068381035 10185.20477050418
509.53023312835467 10078.771298194562
510.55869724976765 10066.569594536504
511.58689928438434 9976.207615895875
512.6148393142121 9987.203156740794
513.6425174212218 10053.04641849107
514.6699336873462 9986.150878868177
515.6970881944835 10027.216085157974
516.7239810244901 10001.699453368416
517.7506122591931 9968.466745269203
518.7769819803761 9953.94744967049
519.8030902697901 10085.229477574005
520.8289372091476 10010.851718864602
521.8545228801249 10107.785691377709
522.8798473643619 10121.352757563776
523.9049107434621 10093.160747340078
524.9297130989908 10087.480892024902
525.9542545124805 10108.76799666724
526.9785350654201 10114.317760532118
528.0025548392696 10068.966293837646
529.0263139154504 9924.384983218879
530.0498123753423 10132.365403245256
531.073050300296 10000.97626554097
532.0960277716204 9881.428247705733
533.1187448705896 9891.204988153706
534.1412016784416 9861.76951982186
535.1633982763833 9853.945119357773
536.1853347455726 9720.367954179605
537.2070111671401 9650.545882017908
538.2284276221817 9626.590322750591
539.2495841917516 9577.918632919134
540.2704809568677 9414.548314883368
541.2911179985167 9450.577667779715
542.3114953976419 9363.139271183227
543.3316132351592 9274.438675955651
544.3514715919409 9240.466279244241
545.3710705488247 9250.52366075362
546.3904101866156 9161.852874252021
547.4094905860784 9156.553331347754
548.4283118279418 9128.382639330786
549.4468739929034 9214.115543666217
550.4651771616191 9070.701757039324
551.4832214147063 9003.434799508974
552.501006832761 9101.936785031008
553.5185334963226 9004.65036062765
554.5358014859103 9074.140486098539
555.5528108820035 9048.839761765808
556.5695617650363 8969.633210630189
557.5860542154242 9052.082369390544
558.6022883135283 9078.732758189642
559.6182641396881 8989.882177977897
560.6339817741991 9018.402388226164
561.6494412973225 9072.462673080581
562.6646427892883 9099.497314511804
563.6795863302796 9041.160326526526
564.694272000459 9003.032541028157
565.7086998799423 9149.069888806564
566.7228700488104 9060.478633464598
567.7367825871115 9055.900706065937
568.7504375748576 9040.603461587973
569.7638350920224 9044.869422183243
570.7769752185486 9069.89414765693
571.7898580343353 9126.89920065375
572.802483619258 9016.64458251483
573.8148520531431 9242.378805239085
574.8269634157932 9235.446739149244
575.8388177869692 9184.913279417722
576.8504152463938 9222.0360002913
577.8617558737587 9496.466520191298
578.8728397487175 9393.662557981172
579.883666950891 9450.345469654316
580.8942375598654 9642.164078516958
581.9045516551851 9744.45694680326
582.9146093163617 10113.233963151366
583.924410622878 9995.357360398568
584.9339556541727 10116.303262938305
585.9432444896538 10195.27376414501
586.9522772086875 10180.017122554613
587.9610538906127 10218.258745340314
588.9695746147318 10169.446685086803
589.9778394603054 10162.095060589007
590.985848506567 10089.732798825169
591.9936018327098 9973.771399171477
593.0010995178891 9678.139363440825
594.0083416412344 9828.43984908216
595.0153282818283 9578.802171959222
596.0220595187293 9495.925618362258
597.0285354309508 9377.127146537987
598.0347560974806 9271.742081226863
599.0407215972609 9250.580769183285
600.0464320092051 9099.276608029217
601.0518874121954 9146.826680698803
602.0570878850685 9032.948213664287
603.062033506636 9045.8677889988
604.0667243556636 9055.646998651438
605.0711605108936 8961.803128714944
606.0753420510264 9246.940136081877
607.0792690547278 9115.773712767716
608.082941600629 9012.297882794639
609.0863597673306 9138.093736871948
610.0895236333909 9154.950970105649
611.0924332773357 9303.87074613869
612.0950887776617 9266.10233994021
613.0974902128219 9344.499329166354
614.0996376612384 9566.776024248893
615.1015312013005 9664.360752019846
616.1031709113595 9831.738598183043
617.1045568697336 9752.063613883021
618.1056891547069 9975.397827341385
619.1065678445229 10133.517029407107
620.1071930173985 10493.556628292605
621.1075647515099 10608.597231779659
622.1076831250048 10672.095336100334
623.1075482159849 10933.574544427425
624.1071601025305 11155.718249441798
625.1065188626781 11377.385963245579
626.105624574433 11759.09714551128
627.1044773157682 11861.05633485733
628.1030771646128 11988.606365420963
629.1014241988742 12257.56392442527
630.0995184964158 12489.351020610056
631.0973601350688 12654.526280195583
632.0949491926294 12920.161636017014
633.0922857468631 12633.209009036042
634.089369875499 12851.43599668798
635.0862016562278 12889.267075133686
636.0827811667077 12652.905849930568
637.0791084845641 12553.692069517203
638.0751836873878 12410.321084275023
639.0710068527369 12370.064799780963
640.0665780581294 12057.134498743611
641.0618973810506 11889.603856048423
642.0569648989604 11776.892413751868
643.0517806892676 11261.689291258801
644.0463448293649 11190.825235950017
645.040657396592 10916.8157323376
646.0347184682723 10680.038213531165
647.0285281216875 10405.392226001786
648.0220864340772 10236.31871000261
649.0153934826558 10029.239879241768
650.0084493446047 9907.629633405824
651.0012540970674 9828.230793626653
651.9938078171526 9587.641548840957
652.9861105819346 9509.214122291949
653.9781624684565 9553.8943056013
654.9699635537254 9290.740624531467
655.9615139147136 9303.230986949904
656.9528136283589 9123.383212050116
657.9438627715699 9197.490637043404
658.9346614212154 9043.493362984489
659.925209654135 8877.50798258603
660.9155075471263 8877.58733558327
661.9055551769616 8909.445161100542
662.895352620375 8989.547790002147
663.8848999540678 8836.552258303434
664.8741972547068 8632.437312672406
665.863244598926 8645.850671161747
666.8520420633213 8754.849293165524
667.8405897244611 8535.457709134014
668.8288876588758 8470.059452967029
669.8169359430613 8636.882337324827
670.8047346534822 8590.608956708124
671.7922838665672 8423.194301491949
672.7795836587156 8491.401953891906
673.766634106285 8667.077199474736
674.7534352856092 8408.474315395646
675.7399872729766 8405.433628080265
676.7262901446538 8475.233887454793
677.712343976862 8486.04912364146
678.6981488457986 8526.240791727696
679.6837048276229 8426.522606038123
680.6690119984596 8425.1855287126
681.6540704344043 8399.407483883127
682.6388802115107 8356.268584109112
683.6234414058108 8433.35186092986
684.6077540932874 8352.8331240566
685.591818349907 8421.367079647584
686.575634251587 8311.919266725014
687.5592018742263 8254.38740154172
688.5425212936734 8123.763386513133
689.5255925857564 8385.21958701972
690.5084158262707 8206.260333378374
691.4909910909646 8205.104520488321
692.4733184555644 8099.09068378664
693.4553979957618 8255.1057199339
694.4372297872123 8184.134258830728
695.4188139055404 8123.586311691062
696.4001504263324 7975.807844029065
697.3812394251509 8186.868925175606
698.3620809775111 8017.816338005103
699.3426751589104 8033.917049522099
700.3230220448004 8018.642836798515
701.3031217106054 8002.802070946091
702.2829742317172 8217.64649584368
703.2625796834873 7950.45702721254
704.2419381412474 7921.51190668139
705.22104968028 8085.336312992093
706.1999143758458 7995.80494956492
707.178532303169 8058.516050826465
708.1569035374378 8015.236759228303
709.1350281538107 8075.021143363284
710.1129062274158 8079.629552823794
711.0905378333373 8168.463209287787
712.0679230466376 8203.75147066911
713.0450619423427 8359.74682950379
714.0219545954424 8467.883077633052
714.9986010808989 8284.819241182677
715.9750014736292 8467.156904076865
716.9511558485392 8619.394005362814
717.9270642804786 8785.473132968084
718.9027268442787 8870.380563236256
719.8781436147328 8849.231389781702
720.8533146666014 8875.059829024636
721.828240074612 8901.840620491406
722.8029199134635 8901.087497337798
723.7773542578125 8767.15517366819
724.751543182294 8756.339336385323
725.7254867615029 8719.481251525616
726.6991850700015 8472.659657903738
727.6726381823228 8402.946029003033
728.6458461729599 8515.26355516315
729.6188091163858 8377.281056188165
730.5915270870246 8364.326699030844
731.5640001592856 8247.104784019748
732.536228407529 8319.039606645885
733.5082119060917 8269.885696829992
734.4799507292755 8250.254255451662
735.4514449513481 8227.56399128495
736.4226946465496 8337.31521604756
737.3936998890786 8365.607821157451
738.3644607531078 8205.251105223648
739.3349773127793 8248.417634376707
740.3052496421951 8295.498776436994
741.27527781543 8041.310838945528
742.2450619065221 8027.749232225628
743.2146019894826 8037.762877197574
744.183898138288 8023.733655461425
745.1529504268801 7966.708371554354
746.1217589291682 7805.396363143418
747.0903237190341 7840.007825442966
748.058644870318 7839.705780242273
749.0267224568397 7778.8577279210485
749.994556552374 7605.433916185643
750.9621472306771 7669.256383831695
751.9294945654583 7735.283617468274
752.8965986304011 7725.720095850447
753.8634594991636 7635.908175271868
754.8300772453586 7733.920366897692
755.7964519425768 7707.80169865531
756.762583664371 7906.161200182511
757.7284724842611 7798.422951485122
758.6941184757416 7708.459253394493
759.6595217122667 7758.270500638045
760.6246822672638 7768.402512534946
761.5896002141235 7643.872220764846
762.5542756262093 7740.059499630779
763.5187085768503 7760.610722144471
764.4828991393406 7651.0171314186955
765.4468473869474 7673.596963682267
766.4105533929032 7771.557098346042
767.3740172304078 7598.156199373419
768.3372389726283 7718.086754011575
769.3002186926988 7577.964978113811
770.2629564637282 7505.369388313316
771.2254523587872 7473.394093639855
772.1877064509154 7376.684838922117
773.1497188131179 7312.780459840136
774.1114895183728 7251.456669221899
775.0730186396268 7257.890084588062
776.0343062497905 7237.22953193253
776.9953524217381 7150.763763734601
777.9561572283274 7200.709060219975
778.9167207423689 7176.598411388584
779.8770430366476 7066.407758445428
780.8371241839159 7077.883661618393
781.7969642568951 7126.886247631575
782.7565633282757 7307.953437596829
783.7159214707099 7069.5349418802825
784.6750387568281 7189.2744018720605
785.6339152592227 7102.903159992866
786.5925510504512 7107.681290032762
787.5509462030477 7194.419425585664
788.5091007895098 7172.058083684608
789.4670148823006 7163.886654543411
790.4246885538596 7072.576650137618
791.3821218765861 7169.489295279951
792.3393149228505 7021.377514573619
793.2962677649975 7190.493939061766
794.2529804753303 7184.65164519348
795.20945312613 7158.309623667662
796.1656857896378 7101.289718048724
797.1216785380675 7059.371020059763
798.0774314435985 7232.879176214667
799.0329445783846 7392.616708393526
799.9882180145414 7433.735454015105
800.9432518241574 7360.090889587702
801.89804607929 7525.661115214074
802.852600851962 7650.224208027015
803.8069162141637 7602.468029958584
804.760992237856 7711.284705754614
805.714828994971 7845.939149406843
806.6684265574077 7858.005059206678
807.6217849970271 7801.687749236889
808.574904385674 7772.434148245896
809.527784795142 7888.479619070742
810.4804262972102 7882.056911435652
811.4328289636178 7617.495131447276
812.3849928660748 7560.153793742938
813.3369180762638 7540.945173266072
814.2886046658241 7583.415862966855
815.2400527063783 7330.79353206411
816.1912622695108 7289.999174303276
817.1422334267718 7288.734039971605
818.0929662496856 7123.726846269968
819.0434608097457 6964.096677510679
819.9937171784059 7019.94004676818
820.9437354271013 6811.230739717871
821.8935156272255 6955.629307204629
822.8430578501484 6815.415567559196
823.7923621672016 6632.350243946751
824.7414286496896 6736.606383515044
825.6902573688876 6705.027326734105
826.6388483960363 6626.960034938051
827.5872018023492 6503.556180699579
828.5353176590033 6694.556107600217
829.4831960371503 6546.933074142305
830.4308370079016 6544.754143581549
831.3782406423525 6591.455727273247
832.3254070115545 6611.8001511168795
833.2723361865319 6464.748903085972
834.2190282382799 6382.9634864299505
835.1654832377644 6460.80933913227
836.1117012559116 6470.830239442626
837.0576823636256 6579.779658098765
838.003426631778 6408.059085468214
838.9489341312074 6302.452190687737
839.8942049327197 6517.48400978081
840.8392391070975 6568.113111328397
841.7840367250865 6457.1398064618725
842.7285978573982 6329.195759782231
843.672922574724 6497.12948570777
844.6170109477152 6428.478622021999
845.560863046996 6429.271564303763
846.5044789431595 6349.030938817097
847.4478587067697 6392.620083376947
848.3910024083561 6586.4609186470025
849.333910118421 6410.306844224402
850.2765819074339 6299.015064794936
851.2190178458332 6498.566757910501
852.161218004032 6484.4927200809525
853.1031824524016 6475.6351231725575
854.0449112612987 6373.73575409578
854.9864045010327 6484.443402785409
855.9276622418947 6380.587673382213
856.8686845541379 6339.878927304319
857.8094715079915 6368.511038310012
858.7500231736467 6565.586464356781
859.690339621271 6428.03997553903
860.6304209209939 6463.929890510169
861.5702671429244 6399.186575433596
862.5098783571284 6463.862450691681
863.4492546336569 6574.074451034108
864.3883960425155 6454.985776203377
865.3273026536863 6425.031031396697
866.2659745371238 6438.635588989845
867.2044117627465 6672.932669960847
868.1426144004472 6555.0521983467015
869.0805825200823 6656.552155160573
870.0183161914847 6645.342762072159
870.9558154844526 6752.586779932955
871.8930804687552 6764.593827252252
872.8301112141307 6643.608499703334
873.7669077902865 6803.315157034796
874.7034702669062 6988.292948527145
875.6397987136315 6871.349958100666
876.5758932000863 6904.220870184511
877.5117537958522 7009.100803695626
878.4473805704911 6957.298914065535
879.3827735935283 6979.178687860518
880.3179329344603 7105.486773158383
881.2528586627541 7127.283409690343
882.1875508478479 7219.826590757746
883.1220095591489 7142.146567817986
884.0562348660296 7020.269579932368
884.9902268378391 7238.9073046462145
885.9239855438955 7055.736473451415
886.8575110534839 6909.875567911545
887.7908034358588 6997.385105019613
888.7238627602474 6977.8826688814315
889.6566890958475 6983.9508947868935
890.5892825118208 6731.256348837536
891.5216430773125 6785.633044813146
892.4537708614189 6838.605198482699
893.3856659332196 6658.700045212475
894.3173283617652 6569.51665614225
895.2487582160684 6547.549958213907
896.179955565116 6493.914692347449
897.110920477864 6455.742762734073
898.0416530232451 6354.746747478231
898.9721532701478 6302.3640873532
899.9024212874428 6441.486991493442
900.8324571439662 6239.070266315325
901.7622609085302 6254.45024183147
902.6918326499072 6099.008801194852
903.6211724368477 6259.062515512966
904.5502803380696 6250.075026547715
905.4791564222614 6307.188261210493
906.4078007580792 6117.777148437728
907.3362134141571 6080.66985283113
908.2643944590909 6201.362035342258
909.1923439614493 6067.119135282072
910.1200619897754 5980.78225265457
911.0475486125779 6191.775932365003
911.9748038983344 6059.253048173799
912.9018279155007 5953.962071711778
913.8286207324982 5863.57371304312
914.7551824177117 5981.173243552285
915.6815130395116 5950.2164960213095
916.6076126662283 5874.279419376128
917.533481366163 5874.256426438978
918.4591192075914 5948.936154181827
919.3845262587565 6012.089236861012
920.3097025878706 5789.213726702678
921.2346482631237 5833.976859755168
922.1593633526682 5882.45022172663
923.0838479246304 5935.951622320861
924.0081020471061 5932.663612323262
924.9321257881656 5789.995089294573
925.8559192158464 5839.167344641522
926.7794823981512 5757.529000504621
927.7028154030686 5735.722179080012
928.6259182985414 5700.106604923521
929.5487911524906 5866.321856574077
930.4714340328119 5912.410317499416
931.3938470073608 5661.122163812445
932.3160301439748 5742.73972666232
933.2379835104548 5765.4639502991495
934.1597071745709 5827.520593928386
935.0812012040769 5799.673133198134
936.002465666681 5810.754571973266
936.9235006300696 5809.493928117555
937.8443061619055 5814.954437769672
938.7648823298077 5688.6864761141405
939.6852292013809 5670.970910979098
940.6053468441951 5796.997884483148
941.5252353257874 5663.277149847492
942.4448947136698 5653.765010598869
943.364325075323 5681.164826760769
944.2835264782043 5701.184692675417
945.2024989897309 5700.236579191643
946.1212426773054 5680.592555256411
947.0397576082851 5741.2598619606815
947.9580438500125 5883.189701097404
948.8761014697939 5800.120803953708
949.7939305349064 5755.7488148589855
950.7115311125999 5620.8764760284375
951.6289032700952 5592.836721205708
952.5460470745875 5810.191329775921
953.4629625932339 5688.725645387052
954.3796498931715 5720.0947317949085
955.2961090415029 5754.013211116343
956.2123401053068 5698.780268951511
957.1283431516276 5708.529273626746
958.0441182474842 5581.927959157296
958.9596654598663 5787.619854337586
959.8749848557309 5626.704081536187
960.7900765020167 5588.149007118539
961.7049404656209 5587.534150546714
962.6195768134185 5654.1173584749895
963.5339856122537 5743.346933292493
964.4481669289453 5651.378085126458
965.3621208302793 5633.858226097086
966.2758473830145 5536.030210726615
967.1893466538822 5718.72094902625
968.1026187095813 5607.685806616144
969.0156636167867 5560.034034102662
969.9284814421426 5693.565552920709
970.8410722522622 5636.603809500081
971.753436113735 5618.439900534755
972.6655730931161 5606.548669956699
973.5774832569368 5699.014870151357
974.4891666716958 5567.420768098296
975.4006234038698 5520.2907442403975
976.3118535198955 5559.544036376297
977.2228570861935 5676.9619489953675
978.1336341691494 5736.781354081087
979.0441848351202 5551.343279802478
979.9545091504333 5651.1920210288545
980.864607181391 5645.563769213281
981.7744789942699 5648.731460496634
982.6841246553086 5574.945267169805
983.5935442307236 5705.49832917717
984.5027377867027 5740.143420511771
985.4117053894024 5705.089804963962
986.3204471049557 5612.530114987179
987.2289629994648 5729.874105511351
988.1372531390007 5849.620152557325
989.0453175896091 5766.757256244906
989.9531564173067 5745.475831368872
990.860769688079 5600.731880408009
991.7681574678918 5754.697387205715
992.6753198226706 5775.689118673981
993.582256818323 5730.77179315022
994.4889685207218 5736.665221095407
995.3954549957143 6024.0486414224615
996.301716309119 5932.649670262952
997.2077525267232 5829.9830436076945
998.1135637142943 5850.171026984857
999.0191499375615 6026.440168445408
999.924511262232 6037.507303685101
1000.8296477539861 5965.255869601478
1001.7345594784656 5917.676114785536
1002.6392465012996 5880.903032646804
1003.5437088880753 5994.972222314928
1004.4479467043584 6006.363654801224
1005.3519600156869 5804.301682297011
1006.2557488875718 5883.9671622969945
1007.1593133854858 5983.487194265073
1008.0626535748888 5848.8270381898
1008.9657695212009 5766.809414983278
1009.8686612898182 6018.038994051591
1010.7713289461135 5989.9937403083195
1011.6737725554212 5855.711941537951
1012.5759921830577 5803.270617887022
1013.4779878943027 5864.999390132374
1014.379759754418 5905.087812155903
1015.2813078286254 5743.959624023594
1016.18263218213 5655.105525998692
1017.0837328801026 5716.770051210622
1017.9846099876886 5768.395717692429
1018.8852635700023 5641.562705288721
1019.7856936921362 5477.653041327793
1020.6859004191447 5718.342305825464
1021.5858838160675 5597.9037242186205
1022.4856439479063 5498.81804472423
1023.3851808796389 5414.11837061234
1024.2844946762143 5556.205348563364
1025.183585402554 5565.521200340089
1026.082453123554 5307.99077859039
1026.9810979040776 5444.857640296297
1027.8795198089647 5422.065160101253
1028.777718903024 5424.8406413919565
1029.6756952510368 5316.852249022527
1030.5734489177648 5333.229368253984
1031.4709799679313 5298.395617367097
1032.3682884662358 5465.5235093545525
1033.2653744773506 5166.544831861216
1034.1622380659192 5197.379198264729
1035.058879296559 5327.539776173682
1035.9552982338591 5411.152997329343
1036.8514949423825 5319.260776838777
1037.7474694866614 5290.213010312719
1038.6432219312028 5172.7430612499165
1039.5387523404825 5380.430244268564
1040.4340607789582 5282.8409359285515
1041.3291473110476 5267.630984562309
1042.2240120011465 5422.725489045957
1043.1186549136273 5366.0744901941625
1044.0130761128294 5359.515839328378
1044.9072756630649 5343.530447684936
1045.8012536286205 5426.056639310731
1046.6950100737577 5440.821262858671
1047.588545062701 5471.2939126245055
1048.481858659663 5457.550559331489
1049.3749509288118 5532.525259208573
1050.2678219343034 5410.904761336656
1051.1604717402515 5413.871192341326
1052.0529004107575 5368.0581106763275
1052.9451080098825 5485.906293331229
1053.8370946016694 5511.671616217931
1054.7288602501267 5485.478849238769
1055.6204050192446 5476.7850175247
1056.511728972977 5606.86771769646
1057.402832175254 5541.956431089264
1058.2937146899785 5445.071186182079
1059.1843765810263 5468.904724319019
1060.0748179122456 5595.9727368294525
1060.9650387474576 5464.263130275337
1061.855039150456 5521.645548256195
1062.7448191850071 5533.779961657573
1063.6343789148505 5577.958171369712
1064.5237184037014 5733.488700560411
1065.412837715241 5550.580029958535
1066.3017369131267 5584.462503629965
1067.190416060992 5528.5276471758425
1068.0788752224398 5460.603596850201
1068.9671144610438 5415.662501279298
1069.8551338403558 5523.744428612245
1070.7429334239023 5597.807799844943
1071.6305132751695 5394.783597309572
1072.517873457633 5541.105115652665
1073.4050140347335 5402.955695017348
1074.2919350698776 5435.051090970544
1075.1786366264623 5436.333279673512
1076.0651187678395 5348.8064832515765
1076.95138155735 5283.881820129618
1077.8374250582929 5338.834632812583
1078.7232493339507 5363.230228749413
1079.608854447577 5320.0536306292
1080.4942404623907 5209.586881651092
1081.3794074415982 5285.21858851609
1082.2643554483657 5279.968386495212
1083.149084545841 5183.101712802025
1084.033594797138 5131.5356184762695
1084.9178862653516 5107.714353437679
1085.8019590135427 5266.251501385088
1086.6858131047484 5054.399325855211
1087.5694486019802 5187.140058699775
1088.4528655682225 5122.64350306801
1089.3360640664287 5321.766953269305
1090.2190441595321 5173.394411515149
1091.1018059104317 5133.238951209936
1091.98434938201 5224.377874770607
1092.866674637111 5282.581458513879
1093.748781738559 5118.356025918789
1094.6306707491512 5057.337865731967
1095.5123417316554 5201.185184781099
1096.3937947488157 5148.149101635272
1097.2750298633455 4981.184012722591
1098.156047137938 5004.534545353812
1099.0368466352556 5112.623629638676
1099.9174284179317 5261.28358913992
1100.7977925485757 4931.141598079975
1101.6779390897755 5025.839224556056
1102.5578681040806 5075.43984906827
1103.4375796540226 5086.483193091421
1104.3170738021054 4967.509858851043
1105.1963506108077 4914.839280554233
1106.0754101425773 4987.844966551321
1106.9542524598382 5090.164017053028
1107.8328776249855 5011.273013792336
1108.7112857003904 4982.703761690002
1109.5894767483987 4971.739500038781
1110.4674508313292 5160.858229822821
1111.3452080114657 5034.737114063385
1112.2227483510815 5191.133511708888
1113.1000719124077 5216.224161794644
1113.9771787576592 5344.058478356361
1114.854068949022 5228.6637638711945
1115.7307425486542 5298.419373538838
1116.6071996186893 5465.262338258889
1117.483440221229 5688.546002690338
1118.3594644183577 5409.501834676123
1119.235272272128 5502.7272856913405
1120.1108638445658 5658.109615436084
1120.9862391976712 5909.755821477446
1121.8613983934229 5758.212924394075
1122.7363414937627 5910.035321103153
1123.6110685606182 5950.396089424737
1124.485579655884 6150.545811637035
1125.359874841426 6043.139918086976
1126.2339541790916 6126.64657421419
1127.1078177306936 6395.959139854021
1127.9814655580267 6238.471200493646
1128.854897722851 6256.757260598967
1129.7281142869106 6221.990546644252
1130.6011153119125 6325.676752578589
1131.473900859548 6463.226369441582
1132.3464709914697 6321.159969293118
1133.2188257693178 6278.106495375537
1134.0909652546961 6205.122059476233
1134.96288950919 6099.330212500941
1135.8345985943506 6221.0957263022
1136.7060925717087 5986.461768691088
1137.57737150277 6079.603815622072
1138.4484354490069 6119.661151250487
1139.3192844718778 5831.676484903837
1140.1899186327992 5668.955577245094
1141.060337993178 5903.530112655962
1141.930542614382 5750.366465660214
1142.8005325577597 5505.829808967026
1143.670307884635 5334.807143632429
1144.5398686563003 5500.090883490164
1145.409214934025 5388.793593547822
1146.2783467790541 5132.996939337003
1147.1472642526023 5206.014511393628
1148.0159674158622 5284.412425219628
1148.8844563300026 5053.505932378232
1149.7527310561618 4988.000212980496
1150.6207916554504 4915.70845869931
1151.4886381889592 4809.936548804588
1152.3562707177498 5088.4668016714595
1153.2236893028585 4770.846588773073
1154.090894005296 4659.627194639976
1154.9578848860474 4847.4076292282425
1155.8246620060709 4704.351977730928
1156.6912254262988 4609.116590433994
1157.5575752076438 4644.754098142924
1158.42371141098 4803.047562471505
1159.2896340971656 4801.151315756836
1160.1553433270346 4650.796224289172
1161.0208391613887 4752.409128619266
1161.8861216610057 4739.2813255712545
1162.75119088664 4654.278344697277
1163.6160468990201 4646.766410272607
1164.4806897588442 4573.193414187801
1165.3451195267917 4772.798454254602
1166.2093362635114 4687.4991677153475
1167.0733400296285 4646.226180223219
1167.9371308857444 4606.505769248979
1168.8007088924278 4561.388086180694
1169.6640741102328 4671.679651491889
1170.5272265996773 4598.091078664287
1171.390166421259 4450.508615169469
1172.252893635452 4600.979577043577
1173.1154083026995 4739.6474165390855
1173.977710483421 4686.091686689092
1174.8398002380145 4479.271754344719
1175.7016776268483 4689.023157166945
1176.563342710264 4567.695762215311
1177.4247955485826 4642.237787025495
1178.2860362020947 4679.626633092708
1179.147064731069 4492.375032650306
1180.0078811957483 4748.556447305121
1180.8684856563486 4601.939722056124
1181.7288781730604 4744.153583399859
1182.589058806052 4801.912175754842
1183.4490276154593 4975.391448963277
1184.3087846614017 4739.928040494275
1185.1683300039676 4785.200362444199
1186.027663703222 4991.1565344452665
1186.8867858192025 4900.911873765972
1187.7456964119228 4933.52798650956
1188.6043955413716 4954.106639257914
1189.4628832675116 5156.125024602314
1190.3211596502842 5219.277375021069
1191.179224749596 5174.959866506426
1192.0370786253388 5001.086544853633
1192.8947213373758 5294.27124618299
1193.7521529455407 5375.196953822766
1194.6093735096438 5164.765217455239
1195.466383089477 5220.999183338213
1196.3231817447977 5314.604926947706
1197.1797695353398 5558.639603751324
1198.0361465208189 5231.910796363514
1198.8923127609214 5204.003216439169
1199.7482683153048 5357.356109622566
1200.6040132436028 5570.0658790768275
1201.459547605431 5274.1857582747125
1202.3148714603722 5346.93442559492
1203.1699848679855 5294.88183721876
1204.0248878878065 5394.79748040652
1204.8795805793507 5183.935644100264
1205.7340630020935 5276.342715582778
1206.5883352155033 5355.714212332816
1207.4423972790064 5317.667792692189
1208.2962492520237 5081.054072779467
1209.1498911939307 5112.198143525134
1210.0033231640937 5192.370918450789
1210.8565452218427 5106.089198990935
1211.7095574264913 4817.046183550881
1212.5623598373222 4934.766123841168
1213.4149525135963 4868.735988196243
1214.2673355145507 4923.413997522319
1215.1195088993936 4752.568880138871
1215.9714727273113 4779.168918624377
1216.8232270574663 4978.605234003383
1217.6747719489904 4562.091294241948
1218.5261074609934 4717.426628017634
1219.3772336525653 4836.01561996532
1220.2281505827668 4796.126579126052
1221.0788583106296 4826.858781111372
1221.9293568951707 4571.005913847457
1222.7796463953746 4498.870588732405
1223.629726870202 4670.490644841993
1224.4795983785934 4779.341565484169
1225.3292609794553 4680.530748577551
1226.1787147316809 4516.293871664395
1227.0279596941327 4617.70080701401
1227.8769959256424 4526.637008773689
1228.7258234850306 4630.174958975984
1229.5744424310833 4391.10411448358
1230.422852822563 4598.651361207416
1231.2710547182105 4692.739221351306
1232.119048176739 4528.984570571049
1232.9668332568417 4386.373689718641
1233.8144100171812 4648.488962919291
1234.6617785163999 4593.718907919766
1235.508938813111 4402.440082491241
1236.3558909659114 4405.055056919732
1237.2026350333617 4677.377033159781
1238.049171074008 4737.566898006605
1238.8954991463652 4371.305239879477
1239.741619308932 4517.782401109735
1240.587531620169 4611.703886901393
1241.4332361385277 4704.636541285224
1242.2787329224248 4520.771547908396
1243.1240220302534 4406.632383067392
1243.9691035203869 4410.074972112105
1244.813977451171 4712.364646442806
1245.6586438809263 4524.853965732123
1246.5031028679496 4325.369635471944
1247.3473544705157 4610.789576889559
1248.1913987468706 4552.856588517965
1249.0352357552383 4340.47788298341
1249.8788655538228 4406.264789208306
1250.7222882007918 4547.833756963666
1251.565503754302 4632.9932026123615
1252.4085122724755 4300.963703930547
1253.2513138134182 4624.621415366202
1254.0939084352049 4530.487234997616
1254.9362961958905 4481.6765609040285
1255.7784771535007 4452.376743542668
1256.6204513660432 4570.546681562378
1257.4622188915 4741.189315527653
1258.3037797878242 4503.102216772413
1259.1451341129468 4388.216266503752
1259.9862819247755 4587.859897317985
1260.8272232811978 4526.584559219175
1261.6679582400666 4716.5750404118535
1262.5084868592203 4351.91731386779
1263.34880919647 4359.18486553144
1264.1889253095997 4496.959358003744
1265.0288352563712 4652.665314484963
1265.8685390945266 4563.90083189259
1266.7080368817751 4599.9522191355245
1267.5473286758115 4709.33218382366
1268.386414534294 4618.9880153928225
1269.2252945148703 4291.037280261195
1270.0639686751547 4420.47224151054
1270.9024370727402 4405.288987269131
1271.7406997651997 4414.672485618375
1272.5787568100714 4298.925345285405
1273.4166082648808 4385.2419147274695
1274.2542541871244 4373.54268373056
1275.091694634275 4714.327847034864
1275.9289296637817 4253.9365807289705
1276.7659593330663 4517.0599024988405
1277.6027836995308 4433.356623656972
1278.4394028205552 4553.457694978813
1279.2758167534867 4353.920374040165
1280.112025555658 4370.136733239788
1280.9480292843746 4421.260699518856
1281.7838279969128 4240.739770717883
1282.6194217505326 4299.082313879354
1283.4548106024686 4227.601439600142
1284.289994609926 4259.760706611337
1285.1249738300921 4382.711370489784
1285.959748320127 4288.801704975978
1286.7943181371702 4300.296094530374
1287.6286833383328 4332.410682809449
1288.4628439807038 4345.528067797312
1289.2968001213521 4228.343809317377
1290.1305518173194 4441.91449399096
1290.9640991256183 4333.321520258085
1291.7974421032523 4192.022251306122
1292.630580807183 4247.119825365479
1293.463515294361 4372.663574915203
1294.29624562171 4523.5358567521735
1295.12877184613 4291.4716822281
1295.961094024493 4280.120685462085
1296.79321221365 4373.487157323832
1297.6251264704333 4431.91265920639
1298.4568368516466 4667.648909460509
1299.2883434140658 4536.702299679844
1300.1196462144526 4303.8621232303285
1300.9507453095375 4550.132244984426
1301.7816407560313 4558.408390875886
1302.6123326106172 4454.825985300392
1303.4428209299622 4329.653196971014
1304.2731057707024 4703.0146551506505
1305.1031871894502 4390.273122597649
1305.933065242798 4615.054999633629
1306.7627399873181 4426.942829342098
1307.5922114795467 4949.603259243758
1308.4214797760123 5009.06036446019
1309.2505449332057 4608.056235492336
1310.0794070076026 4685.624056414191
1310.9080660556538 4775.232742982448
1311.736522133786 4955.246853823379
1312.5647752983987 4654.913256280164
1313.3928256058734 4499.901689789193
1314.2206731125661 4748.2921548038075
1315.048317874809 4776.891048587054
1315.8757599489109 4704.734313820043
1316.7029993911547 4736.398212771907
1317.5300362578055 4849.420055986302
1318.356870605101 4662.587776071805
1319.183502489257 4624.185157199348
1320.0099319664623 4837.278056214045
1320.836159092889 4822.474634143691
1321.66218392468 4906.613288166538
1322.4880065179532 4656.272222787016
1323.3136269288134 4792.483984986291
1324.1390452133292 4859.9435588127435
1324.9642614275563 4986.087652006135
1325.7892756275214 4767.782310632852
1326.6140878692295 4743.67472865269
1327.4386982086617 5286.584397970185
1328.2631067017755 4902.148385584174
1329.0873134045069 4915.866598775523
1329.911318372764 4762.138955416874
1330.735121662441 4823.868491183735
1331.558723329399 4750.800024537249
1332.3821234294774 4774.286512266084
1333.2053220185007 4781.286534068274
1334.0283191522612 4750.795716020407
1334.851114886529 4821.397208223876
1335.6737092770582 4655.898653987558
1336.4961023795695 4725.146774366962
1337.3182942497697 4618.234975650572
1338.1402849433325 4659.51279634954
1338.962074515921 4549.582571634536
1339.7836630231632 4510.7149179999915
1340.6050505206676 4922.643106576628
1341.426237064028 4840.771057180804
1342.2472227088037 4599.689296792386
1343.0680075105338 4463.177523857387
1343.888591524741 4657.037610735621
1344.7089748069138 4764.201138869527
1345.5291574125276 4650.2650430807835
1346.3491393970307 4461.986053381669
1347.168920815846 4626.29536923424
1347.9885017243778 4752.904661555075
1348.8078821780036 4555.327821979825
1349.6270622320844 4625.7766998925235
1350.4460419419447 4493.273114745427
1351.2648213629054 4676.708768364884
1352.0834005502438 4388.141867502961
1352.90177955923 4380.881736885498
1353.7199584451064 4658.177041700626
1354.5379372630887 4700.38914331007
1355.355716068374 4523.2217346013185
1356.1732949161305 4377.3168566863
1356.9906738615155 4591.624223572869
1357.8078529596478 4486.717620561483
1358.6248322656375 4646.202489388183
1359.441611834567 4526.726123226247
1360.2581917214866 4700.973053722086
1361.0745719814367 4514.621646116556
1361.890752669433 4428.499014911873
1362.7067338404577 4466.565500973354
1363.5225155494845 4681.920713253105
1364.3380978514506 4744.874480582441
1365.1534808012839 4338.8322225239635
1365.9686644538815 4141.504213760234
1366.783648864117 4664.002937014239
1367.5984340868417 4608.428595500085
1368.413020176893 4563.761262660767
1369.2274071890715 4287.405212167763
1370.0415951781652 4679.818426038588
1370.8555841989346 4413.937820947465
1371.6693743061223 4281.043028249949
1372.48296555444 4277.7013766153905
1373.2963579985844 4514.962588451317
1374.1095516932255 4448.742849348454
1374.9225466930166 4111.620608115837
1375.7353430525782 4435.054656108868
1376.5479408265164 4281.7576356685695
1377.36034006941 4456.218825320548
1378.1725408358216 4431.07507544981
1378.9845431802805 4265.299453643862
1379.796347157304 4708.678109142346
1380.6079528213813 4520.920068490997
1381.4193602269788 4216.69780300726
1382.230569428546 4254.032747125161
1383.0415804805016 4527.36453913404
1383.852393437246 4512.32143723694
1384.6630083531563 4330.830245119189
1385.4734252825892 4289.838440433046
1386.2836442798798 4352.495129302622
1387.0936653993322 4409.229826084204
1387.9034886952395 4259.314092322062
1388.713114221864 4454.77876289333
1389.5225420334482 4377.270796865048
1390.331772184214 4327.626464531787
1391.1408047283585 4035.2542912501362
1391.9496397200564 4290.0257413777
1392.758277213461 4347.9985598891635
1393.5667172627054 4488.542784376099
1394.3749599218918 4251.613131459694
1395.1830052451114 4177.580475404665
1395.9908532864265 4223.416555752768
1396.7985040998774 4492.530430413278
1397.6059577394808 4173.936917858054
1398.4132142592352 4211.688170744931
1399.2202737131156 4272.293399562192
1400.027136155073 4395.406059010925
1400.8338016390353 4218.799836611173
1401.6402702189134 4300.942875561361
1402.446541948586 4362.490400762115
1403.2526168819204 4137.971355652149
1404.058495072757 4252.527102178412
1404.8641765749107 4258.267885274037
1405.6696614421799 4319.160640025492
1406.4749497283356 4634.132919460853
1407.280041487129 4167.391755983323
1408.084936772295 3982.4516949103586
1408.8896356375335 4310.796503802446
1409.6941381365323 4211.89290758763
1410.498444322955 4069.5570312849304
1411.3025542504402 4171.997809604938
1412.106467972606 4228.10110602122
1412.9101855430508 4159.7718644721
1413.7137070153458 3945.1715753720587
1414.5170324430437 4050.9220325186857
1415.320161879672 4231.727547440856
1416.1230953787435 4338.338559499383
1416.925832993742 3954.4408304402104
1417.7283747781275 3933.631318030542
1418.5307207853439 4137.088300358683
1419.3328710688093 4092.448292885479
1420.134825681922 3698.414196151361
1420.9365846780584 3873.545634439859
1421.7381481105713 4120.215204944423
1422.539516032788 4012.79760583112
1423.3406884980232 3807.518230683722
1424.1416655595604 3864.588588447542
1424.942447270665 3833.25160429621
1425.7430336845828 4019.3381071488884
1426.5434248545298 3802.6286512630336
1427.3436208337116 3944.209920913016
1428.143621675301 3943.3387484168657
1428.9434274324558 4128.946955313166
1429.7430381583108 3715.5408039880567
1430.5424539059713 3809.832436293463
1431.3416747285337 4294.333230853347
1432.1407006790632 3940.082801999148
1432.9395318106053 3879.01408088446
1433.7381681761835 3765.349398551409
1434.5366098288014 3975.8226643554676
1435.3348568214424 4119.37762790377
1436.1329092070573 3798.2986400353743
1436.9307670385879 3906.092484712584
1437.7284303689503 4021.9957049149575
1438.5258992510335 4091.665520564545
1439.3231737377118 3927.7388802039764
1440.1202538818306 3848.8571248050744
1440.9171397362225 3879.1878788731565
1441.7138313536925 3851.6264098382553
1442.5103287870243 3679.2723287946815
1443.3066320889775 3661.780914771899
1444.1027413122956 3946.4674679722157
1444.8986565096966 3769.4558702758286
1445.694377733882 3749.9482455482407
1446.4899050375207 3678.0488989205523
1447.2852384732687 3723.4295306413383
1448.0803780937622 3926.052000418972
1448.8753239516063 3686.273392205566
1449.6700760993954 3525.3271102407607
1450.464634589689 3752.6015598778263
1451.2589994750397 3979.5633656237464
1452.0531708079689 3589.8863882152373
1452.8471486409799 3549.2314251309363
1453.6409330265524 4017.7283126411116
1454.4345240171442 3687.7613637030895
1455.2279216651987 3564.3091677249818
1456.0211260231263 3614.8630723720003
1456.8141371433194 3693.3254786342904
1457.6069550781594 3861.1824349687695
1458.3995798799897 3523.0994259263935
1459.1920116011424 3535.053190456256
1459.98425029393 3479.6527984526483
1460.7762960106338 3464.811198016804
1461.5681488035225 3641.82544383006
1462.3598087248392 3600.743331302121
1463.1512758268036 3925.886777094051
1463.942550161617 3503.649671063773
1464.7336317814625 3459.332134148556
1465.524520738496 3570.778827376492
1466.3152170848552 3548.060902133481
1467.1057208726506 3603.020120376236
1467.8960321539817 3500.6895205129294
1468.6861509809169 3375.8701367529657
1469.4760774055085 3554.5943003366933
1470.265811479785 3476.756504138736
1471.055353255755 3399.2656718315607
1471.844702785409 3461.7359079128464
1472.6338601207044 3272.043184153611
1473.4228253135934 3674.9671319936774
1474.2115984159936 3340.4756760350915
1475.0001794798063 3159.758704455426
1475.7885685569145 3575.717909371331
1476.576765699172 3421.195198043241
1477.3647709584238 3383.6711745244547
1478.1525843864802 3641.206858894234
1478.9402060351367 3608.9010534801105
1479.7276359561693 3553.3393019730856
1480.514874201328 3351.131354854916
1481.3019208223468 3279.049762409838
1482.0887758709323 3204.4461289530195
1482.8754393987747 3589.6297552092315
1483.6619114575406 3246.0073880726313
1484.4481920988783 3298.5673110249472
1485.2342813744108 3474.429249524174
1486.0201793357446 3641.1161131493836
1486.8058860344572 3346.952577533757
1487.591401522117 3280.868475235876
1488.3767258502594 3374.422859867841
1489.1618590704056 3425.3771332556776
1489.9468012340494 3154.9011278676576
1490.7315523926754 3543.568541725118
1491.5161125977356 3622.656616974029
1492.3004819006637 3574.9355705395938
1493.084660352877 3329.8526137840936
1493.8686480057622 3562.5690023565794
1494.6524449106964 3793.1293287706694
1495.4360511190262 3632.367461760253
1496.219466682087 3503.075251482123
1497.0026916511779 3483.579372113454
1497.7857260775945 3560.9224315884867
1498.5685700125996 3717.914529087353
1499.3512235074395 3289.0607179515173
1500.133686613337 3330.516143772118
1500.9159593814966 3475.7675145423927
1501.698041863101 3945.7396527237192
1502.4799341093094 3237.2945828941142
1503.2616361712662 3281.103267579402
1504.043148100087 3563.1998294767677
1504.8244699468742 3586.7074058434023
1505.6056017626997 3282.3403222470893
1506.3865435986281 3262.0479365368174
1507.1672955056893 3522.9985165836115
1507.9478575348967 3319.540170799411
1508.7282297372512 3553.9667153503515
1509.5084121637192 3419.5989850435785
1510.2884048652577 3447.113080187667
1511.0682078927948 3360.970081844026
1511.8478212972423 3318.617558586501
1512.6272451294917 3344.4271563395296
1513.4064794404076 3432.4798979229017
1514.1855242808433 3591.4365938246447
1514.9643797016215 3355.1452122853616
1515.743045753552 3497.543017348121
1516.5215224874191 3524.5166357397566
1517.2998099539836 3137.734688721569
1518.077908203999 3440.8635046484223
1518.8558172881785 3366.7534240337977
1519.633537257234 3503.1799003567103
1520.4110681618404 3544.794296111947
1521.1884100526604 3429.045504519225
1521.9655629803365 3354.1338616024245
1522.7425269954856 3561.718728578454
1523.5193021487103 3738.9768055295062
1524.2958884905856 3305.002554605419
1525.0722860716687 3395.7467690186413
1525.848494942502 3260.776332540316
1526.624515153595 3435.6218772164175
1527.4003467554485 3315.139074913838
1528.175989798534 3536.3256088133007
1528.9514443333064 3453.2242470517435
1529.726710410203 3687.6627196670765
1530.5017880796331 3277.32825663931
1531.276677391992 3382.3985084040987
1532.0513783976457 3646.07737298071
1532.825891146953 3495.8082189341512
1533.6002156902414 3528.102606091562
1534.3743520778207 3345.9650753928954
1535.1483003599806 3510.512032545779
1535.9220605869923 3508.2965053181783
1536.6956328091019 3525.4235460052323
1537.4690170765407 3431.885893761309
1538.242213439511 3708.5598247211374
1539.015221948208 3513.00994950859
1539.78804265279 3412.864237366356
1540.560675603405 3342.381226338911
1541.3331208501804 3738.2022506537623
1542.1053784432224 3688.0874505067595
1542.8774484326168 3513.7344801137015
1543.649330868422 3596.452534626848
1544.4210258006842 3529.5295301773886
1545.1925332794308 3563.7238287059095
1545.9638533546604 3508.221878188762
1546.7349860763552 3443.514128921678
1547.5059314944829 3878.8762511612194
1548.27668965898 3515.510618102174
1549.0472606197673 3599.138664891125
1549.817644426752 3445.7636100626805
1550.5878411298072 3690.88010326418
1551.3578507787988 3649.701788000371
1552.1276734235635 3403.902065636144
1552.8973091139233 3585.9194607952495
1553.6667578996767 3846.4525762667954
1554.436019830604 3472.6732292927104
1555.20509495646 3501.704510776508
1555.9739833269869 3462.3626380917412
1556.7426849919011 3559.3830848435
1557.511200000903 3932.9311818874494
1558.2795284036674 3633.978359187792
1559.0476702498509 3437.8191722968904
1559.8156255890954 3816.051536805016
1560.5833944710157 3941.6554962963273
1561.3509769452048 3518.3043280854
1562.1183730612447 3574.5262424437433
1562.8855828686865 3580.265659987558
1563.6526064170703 3825.104657643233
1564.4194437559127 3811.21305524915
1565.1860949347047 3589.3695811399384
1565.9525600029283 3989.9389042863672
1566.7188390100328 4045.91800006442
1567.4849320054564 3605.0559259762713
1568.250839038612 3543.727016765136
1569.0165601588997 3623.151083307714
1569.7820954156887 3834.0556303288404
1570.5474448583373 3623.708447537272
1571.31260853618 3578.1188929070363
1572.0775864985299 3416.6414819875827
1572.8423787946813 3672.1134841213498
1573.6069854739108 3640.1796549141486
1574.371406585471 3640.7125831947874
1575.1356421785986 3675.1628333741583
1575.899692302506 3513.03255954915
1576.6635570063845 3650.4048635589133
1577.4272363394157 3586.3683271383356
1578.190730350747 3534.0539184255017
1578.9540390895163 3682.957770029664
1579.7171626048384 3259.276445060592
1580.480100945806 3377.863973921068
1581.2428541614918 3515.2442996760387
1582.0054223009538 3611.3338007677244
1582.767805413223 3518.42807043763
1583.5300035473156 3650.4160526045716
1584.292016752228 3728.007903818171
1585.0538450769309 3605.9495316460634
1585.8154885703807 3363.221594183318
1586.5769472815136 3311.477719741979
1587.3382212592405 3549.429105089771
1588.099310552463 3677.5706784048116
1588.8602152100484 3548.0316044231017
1589.6209352808564 3577.266101453102
1590.3814708137234 3584.228540699136
1591.14182185746 3848.2928871947515
1591.9019884608679 3488.914817831009
1592.6619706727215 3325.2426053606164
1593.4217685417734 3555.9638228076483
1594.1813821167616 3742.7644327997064
1594.9408114464022 3336.0871559250677
1595.7000565793933 3441.0897787527415
1596.459117564409 3665.1077871963776
1597.2179944501113 3418.912762951033
1597.9766872851324 3408.5903740061076
1598.735196118092 3600.8942471277646
1599.4935209975883 3584.403556992724
1600.2516619721973 3697.9963844196072
1601.0096190904787 3399.3404811627283
1601.7673924009723 3446.151774781346
1602.524981952196 3434.5496363656885
1603.2823877926476 3522.5769679407194
1604.0396099708087 3364.2886707615953
1604.7966485351371 3310.147014493536
1605.5535035340745 3375.741956614888
1606.3101750160404 3638.047408880414
1607.0666630294363 3294.594208277492
1607.822967622642 3302.564192148776
1608.5790888440224 3490.8472349602052
1609.3350267419137 3679.1793996881993
1610.0907813646445 3470.8700411718105
1610.8463527605145 3426.09563993471
1611.601740977805 3531.723247260811
1612.356946064785 3460.5487734072676
1613.1119680696902 3209.8189972417676
1613.8668070407512 3261.788255589952
1614.6214630261748 3306.4738389509744
1615.375936074137 3644.187566196346
1616.1302262328118 3392.566974240731
1616.8843335503425 3460.022659793398
1617.638258074854 3311.9862032319024
1618.391999854457 3506.1159374588046
1619.1455589372363 3493.5916315456584
1619.8989353712623 3381.838056132051
1620.65212920458 3153.428827665127
1621.4051404852235 3300.324595593189
1622.1579692611976 3420.9708346919906
1622.9106155804966 3161.8838774944516
1623.663079491087 3268.5928107937407
1624.4153610409248 3427.643065522044
1625.1674602779385 3237.4586503595892
1625.9193772500403 3294.798220903627
1626.6711120051277 3668.565652322942
1627.4226645910676 3371.522133963122
1628.174035055721 3139.349639499841
1628.9252234469168 3362.822637712671
1629.676229812474 3265.5349710402525
1630.4270542001905 3740.8872461398046
1631.1776966578382 3343.017520573793
1631.9281572331747 3262.854848887231
1632.678435973945 3536.3391507150213
1633.4285329278573 3385.823775388897
1634.1784481426203 3175.2576203267695
1634.9281816659113 3296.8896611314603
1635.677733545388 3544.1452971120475
1636.4271038286934 3372.7700291239125
1637.176292563452 3518.766625011296
1637.9252997972635 3400.653390157022
1638.674125577716 3529.502247197883
1639.4227699523672 3835.4940382442096
1640.171232968767 3249.8754477832217
1640.9195146744423 3487.8458120570053
1641.6676151168977 3545.615752449116
1642.4155343436178 3747.6702584626155
1643.1632724020765 3520.4145869384724
1643.9108293397167 3496.9109311365364
1644.658205203974 3386.1622383455265
1645.4054000422566 4058.0647898988477
1646.1524139019566 3524.009859573694
1646.8992468304423 3225.26930533392
1647.6458988750728 3437.0172238031314
1648.3923700831765 3568.9029628641847
1649.1386605020743 3479.3495140284103
1649.8847701790564 3777.055115630524
1650.6306991614038 3663.245520411423
1651.3764474963682 3688.7371899186487
1652.1220152311944 3386.2285561343765
1652.867402413096 3701.1545627579117
1653.6126090892776 3586.563979432205
1654.3576353069184 3805.2576636968834
1655.1024811131829 3633.037034056402
1655.8471465552066 3582.3983966404617
1656.5916316801213 3685.800265930279
1657.3359365350298 3742.9281487964413
1658.0800611670165 3574.2145505558465
1658.824005623148 3597.611221465753
1659.5677699504722 3448.327365430499
1660.3113541960192 3683.6268867146964
1661.054758406799 3520.8439689037505
1661.7979826297997 3429.944026503831
1662.5410269119966 3413.991441446638
1663.283891300338 3632.497178970573
1664.0265758417645 3396.957817634029
1664.7690805831826 3612.744485365283
1665.5114055714948 3608.871372841747
1666.2535508535748 3880.0902920898857
1666.9955164762814 3242.5202660507425
1667.7373024864555 3460.1620110355207
1668.478908930916 3499.0386331889813
1669.220335856462 3400.6563286491682
1669.9615833098778 3287.757990397587
1670.7026513379296 3338.186807359234
1671.44353998736 3513.22457154908
1672.1842493048916 3491.4035772038214
1672.9247793372379 3282.385993241683
1673.6651301310812 3451.3076901545282
1674.4053017330934 3327.459238249724
1675.1452941899242 3529.430396123328
1675.885107548207 2907.2223721127934
1676.6247418545518 3006.1781157719206
1677.3641971555535 3246.4322761222525
1678.1034734977893 3409.461643177657
1678.8425709278108 3240.082837359617
1679.5814894921605 3323.8475883149486
1680.320229237359 3414.715605680638
1681.0587902098978 3445.8072442538296
1681.7971724562685 3073.591208241276
1682.5353760229264 2963.8209730199583
1683.2734009563173 3300.893291929403
1684.0112473028657 2954.495510540878
1684.7489151089794 3232.8554873168296
1685.4864044210462 3274.013966247192
1686.2237152854377 2753.720092233674
1686.960847748498 3351.9211751240155
1687.6978018565642 2831.2148513216116
1688.434577655944 2931.5028930962126
1689.1711751929379 2845.6741182671667
1689.9075945138156 3018.1786206150505
1690.6438356648396 2953.379411649742
1691.3798986922448 2584.3824648022332
1692.1157836422499 2828.2443730885657
1692.851490561059 2687.6807383523064
1693.587019494853 2812.7735370511245
1694.3223704897991 2504.5340846373547
1695.0575435920364 2507.407749303874
1695.792538847696 3070.972712313933
1696.527356302886 2675.0246821205756
1697.2619960036936 2474.5540741057002
1697.9964579961907 2528.4117824667405
1698.730742326432 2277.2775564810386
1699.4648490404488 2398.543169898069
1700.1987781842563 2577.8539461951245
1700.9325298038548 2714.916814190218
1701.6661039452174 2772.995735023108
1702.3995006543082 2651.462614960174
1703.1327199770658 2732.534283243737
1703.865761959416 2487.6064819491526
1704.598626647261 2886.6090216203
1705.3313140864866 2433.4300322440345
1706.0638243229587 2452.466704819432
1706.7961574025303 2646.3059591650203
1707.528313371029 2461.186896192141
1708.260292274268 2274.9172768446224
1708.9920941580403 2513.1644289373544
1709.7237190681226 2540.7977437020736
1710.4551670502697 2520.1897179105263
1711.18643815022 2236.566755205612
1711.9175324136959 2811.261536892162
1712.6484498863938 2490.428608109001
1713.379190614005 2213.10315290928
1714.109754642188 2386.143169788288
1714.8401420165883 2373.165203826232
1715.570352782839 2663.68676992806
1716.3003869865497 2438.3533229654695
1717.0302446733076 2213.3996200170245
1717.7599258886876 2398.062443389549
1718.4894306782444 2732.2476935775326
1719.2187590875183 2208.821788020862
1719.9479111620203 2623.318662761647
1720.6768869472544 2326.2936874883853
1721.4056864887025 2677.2142736593632
1722.1343098318284 2713.254782584808
1722.8627570220742 2357.8329242546256
1723.591028104871 2223.2315820784193
1724.3191231256242 2129.656536344798
1725.0470421297232 2365.901756311561
1725.7747851625427 2471.3994796357742
1726.5023522694337 2484.227062158562
1727.2297434957363 2359.032835682839
1727.9569588867635 2213.996026265445
1728.6839984878152 2463.1907045784365
1729.4108623441734 2481.504574233996
1730.1375505011038 2500.0802073324376
1730.8640630038426 2126.4994323047986
1731.5903998976264 2113.322705251622
1732.316561227657 2368.3846374549885
1733.0425470391274 2045.1952328076507
1733.7683573772065 2330.6831956813735
1734.4939922870508 2309.9450533098766
1735.2194518137949 2278.4403141929747
1735.9447360025606 2393.7039097626794
1736.669844898439 2379.4531032672385
1737.3947785465189 2114.716155800129
1738.1195369918605 2078.40973807373
1738.8441202795093 2286.453459757224
1739.5685284544943 2368.432976410789
1740.292761561821 2362.359317555337
1741.0168196464838 2362.2912407846147
1741.7407027534518 2389.7615594260906
1742.464410927687 2395.808090376827
1743.187944214118 2332.8756506622412
1743.9113026576688 2274.590944172407
1744.634486303241 2209.454796698501
1745.3574951957125 2270.4881542820945
1746.0803293799509 2352.5576298483456
1746.8029889008048 2266.181930395267
1747.5254738031017 2377.91825465838
1748.2477841316504 2178.8198399960247
1748.969919931249 2224.2840254913426
1749.6918812466665 2217.231674081201
1750.4136681226646 2498.2073436731844
1751.1352806039777 2208.557304452545
1751.856718735331 1971.9087874370282
1752.5779825614281 1971.729685252063
1753.2990721269507 2307.5466370649838
1754.0199874765676 2380.2397045771263
1754.7407286549314 2057.9150895425805
1755.4612957066693 2172.466580417623
1756.1816886763954 2041.052970331481
1756.9019076087097 2321.09199962402
1757.6219525481865 2298.5861395726715
1758.3418235393856 2266.3855482376825
1759.061520626854 2320.0887408414305
1759.7810438551096 2493.5710143045917
1760.5003932686614 2108.239034422019
1761.2195689119999 2395.4411379781172
1761.938570829594 2311.8741376591
1762.657399065898 2277.0304238860053
1763.376053665348 1964.2220218048333
1764.0945346723602 1986.8169001123683
1764.812842131334 2017.462909574564
1765.5309760866512 2048.2962679644097
1766.2489365826787 2037.5366508283248
1766.9667236637597 2087.5944840342463
1767.684337374223 1893.064409849197
1768.401777758383 2003.3170715022443
1769.1190448605284 2093.30640211614
1769.836138724937 1918.1867539722243
1770.5530593958665 2163.0344719420486
1771.2698069175603 2518.00456550506
1771.9863813342326 2299.0600407387165
1772.702782690094 2035.7615004525705
1773.4190110293293 2316.5818023339443
1774.1350663961111 2313.1337564439227
1774.8509488345844 2078.0869636843627
1775.5666583888924 2204.2245293119086
1776.2821951031437 2353.605632037919
1776.9975590214362 2082.551513163515
1777.7127501878585 2373.660330106212
1778.4277686464684 2285.717330063634
1779.1426144413108 2527.1421963271987
1779.8572876164162 2428.2465552737003
1780.571788215797 1952.008796915146
1781.2861162834415 2105.776075328029
1782.0002718633277 2180.266727269077
1782.7142549994132 2308.8427860848137
1783.4280657356376 2211.9197932762663
1784.141704115922 2121.9410652977554
1784.855170184177 2067.1796547534486
1785.5684639842839 2167.3218522896636
1786.2815855601148 1843.8504943035962
1786.9945349555237 2299.0762701606
1787.707312214343 2023.0665179283792
1788.4199173803918 1977.7186410920833
1789.132350497468 1932.4645847056581
1789.8446116093583 2073.227856588181
1790.556700759822 1981.1613701116148
1791.2686179926077 2001.2641782602543
1791.9803633514493 2098.0208347591206
1792.6919368800554 1940.5268976766042
1793.4033386221236 2221.877831207177
1794.1145686213295 2284.7499834491164
1794.8256269213307 2374.71491930971
1795.536513565774 2295.3041696585296
1796.247228598284 1913.182461137399
1796.9577720624693 1943.074605298721
1797.6681440019165 2092.9513090190057
1798.3783444602013 2150.1369344787245
1799.0883734808776 2177.7095418173817
1799.7982311074884 2247.2316563394465
1800.5079173835475 2104.812269950561
1801.2174323525633 2314.41411621508
1801.9267760580187 2087.3236077677752
1802.635948543386 2234.1786909088446
1803.3449498521113 1956.9326191729692
1804.0537800276325 2093.020054388666
1804.7624391133668 2020.6225275576362
1805.47092715271 1812.2858188116534
1806.1792441890484 1843.3116980188559
1806.8873902657433 2206.260852224387
1807.5953654261448 2158.004892040961
1808.3031697135812 2028.2964907161736
1809.0108031713662 1991.507817348632
1809.71826584279 2105.2034598303458
1810.425557771141 2085.7772680209896
1811.1326789996747 2074.9605440792075
1811.839629571632 2064.017676174466
1812.5464095302468 1999.1687698043017
1813.2530189187182 2177.7688523109637
1813.959457780249 2040.1527301340095
1814.6657261580076 2242.216162163339
1815.371824095153 2006.7692702465843
1816.0777516348262 1861.4138275687437
1816.78350882015 1715.979561514189
1817.4890956942272 1767.0374288577186
1818.1945123001533 1929.515929124243
1818.8997586809928 2128.2168614352886
1819.6048348798067 1840.3493332890528
1820.3097409396287 2148.1721864433816
1821.0144769034796 2390.8192103149313
1821.7190428143622 2103.248884729533
1822.423438715261 2224.9663349354287
1823.1276646491478 2001.5123218763292
1823.8317206589727 2102.0538479832217
1824.5356067876692 2105.9473150465265
1825.2393230781581 2115.6735818365073
1825.942869573335 1734.5081542358225
1826.646246316086 1952.636240898733
1827.3494533492758 2217.967841764644
1828.052490715756 2078.0301951193587
1828.7553584583547 2052.4977152549923
1829.458056619891 2118.746064636701
1830.1605852431585 1952.752474555927
1830.8629443709433 1765.670922066989
1831.5651340460063 2054.574184348296
1832.2671543110919 1857.4612247599894
1832.9690052089318 2115.7072519307503
1833.6706867822395 1736.3931453717046
1834.3721990737104 2137.096387543277
1835.0735421260233 2093.253802628576
1835.774715981841 1972.6958652169767
1836.4757206838058 2214.040129617337
1837.1765562745459 1917.8819816855043
1837.8772227966747 1799.8018718439785
1838.5777202927839 1962.004551502927
1839.2780488054523 1970.0170092054257
1839.9782083772352 1995.4739657367468
1840.6781990506806 2305.9848071019937
1841.378020868313 2005.3638175761994
1842.0776738726418 1974.3917094761212
1842.777158106157 1937.409090005976
1843.4764736113375 1808.6653209644187
1844.1756204306403 2113.295846405042
1844.8745986065078 2062.326734703437
1845.5734081813607 1816.471503629206
1846.2720491976124 1875.6484129653359
1846.970521697649 1956.7563066490234
1847.6688257238511 2023.565965464144
1848.3669613185684 1866.337031840169
1849.0649285241452 1767.1822709643845
1849.7627273829057 2063.269529718156
1850.460357937156 1973.9351975636037
1851.1578202291857 1691.2319678755375
1851.8551143012664 2052.314768742234
1852.5522401956569 2005.5737676592883
1853.2491979545957 2285.5855726664954
1853.9459876203055 1929.6606676587282
1854.6426092349902 1842.6355644936698
1855.3390628408451 1916.9922092130678
1856.0353484800362 2252.17620452245
1856.7314661947203 2196.0077615703153
1857.4274160270397 1766.5500671293544
1858.123198019115 1938.3037795214204
1858.8188122130487 1865.413478392856
1859.5142586509319 1871.2104225746564
1860.209537374838 1896.0717484846075
1860.9046484268183 1929.62423259423
1861.599591848917 2148.977667852595
1862.294367683151 1841.3034389502686
1862.988975971528 1888.7198591190486
1863.6834167560355 2044.0625435487786
1864.3776900786452 1995.8846498555686
1865.0717959813119 1902.3323798551173
1865.7657345059724 1787.7456269726426
1866.4595056945564 2017.6782522405308
1867.1531095889586 1992.1846159811491
1867.846546231076 1789.3169500638808
1868.5398156627743 2185.302212047256
1869.2329179259123 1872.0388587563552
1869.9258530623283 2092.6908474225315
1870.618621113843 1859.4430507278416
1871.3112221222636 1665.2453213483673
1872.0036561293764 1775.453309214689
1872.695923176956 1999.1754160122832
1873.3880233067594 2132.614392006018
1874.0799565605212 1738.0955917790513
1874.7717229799673 1908.5761929413025
1875.4633226068036 2158.7071763430454
1876.1547554827175 2128.687944076856
1876.8460216493859 1856.6665048203536
1877.5371211484617 2016.38037183657
1878.2280540215852 2082.5789092169607
1878.9188203103804 1796.534692333962
1879.6094200564548 1856.411877607877
1880.299853301396 1872.026586340442
1880.9901200867826 2044.6870820979432
1881.6802204541673 2030.231834974249
1882.3701544450942 2039.7141191295639
1883.059922101087 1726.3940323770075
1883.7495234636517 2108.452639885034
1884.4389585742792 1804.4721660349792
1885.1282274744517 1768.259282022412
1885.8173302056166 1872.4203230934145
1886.506266809225 1976.723293446846
1887.195037326701 1687.002309921599
1887.8836417994517 1942.8161699539723
1888.5720802688702 2209.7678024237184
1889.260352776333 2095.0955614018444
1889.9484593632042 2233.7147794283214
1890.63640007082 1839.377692994755
1891.3241749405151 1746.6959008596928
1892.0117840135954 1962.675455508761
1892.6992273313572 1967.0077792317584
1893.3865049350788 1801.3974695918055
1894.0736168660223 2288.7767902495007
1894.7605631654333 2058.202469581124
1895.4473438745408 2124.5835006066236
1896.133959034556 2190.9461441738267
1896.820408686679 2017.2566735508324
1897.506692872088 2211.6766331928056
1898.192811631945 1869.6419788374035
1898.8787650073991 2073.224249481755
1899.5645530395832 2000.3359384434898
1900.2501757696118 2055.0843688041828
1900.9356332385796 2174.3669284781126
1901.620925487574 2294.006733455109
1902.3060525576602 1938.573340645386
1902.9910144898859 1995.8626684995263
1903.6758113252872 1829.7250894807926
1904.3604431048789 1973.6795258542356
1905.0449098696663 2143.508381658344
1905.7292116606295 1859.4622850350868
1906.4133485187394 2022.2403426057062
1907.0973204849488 1892.3443195021835
1907.7811276001976 1762.1273138724446
1908.4647699053967 1858.3122857231979
1909.1482474414588 1688.6804634869088
1909.8315602492694 1849.9951897916635
1910.5147083696957 2006.9086503098938
1911.1976918436012 1852.2793661545934
1911.880510711815 1824.2935875544827
1912.5631650151681 2139.681154041117
1913.2456547944657 1882.264751336544
1913.927980090495 1766.4746490043913
1914.6101409440362 1787.1057679646874
1915.2921373958416 1963.8590784132653
1915.9739694866603 1891.3670744994488
1916.655637257214 2195.2310799673423
1917.3371407482136 1958.0925862120214
1918.0184800003572 2239.30539129513
1918.6996550543154 2096.3251149976495
1919.3806659507554 2034.6820167814476
1920.0615127303208 1996.0558349613107
1920.7421954336423 2166.24625708616
1921.4227141013343 2068.46130641688
1922.103068773993 1970.536867538248
1922.783259492202 2154.8567543004674
1923.4632862965227 1829.4003884694653
1924.1431492275078 1793.2902203373883
1924.8228483256917 1631.4094970952158
1925.5023836315922 1876.950873142435
1926.1817551857057 2045.4654769696717
1926.8609630285227 2214.3284815967945
1927.5400072005123 2025.4903543172709
1928.218887742125 1722.2638575530204
1928.8976046938005 1883.1669456914326
1929.5761580959588 1986.3859628375617
1930.2545479890086 1889.0816778413514
1930.9327744133352 1608.3965164036297
1931.6108374093164 1909.4987308507043
1932.2887370173066 2269.719060921255
1932.9664732776473 2147.870441803426
1933.6440462306673 2025.6640324779262
1934.3214559166754 1854.9028592031882
1934.9987023759659 2258.993695033372
1935.675785648813 2081.3841891040383
1936.3527057754836 2174.0984110868585
1937.029462796223 2267.030300451911
1937.70605675126 1737.375567353978
1938.3824876808085 1690.781036427815
1939.058755625072 1902.1907976637133
1939.7348606242267 1899.6002209112296
1940.4108027184448 1922.788749183784
1941.0865819478713 2080.765110623922
1941.7621983526478 1784.6704637878033
1942.4376519728921 1802.0280911901496
1943.1129428487038 1907.607622798671
1943.7880710201734 1977.862465341362
1944.4630365273733 1912.7219478444154
1945.1378394103576 1587.6569281594047
1945.8124797091714 1636.9229662329099
1946.4869574638324 1686.229569204391
1947.161272714353 1795.8782865838275
1947.8354255007234 1935.6222159884812
1948.5094158629272 1828.1579387926402
1949.1832438409183 1937.1798430414474
1949.8569094746435 2061.884065138656
1950.530412804037 2107.33791328497
1951.2037538690092 2110.187234500773
1951.8769327094578 1763.5114927081056
1952.5499493652678 1728.0937652802797
1953.222803876306 2181.6903550155666
1953.895496282421 1998.455896377932
1954.5680266234522 1971.6419199574386
1955.2403949392155 1947.6290647980568
1955.9126012695142 1722.6382163239364
1956.5846456541403 1801.7946018632797
1957.2565281328643 1908.4152862108745
1957.9282487454457 2052.3668278946993
1958.5998075316202 1957.0453090013045
1959.27120453112 1765.7661589169031
1959.9424397836501 1916.0276695542384
1960.613513328908 2001.8683411995014
1961.2844252065697 2202.5969755418214
1961.9551754563017 1717.3986989384844
1962.6257641177453 1688.2023521713593
1963.29619123054 1623.4926002258667
1963.966456834296 1757.3162287738494
1964.6365609686181 1570.3685594658723
1965.306503673086 1923.8102674784477
1965.976284987275 1704.122934758901
1966.645904950734 1824.271988903698
1967.315363603002 1650.5579072857745
1967.9846609836077 1864.3917267926322
1968.6537971320486 1797.9719373534085
1969.3227720878222 1812.3951608654047
1969.9915858904042 1801.113368500377
1970.660238579252 1874.8327379093566
1971.3287301938108 1654.1622935760965
1971.997060773514 1730.1364505266665
1972.665230357772 1727.2410700602754
1973.3332389859843 1835.4502175060177
1974.0010866975335 1650.6310025216815
1974.6687735317864 1841.5271401434372
1975.3362995280932 1909.6465024453305
1976.003664725793 1876.4477279167963
1976.6708691642052 1601.4318484493922
1977.3379128826364 1735.8544637580162
1978.004795920373 2022.67271482623
1978.6715183166925 2199.1671159115276
1979.3380801108524 2055.8837154921343
1980.0044813420973 1912.4910104143505
1980.6707220496555 1512.5291121941805
1981.3368022727373 1884.1851585087857
1982.0027220505417 1927.7063279509712
1982.66848142225 1447.1944848774751
1983.3340804270283 1603.8078924795752
1983.999519104027 1763.7981184330627
1984.6647974923835 1871.9527492982452
1985.329915631215 2003.4083354818413
1985.99487355963 1686.6304095043586
1986.6596713167146 2100.8191834502686
1987.3243089415428 1683.6565068929303
1987.9887864731754 2136.7595613426342
1988.6531039506553 1645.168914443663
1989.3172614130071 2212.101398423082
1989.9812588992481 1728.869256727423
1990.645096448372 1384.423232429212
1991.3087740993633 1780.5787839786688
1991.9722918911848 1789.3131990101058
1992.635649862792 1848.8068045482166
1993.2988480531185 1918.604109422084
1993.9618865010852 1806.1548755725387
1994.6247652455968 1693.558222281453
1995.287484325545 1672.990836008506
1995.9500437798033 1596.3742762778566
1996.6124436472292 1641.1350356283153
1997.2746839666706 2030.5075588443851
1997.936764776954 1809.8691867581128
1998.598686116895 1695.2376845611325
1999.2604480252903 2085.0060411768072
1999.9220505409212 1916.9038265798415
2000.5834937025593 1604.3812127653625
2001.2447775489582 1664.6825329205913
2001.9059021188514 1863.0097440369923
2002.5668674509616 1792.4314107374078
2003.2276735839987 1739.1278002438235
2003.8883205566508 1983.0140231190421
2004.5488084075987 1657.8481519383174
2005.2091371755014 1772.7217944045383
2005.8693068990033 1545.3416786006358
2006.5293176167397 1507.2361398785536
2007.1891693673224 1469.2017428878273
2007.848862189354 1651.1801616043872
2008.5083961214223 1708.0040358982792
2009.1677712020955 1629.9009473194094
2009.8269874699254 1504.872314989204
2010.4860449634598 1532.3369778787437
2011.1449437212177 1559.9639655126423
2011.8036837817108 2081.6409940102667
2012.4622651834325 1965.3243513591758
2013.1206879648653 1970.354117781129
2013.7789521644736 2099.341620183687
2014.4370578207036 1955.3342015985468
2015.0950049719922 1810.8624000823572
2015.7527936567585 2040.3334104804267
2016.4104239134067 1692.6408828982226
2017.067895780323 2231.35175911222
2017.725209295886 2194.759521826173
2018.3823644984514 2158.011957995469
2019.0393614263648 1755.2071609744933
2019.6962001179545 1838.413239116138
2020.3528806115355 1996.391689950983
2021.0094029454067 1878.5904528189174
2021.6657671578487 1554.3848321450973
2022.321973287133 1861.3774653541302
2022.9780213715148 1668.0986094045572
2023.6339114492293 1558.004058004835
2024.2896435585026 1761.3691690571384
2024.9452177375442 1799.759913365373
2025.600634024544 2067.9512809077846
2026.2558924576842 1949.4682762280772
2026.9109930751292 1855.4814218251086
2027.565935915025 1636.567408819556
2028.2207210155066 2056.13860862881
2028.8753484146964 2209.645173549554
2029.529818150695 2082.0800726961174
2030.1841302615903 1953.9666593096329
2030.8382847854573 1680.5535006818106
2031.4922817603601 1945.4457560595063
2032.1461212243357 1765.038743494121
2032.7998032154192 1497.3365380921596
2033.4533277716218 1746.972906086067
2034.1066949309443 1582.6880099385764
2034.7599047313688 1560.9251485304262
2035.4129572108704 1864.7803557638995
2036.0658524074006 1828.7414960110775
2036.7185903589016 1953.5841690414588
2037.3711711032956 1844.8629157796859
2038.023594678496 1701.8726486864427
2038.675861122394 1596.3583833977432
2039.3279704728757 1574.8696454061242
2039.9799227678031 1553.4768224801323
2040.6317180450278 1757.2707717101953
2041.2833563423865 1797.2858489363232
2041.9348376977014 2184.2978883850865
2042.5861621487784 1890.87175990385
2043.2373297334088 1821.7492825293273
2043.8883404893695 1867.2372066668497
2044.5391944544208 2064.534061577859
2045.1898916663158 2026.1211687873401
2045.8404321627804 2156.3816556511974
2046.4908159815368 1711.1990580425554
2047.1410431602853 1741.388356032213
2047.7911137367173 1632.5096212632586
2048.441027748504 1576.6982470484954
2049.090785233302 1520.7740569852567
2049.7403862287592 1571.9637657050168
2050.389830772503 1560.3281833216715
2051.0391189021466 1548.725670157675
2051.688250655294 1784.489799670453
2052.337226069527 1578.602058465916
2052.986045182417 1924.0912420149282
2053.634708031521 1434.4498341804117
2054.283214654375 1425.4957756946046
2054.931565088511 1416.5836263065767
2055.579759371436 1588.3444694478976
2056.2277975406523 1903.858936515935
2056.8756796336384 1668.8666445877159
2057.5234056878617 1857.184983771812
2058.1709757407752 1645.7493066004645
2058.8183898298194 1978.1539397606477
2059.465647992416 2017.097901521573
2060.1127502659747 1942.5962146614504
2060.759696687888 1943.3642008983766
2061.4064872955405 1944.1508961267434
2062.053122126292 2055.527840176007
2062.699601217497 1824.1213743816102
2063.345924606485 1592.7191228916126
2063.992092330587 1695.3511103575704
2064.638104427102 1638.1183688892343
2065.283960933324 2038.4066291188701
2065.92966188653 1737.1460611210216
2066.5752073239855 2058.3146814002953
2067.2205972829397 1664.7567916161745
2067.86583180062 1830.3945641295045
2068.5109109142522 1814.1590464461456
2069.15583466104 1780.852878815198
2069.8006030781708 1533.417404461182
2070.445216202821 1682.2412827012242
2071.089674072153 1900.7190716788941
2071.7339767233116 2060.096107026812
2072.3781241934303 1782.6645459185952
2073.0221165196253 1753.8479652998697
2073.6659537390024 1691.943813993065
2074.3096358886505 1980.8455508684535
2074.953163005637 1625.2940014401934
2075.596535127028 1479.8634161393848
2076.2397522898664 1682.3001783027462
2076.882814531182 1692.5487415257169
2077.5257218879924 1556.0805520835727
2078.1684743973 1419.4259686768407
2078.8110720960885 1501.795773739281
2079.453515021336 1633.6148076781237
2080.095803209997 1765.542429243785
2080.7379366990135 1820.527808730704
2081.37991552532 1887.0263635431813
2082.0217397258275 1908.6846938321407
2082.6634093374414 1949.3884591469064
2083.3049243970418 1990.2154736854573
2083.9462849415067 1811.6156202531972
2084.587491007689 1777.124794454719
2085.2285426324324 1608.7964266077615
2085.869439852564 1652.8962541045548
2086.510182704902 1692.4964071527106
2087.1507712262483 1790.0465653053075
2087.791205453381 1837.3368914394796
2088.4314854230743 1884.6654824806883
2089.0716111720867 1642.5258453427784
2089.7115827371617 1436.0042731041735
2090.351400155023 1549.9927395344216
2090.991063462385 1664.2626522504117
2091.6305726959527 1303.704108705689
2092.2699278924047 1464.7453811560808
2092.9091290884153 1626.1793916987865
2093.548176320641 1465.5592499183765
2094.187069625721 1934.9812147099299
2094.8258090402887 1425.455974780607
2095.464394600951 1859.531574192081
2096.102826344313 1747.7627995438852
2096.741104306955 1900.0663059230374
2097.379228525453 1597.5956975865033
2098.017199036358 1789.5104971991866
2098.6550158762147 1650.0498085478189
2099.2926790815527 1910.844352955449
2099.9301886888825 1941.2528742694826
2100.5675447347076 1685.5493509730272
2101.2047472555114 1880.2781380019835
2101.841796287761 1664.246033951354
2102.47869186792 1706.3558612722034
2103.1154340324265 1629.825125489425
2103.752022817709 1683.907785526355
2104.388458260184 1608.399836671214
2105.024740396251 1824.6404623304602
2105.660869262292 1620.3446666269724
2106.296844894685 1863.4091013726588
2106.93266732978 1795.0507256420115
2107.5683366039284 1531.4733822565618
2108.2038527534532 1689.1347709569716
2108.8392158146726 1655.8349339908575
2109.4744258238843 1622.4833907253847
2110.1094828173755 1735.2272634533972
2110.744386831422 2033.7840519953381
2111.3791379022787 1675.837091255462
2112.01373606619 2138.186283939479
2112.648181359389 1853.205470998099
2113.28247381809 1912.533238738805
2113.916613478492 1821.6050406582058
2114.550600376786 1818.9706667202074
2115.1844345491445 1738.4485623799305
2115.818116031729 1666.1566135580556
2116.451644860679 1666.683728536015
2117.085021072133 1447.6815221281252
2117.718244702204 1583.278653649406
2118.3513157869984 1550.4976980947022
2118.984234362604 1392.902579646149
2119.617000465092 1649.7193238749326
2120.249614130529 1979.1448092261937
2120.8820753949585 1793.2345220670165
2121.5143842944162 1679.437079626968
2122.14654086492 1685.8439066858737
2122.7785451424734 1541.3050369082293
2123.4103971630702 1776.7091717588196
2124.042096962681 1647.1026810062517
2124.6736445772767 1847.7898647676527
2125.305040042802 1544.0787135723438
2125.936283395191 1698.264997948403
2126.567374670365 1758.6809312898954
2127.198313904233 1473.2418385433868
2127.8291011326855 1490.381000968695
2128.4597363916037 1507.3789128325036
2129.0902197168507 1768.5425409416796
2129.720551144279 1931.678615123205
2130.3507307097225 2094.912516166236
2130.980758449008 1991.599171222714
2131.6106343979427 1903.011692842359
2132.2403585923203 1814.2259508145576
2132.8699310679276 1862.5573978962323
2133.499351860526 1756.082093510664
2134.1286210058715 1553.3208645483253
2134.7577385397053 1777.2098905182793
2135.3867044977487 2001.4217456211609
2136.0155189157176 2018.9328447182038
2136.644181829308 2021.5733269869695
2137.2726932742025 1749.9148536977395
2137.901053286074 1634.06287921592
2138.5292619005777 1518.0895078378335
2139.1573191533535 1596.0536520070718
2139.7852250800315 1862.8009698410028
2140.4129797162295 1763.8337347273664
2141.0405830975433 1314.5065654512177
2141.6680352595613 1380.694898684967
2142.2953362378576 1447.025759053989
2142.9224860679915 1543.1879092353022
2143.549484785508 1533.3162798629733
2144.1763324259373 1570.2515291503091
2144.803029024799 1438.6970966857
2145.429574617594 1566.803389060848
2146.0559692398165 1761.0232199551804
2146.682212926942 1528.6279505964035
2147.308305714432 1632.6020689090249
2147.9342476377333 2030.3964208041518
2148.5600387322847 2106.662212610467
2149.185679033506 1748.8646574441086
2149.8111685768017 1570.374920214508
2150.4365073975678 1389.221990556627
2151.061695531187 1570.3725732333585
2151.686733013021 1884.8600800424342
2152.311619878423 1709.0520293170525
2152.9363561627342 1521.3810052259787
2153.560941901278 1586.981867819804
2154.1853771293663 1762.87069758606
2154.809661882293 1620.5182039125339
2155.433796195348 1973.5380914629968
2156.0577801037944 1980.3892930679478
2156.681613642895 1987.0470797751434
2157.3052968478896 1513.194120485299
2157.928829754006 1768.5106272934395
2158.552212396462 1906.9470312063193
2159.1754448104566 1667.0285676235442
2159.7985270311783 1427.0236670593818
2160.4214590938027 1257.7838234113055
2161.0442410334927 1262.6260217775912
2161.6668728853874 1348.2968506013015
2162.289354684628 1434.17875116126
2162.911686466332 1645.0906037014206
2163.533868265602 1799.3753767508467
2164.1559001175337 2083.475816776723
2164.7777820572046 1804.99251287407
2165.399514119681 1801.217026392605
2166.021096340013 1536.277458638407
2166.6425287532384 1976.9769678978034
2167.263811394385 2000.7878714966907
2167.8849442984574 2024.805899128566
2168.505927500455 1596.622073432904
2169.126761035366 1916.9820411995747
2169.7474449381552 1537.722611715279
2170.367979243778 1198.1691259995207
2170.9883639871823 1894.415673265839
2171.608599203293 1403.5753462205173
2172.2286849270276 2201.8830796598436
2172.8486211932886 2337.722901107262
2173.4684080369625 1753.0857369323762
2174.0880454929265 1457.1363078531483
2174.7075335960417 1465.554933423221
2175.3268723811543 1477.3023051749149
2175.9460618831 1489.1007630019296
2176.565102136701 1719.0828472543913
2177.1839931767627 1716.028329521076
2177.802735038078 1712.9903859148785
2178.421327755432 1490.2881284395207
2179.0397713635866 1389.602525757623
2179.658065897298 1608.9267444360362
2180.276211391305 1839.4114062090237
2180.8942078803357 1544.5672630898289
2181.5120553991 1406.3545810390815
2182.129753982299 1766.61065836233
2182.7473036646206 1600.7887646317818
2183.3647044807367 1780.0230640331258
2183.9819564653044 1491.4989111970297
2184.599059652968 1792.3937085456248
2185.216014078367 1770.3287689740707
2185.832819776113 1779.2304321162246
2186.4494767808137 1788.0514223805549
2187.065985127063 1562.5837104421014
2187.682344849436 1553.272654044271
2188.298555982501 1637.3728877298122
2188.9146185608097 1721.513695376174
2189.530532618901 1918.4837926346304
2190.1462981912937 1743.3212323719174
2190.761915312507 1816.892168696803
2191.377384017036 1660.5438739322594
2191.9927043393654 1628.0166938119596
2192.6078763139667 1888.8114519360886
2193.2228999753006 1366.9800591215726
2193.837775357808 1623.3238158007712
2194.452502495922 1325.2967839464138
2195.0670814240602 1682.7981398675497
2195.6815121766285 1310.1601379845674
2196.2957947880186 1277.1644351923987
2196.9099292926057 1244.1065689005643
2197.523915724758 1505.333368010499
2198.137754118825 1680.4136695542668
2198.7514445091456 1986.8834673051056
2199.3649869300443 2107.144046147592
2199.9783814158327 2227.774002021038
2200.5916280008096 2104.620132419563
2201.2047267192593 1704.2109560682238
2201.8176776054515 1652.2773734920563
2202.430480693649 1800.1763769765626
2203.0431360180955 1948.4803127445582
2203.6556436130195 1733.8728833227747
2204.268003512645 1136.7920048914714
2204.8802157511727 1474.8074621243088
2205.492280362796 1643.2963212106893
2206.1041973816937 1812.3167970546097
2206.715966842032 1601.8615520193016
2207.3275887779655 1671.5320762817496
2207.93906322363 1519.0906704239906
2208.550390213153 1847.4479609331443
2209.1615697806465 1953.5851240509262
2209.7726019602105 1709.179115773158
2210.3834867859277 1464.1081753248168
2210.9942242918787 1384.440123881559
2211.6048145121167 1728.350484640976
2212.2152574806914 2432.858673983341
2212.825553231638 2484.7980860300504
2213.435701798975 2536.946666696176
2214.045703216707 1792.565951923681
2214.655557518832 1276.892959818484
2215.2652647393297 1218.4899706199078
2215.874824912169 1168.6656352703208
2216.4842380713 1655.9374893558822
2217.09350425067 1601.0814744877248
2217.7026234842033 1758.3723745373106
2218.311595805819 1807.6477980011398
2218.9204212494133 1668.469040824008
2219.52909984888 1856.208327947605
2220.137631638092 1358.7527261281994
2220.7460166509154 1438.186266371272
2221.354254921198 1517.7077150378595
2221.9623464827764 1669.8178448688464
2222.5702913694713 1668.4925143996666
2223.178089615096 1593.8386383457564
2223.7857412534486 1519.0462040388816
2224.39324631831 1396.5673233359162
2225.000604843457 1428.105263739117
2225.607816862641 1866.5810047303032
2226.214882409611 1821.8626522473073
2226.8218015180973 1854.9976130789626
2227.4285742218217 1536.599823845812
2228.0352005544864 1611.3173191658977
2228.6416805497847 1408.050297581901
2229.248014241399 1559.4497780198353
2229.8542016629945 1267.4909097820441
2230.460242848223 1816.3613711180083
2231.0661378307304 2213.5450033109055
2231.671886644139 1359.703408886111
2232.277489322065 1334.4038638938623
2232.8829458981127 1111.3784090686308
2233.48825640587 1597.9659971880947
2234.0934208789095 2150.7010653152665
2234.6984393507955 1974.4339785342067
2235.3033118550793 1706.1454071709916
2235.9080384252975 1704.4751799068595
2236.5126190949723 1298.493519190549
2237.1170538976166 1512.8360529079785
2237.721342866729 1205.5502116840532
2238.32548603579 1446.5324933177856
2238.9294834382763 1645.4176552112754
2239.533335107646 1761.0518384948177
2240.1370410773434 1535.0669724776658
2240.740601380803 1655.176933634279
2241.3440160514474 1775.4924843809779
2241.9472851226783 1812.2211779151264
2242.550408627896 1613.5856240889377
2243.1533866004793 1875.6444704298033
2243.756219073799 1617.8201277787193
2244.3589060812064 1449.567165187476
2244.961447656049 1313.5282385543512
2245.5638438316564 1660.606656103381
2246.166094641343 1700.6441761539943
2246.7682001184166 1641.579862462284
2247.3701602961664 1582.424874480391
2247.971975207871 1573.6047101188508
2248.5736448867974 1544.6843999362138
2249.175169366197 1515.6449030851693
2249.7765486793123 1625.5919880675988
2250.3777828593684 1644.7733600684176
2250.9788719395783 1473.1184561228815
2251.579815953146 1563.604369086353
2252.1806149332606 1592.2108293474755
2252.781268913097 1620.8104382458596
2253.381777925817 1409.6305642091997
2253.9821420045737 1589.8826563468347
2254.5823611825035 1798.8074070491039
2255.1824354927303 1708.6597671539942
2255.782364968365 1446.9355747633774
2256.38214964251 1914.8814432305794
2256.9817895482483 1538.2878566641916
2257.5812847186553 1522.9694909460786
2258.180635186791 1396.4979441964024
2258.779840985704 1454.8203504357339
2259.37890214843 1448.564723222108
2259.97781870799 1591.451132430382
2260.5765906973957 1734.6061074512775
2261.175218149645 1793.502498637578
2261.773701097718 1557.191490566524
2262.3720395745895 1677.1868427208697
2262.970233613216 1398.6699387089495
2263.568283246548 1487.5794287859594
2264.1661885075137 1467.4675023137365
2264.763949429038 1392.693686706274
2265.3615660440246 1894.38352094357
2265.959038385374 1330.8591950365767
2266.5563664859637 1922.9107533058468
2267.153550378669 1626.343156026846
2267.7505900963424 1845.3473098283116
2268.3474856718312 1447.9122175480054
2268.9442371379664 1531.6694259290502
2269.5408445275643 1444.7167315359181
2270.1373078734377 1456.9474660799465
2270.7336272083758 1469.2080621454097
2271.32980256516 1548.858134483408
2271.925833976562 1720.606690066088
2272.5217214753357 1543.5889625123812
2273.117465094223 1366.1855131061473
2273.7130648659586 1362.9143527870622
2274.308520823257 1499.672631934031
2274.903832998827 1801.5206077117193
2275.4990014253563 1460.9550794328238
2276.094026135528 1820.4101970201923
2276.6889071620117 1474.4959975396814
2277.2836445374614 1639.6736152908622
2277.878238294519 1727.6693913173808
2278.472688465812 1558.655469507186
2279.066995083962 1389.3337394656073
2279.6611581815705 1570.252264272402
2280.255177791232 1924.5219516933419
2280.8490539455233 1725.6741936517963
2281.442786677013 1982.8817902673832
2282.0363760182554 1910.0221512265343
2282.6298220017943 1396.356182182071
2283.223124660155 1962.275096864373
2283.816284025859 1262.0198695703853
2284.4093001314086 1987.0396050878612
2285.002173009292 1300.9491300656023
2285.5949026919952 1744.2194303747608
2286.1874892119777 1722.7109098268174
2286.7799326016993 1767.0197437200654
2287.3722328936 1256.516944147309
2287.964390120109 1076.8333186309405
2288.556404313642 1852.5356145892067
2289.1482755066027 1986.4889229978369
2289.7400037313873 1562.233940804816
2290.3315890203703 1571.3534673900847
2290.9230314059205 1866.4326387182246
2291.5143309203904 1638.7238508401613
2292.1054875961236 1545.2118291637503
2292.6965014654506 2039.2499623902302
2293.287372560684 1392.8205246163068
2293.878100914131 1383.1737207919882
2294.468686558086 1373.5508527668621
2295.059129524827 1480.0467446733724
2295.649429846617 1532.623398837753
2296.239587555716 1585.2701643520184
2296.8296026843636 1681.0264576749437
2297.419475264791 1560.4555619406688
2298.0092053292137 2052.647211318121
2298.598792909839 1935.1660030991886
2299.1882380388597 1816.5678609468473
2299.777540748455 2054.997744317906
2300.3667010707904 1857.4965402278226
2300.9557190380256 2112.0675763927043
2301.544594682302 2243.2404007013624
2302.1333280357503 2005.93101060852
2302.721919130485 1768.4015749906569
2303.3103679986198 1970.466417629547
2303.898674672242 1950.936126699377
2304.486839183437 1777.8180796375214
2305.0748615642697 1604.6056220550142
2305.6627418468015 1706.318180679372
2306.2504800630704 1451.3728563589261
2306.8380762451143 1674.5880677294292
2307.425530424949 1722.6574724412687
2308.012842634582 1770.82378968429
2308.6000129060103 2108.7468494811556
2309.187041271214 1732.6184039227028
2309.773927762164 2117.6658635544604
2310.3606724108213 1836.0195135776562
2310.9472752491274 1883.8973245051711
2311.5337363090184 1931.9321748399245
2312.120055622414 1468.520585233172
2312.706233221221 1750.192406919675
2313.2922691373424 1221.4830868782933
2313.8781634026564 1379.6527320757461
2314.463916049037 1538.187665476308
2315.049527108342 1789.9948194088138
2315.6349966124235 1996.2659528352633
2316.2203245931123 2056.278825603327
2316.8055110822315 1339.1251627406652
2317.3905561115935 1370.362634964982
2317.9754597129977 1525.702136897822
2318.560221918229 1423.9301992969242
2319.1448427590603 1321.9582575226782
2319.729322267256 1492.8079069881317
2320.313660474563 1582.7259516700174
2320.8978574127195 1674.6248893221068
2321.481913113452 1766.8505697621808
2322.0658276084705 1345.534382418684
2322.6496009294806 1559.6259881747906
2323.233233108165 1645.502758981554
2323.8167241762058 1649.4931635328835
2324.4000741652617 1628.2592821762607
2324.983283106987 1988.2053401874623
2325.5663510330232 1941.8251714251232
2326.1492779749933 1580.2370517402728
2326.7320639645204 1660.976421085757
2327.3147090332004 1311.4991795352603
2327.897213212629 1530.2138872390126
2328.4795765343843 1749.113381809079
2329.0617990300307 1435.810630383659
2329.643880731124 1994.8341356573594
2330.22582166921 1383.5312264244742
2330.807621875816 1284.6425281054062
2331.3892813824623 1185.705307144723
2331.9708002206517 1193.575108530301
2332.5521784218818 1426.5693875854415
2333.133416017634 1660.0974455555192
2333.7145130393765 1512.0863099599087
2334.295469518571 1861.273238349618
2334.876285486658 2117.4345203183752
2335.456960975076 2022.4550645211027
2336.037496015242 1927.2983342949974
2336.6178906385667 1612.9109197420757
2337.198144876451 1645.6350495136714
2337.778258760278 1801.9508483801965
2338.3582323214214 1714.7621585220531
2338.938065591243 1627.3277656473476
2339.517758601087 2107.660989669227
2340.0973113822965 1765.3138186064618
2340.676723966193 1570.519109936979
2341.255996384094 1825.9508545165131
2341.835128667295 1928.058828971484
2342.4141208470883 1824.4755379463925
2342.992972954751 1750.1313743549756
2343.5716850215467 1772.7069891159167
2344.1502570787306 1224.3183256016503
2344.7286891575386 1383.5335416440046
2345.3069812892045 1596.840306054973
2345.885133504944 1810.3842619931365
2346.4631458359618 1402.5115639701417
2347.04101831345 1370.336156651171
2347.6187509685915 1514.1528807302268
2348.196343832553 1604.0379613809966
2348.7737969364935 1561.3734619343263
2349.351110311558 1518.6882220742289
2349.9282839888765 1355.3946541192133
2350.5053179995757 1242.662608605566
2351.0822123747585 1455.3949101319272
2351.658967145526 1340.0817609842902
2352.2355823429643 1224.6530599512366
2352.812057998144 1725.9394277954343
2353.3883941421263 1739.9252378726487
2353.9645908059647 1845.4553490753194
2354.540648020693 1560.4898258963162
2355.116565817336 1391.25505989355
2355.6923442269126 1487.174008607707
2356.2679832804224 1583.2945999478263
2356.8434830088518 1703.4497886802649
2357.41884344318 1806.0901389830153
2357.994064614377 1795.4754237486127
