#exp_cfg={"servo_angle": 0.0, "laser_lim": 100.0, "servo_angle_to": 18.0, "laser_wup": 0.0, "bt_dev": "EnSpectr-25AE3", "laser_wdn_max": 0.0, "frames": 10.0, "servo_used": 0, "servo_calib_use": 0, "laser_wdn_min": 0.0, "servo_pix_from": 90.0, "cooler_tout": 300.0, "servo_angle_from": 0.0, "servo_calib": "[-1.9174921013161362e-09, 3.9322238269163779e-05, -0.27385609119055809, 653.59552119713567]", "laser_autoctl": 0, "servo_pix_to": 3682.0, "laser_pw": 100.0, "cooler_on": 0, "laser_volt": 4.0, "cooler_autoctl": 0, "cooler_curr": 70.0, "cooler_startup": 10.0, "laser_fixed_pw": 0, "gain": 1.3, "offset": 2.53059635486, "servo_calib_degree": 3.0, "laser_curr": 55.0, "shutter": 8200.0, "servo_calib_step": 1.0, "laser_fixed_curr": 0, "exp": 2000.0, "ccd_volt": 4.7, "bt_addr": "00:06:66:62:5A:E3", "servo_delay": 500.0, "laser_autooff": 1}
#proc_cfg={"flat_auto_wnd": 200.0, "flat_auto_fr": 200.0, "flat_auto_shift": 5.0, "yconv": 1, "flatten": 1, "flatten_strength": 100.0, "xfrom": 300.0, "auto_max_frame": 2000.0, "auto_signal": 48000.0, "flat_auto_tol": 0.1, "autoclip": 1, "xrel_range": 0.0, "flat_auto_to": 4000.0, "intensity_adj": 1.0, "xrel": 7852.0, "rmhot": 1, "flat_auto_slit": 4.999999999999997, "auto_ini_exp": 300.0, "auto_off": 0, "xto": 2860.0, "flat_auto_ref": "", "flat_auto_rank": 1, "autobackg": 0, "xrel_adj": 0.0, "auto_black_lvl": 1, "base_wnd": 100.0, "sub_baseline": 0, "xconv": 2, "auto_max_exp": 1000.0, "auto_total_exp": 10000.0, "auto_exp": 0, "rmripple": 0, "black_lvl": 8276.025, "shutter_clip_adj": 0.0, "auto_bckg": 0, "flat_auto_thr": 0.9, "subbackg": 1}
316.8218498245369 10360.750936815328
317.89969571804795 10365.388688740279
318.977263876126 10377.52480652594
320.05455438786703 10198.700389083631
321.1315673423287 10220.338879918392
322.2083028285215 10205.760199206883
323.2847609354267 10176.744536310127
324.3609417519747 10090.23670975367
325.43684536705587 9972.301537326624
326.5124718695279 10046.039757081935
327.58782134820103 9974.71145506046
328.66289389184385 10000.379301609753
329.7376895891921 9777.82715934988
330.8122085289342 9785.363764300895
331.88645079971866 9734.875872227707
332.9604164901575 9705.430384616246
334.03410568881554 9651.240698054604
335.1075184842266 9774.633919480264
336.18065496487543 9584.606204277148
337.2535152192122 9642.446174965777
338.32609933564163 9621.442484090034
339.39840740253203 9635.46916557623
340.4704395082099 9588.415860561276
341.5421957409617 9416.63941312021
342.6136761890357 9616.307814263848
343.6848809406365 9489.548262378452
344.75581008392874 9372.031842183616
345.82646370703696 9433.962211004917
346.8968418980512 9396.84843170634
347.96694474501055 9457.593186100392
349.0367723359268 9420.390893507001
350.106324758759 9392.24844088282
351.1756021014353 9236.709735257416
352.2446044518383 9212.96870671743
353.31333189781435 9382.277249915045
354.38178452716966 9297.20555802948
355.449962427665 9235.989074474808
356.51786568702846 9244.008288815876
357.58549439294256 9340.977165731936
358.6528486330535 9291.188996800845
359.71992849496564 9200.377873645682
360.7867340662433 9286.558114172043
361.8532654344144 9306.503334271805
362.9195226869597 9330.51201977937
363.9855059113288 9266.025613472291
365.05121519492604 9115.126354062264
366.11665062511565 9285.630084839064
367.1818122892273 9291.963138780155
368.2467002745434 9343.854541522574
369.31131466831175 9307.452226618041
370.375655557742 9247.675587854657
371.4397230299983 9391.90408454934
372.5035171722102 9256.578467221108
373.5670380714637 9266.083615981628
374.6302858148101 9393.01750990115
375.6932604892554 9373.615908304335
376.7559621817709 9349.086408563606
377.81839097928605 9294.717162082616
378.8805469686886 9353.404858941196
379.94243023683157 9440.086331942537
381.0040408705263 9374.771510891853
382.0653789565458 9209.966921067451
383.1264445816196 9213.232664991556
384.1872378324406 9272.290101743707
385.2477587956637 9286.681081066226
386.3080075579037 9165.721808022501
387.3679842057336 9075.337217607384
388.4276888256918 9195.301657683201
389.48712150426945 9143.107566969167
390.54628232792857 9070.99887563167
391.6051713830857 8986.410690977125
392.66378875611736 9116.80563560746
393.7221345333637 8991.813209811471
394.7802088011249 8956.241158324801
395.838011645661 8866.033145746684
396.89554315319765 8837.257643243112
397.9528034099112 8748.772488234446
399.00979250194723 8625.154589390062
400.06651051541485 8702.527791673554
401.1229575363741 8790.9679202091
402.17913365085224 8561.54890985153
403.23503894483656 8632.22174929572
404.2906735042761 8617.313584275413
405.3460374150818 8498.60262496862
406.401130763119 8548.362588993643
407.455953634224 8547.531812266563
408.5105061141876 8420.447320294406
409.56478828876243 8296.545246645272
410.6188002436629 8415.95763581097
411.6725420645689 8358.843716498908
412.72601383711117 8435.294190802715
413.77921564689314 8461.624367811011
414.8321475794728 8337.729397838264
415.88480972036814 8306.409105165261
416.93720215506437 8323.19779959085
417.9893249690049 8294.779884221794
419.04117824759123 8202.22694800291
420.09276207619223 8210.86685464303
421.144076540133 8228.18233213286
422.1951217247042 8147.277416387636
423.24589771515275 8174.2623845372855
424.2964045966928 8184.9614488897305
425.34664245449494 8156.947332244378
426.3966113736933 8086.8582069501135
427.4463114393875 8039.201234831242
428.49574273662984 8103.852891424931
429.5449053504417 8052.382804732998
430.5937993658026 8086.131123975983
431.6424248676558 8050.733434065203
432.6907819409007 8021.193693361407
433.73887067040596 7992.3858031778145
434.7866911409965 8019.436443450986
435.8342434374608 7939.402902014101
436.88152764455117 7958.733304990458
437.9285438469724 7927.882196861001
438.9752921294057 7925.633808432613
440.02177257648145 7905.564911239174
441.06798527279716 7815.418208592379
442.1139303029122 8011.993554666149
443.1596077513459 7908.599680362213
444.2050177025794 7872.512920398969
445.25016024105753 7921.268443849824
446.2950354511886 7803.272974975967
447.33964341733736 7839.4772048328505
448.383984223834 7844.058030665848
449.4280579549686 7789.259551456809
450.471864694995 7824.360709767918
451.5154045281306 7880.4682311954075
452.5586775385509 7828.747098773189
453.60168381039693 7838.094370220555
454.64442342776783 7942.136280265525
455.6868964747264 7818.338860950282
456.7291030353008 7782.757343697887
457.77104319347563 7883.544368120269
458.8127170332027 7894.572498948182
459.854124638392 7870.418735725589
460.895266092919 7956.6669982796975
461.93614148061897 7926.968325643489
462.97675088529104 8070.657997626379
464.01709439069236 8014.382216389049
465.0571720805492 7987.558759551312
466.0969840385442 8081.325623501585
467.1365303483253 8189.153092887018
468.17581109350067 8077.624680144298
469.2148263576437 8012.490571782961
470.2535762242878 8109.295622500504
471.29206077693016 8186.802852155042
472.33028009902773 8200.759809919558
473.3682342740012 8154.146475675744
474.40592338523857 8188.625344112455
475.4433475160804 8210.255758226425
476.4805067498364 8186.318155223363
477.51740116978 8226.210775508996
478.5540308591426 8355.110736565533
479.59039590112116 8406.791727109194
480.6264963788726 8365.358200731247
481.6623323755193 8571.426703005829
482.6979039741436 8558.830934142195
483.7332112577915 8761.273066752497
484.76825430947247 8971.33822574473
485.80303321215797 8918.685898443875
486.837548048783 9047.110253839783
487.8717989022425 9241.145991849142
488.90578585539697 9248.912052604228
489.9395089910686 9333.905637858219
490.97296839203955 9264.738805611405
492.00616414106116 9162.831209851662
493.0390963208429 9195.892200510367
494.0717650140559 9183.875282211444
495.10417030333883 8996.31105934284
496.1363122712901 8957.34167315884
497.16819100046814 8749.790044189409
498.1998065734024 8662.217291241748
499.2311590725767 8628.26719330744
500.26224858044407 8433.497169864127
501.2930751794156 8296.897282625574
502.3236389518679 8331.476974111069
503.35393998014115 8106.092783897626
504.38397834653733 8067.334104477634
505.4137541333221 8045.150304826784
506.4432674227228 7889.121814858411
507.4725182969323 7867.927676813245
508.5015068381035 7841.577342074542
509.53023312835467 7851.231003240527
510.55869724976765 7729.949236836639
511.58689928438434 7714.5723158731025
512.6148393142121 7671.055077088237
513.6425174212218 7775.152866124265
514.6699336873462 7675.945333964574
515.6970881944835 7779.649566684684
516.7239810244901 7705.82130921666
517.7506122591931 7873.087421656416
518.7769819803761 7770.131143692923
519.8030902697901 7858.980713387056
520.8289372091476 7805.750104136848
521.8545228801249 7958.814163001183
522.8798473643619 7863.931245674175
523.9049107434621 7822.938173571846
524.9297130989908 7877.311184760816
525.9542545124805 7828.531309454197
526.9785350654201 7809.07194441742
528.0025548392696 7845.2661537777
529.0263139154504 7727.347899988791
530.0498123753423 7790.16458192854
531.073050300296 7668.720120460121
532.0960277716204 7651.562631627285
533.1187448705896 7681.967436027684
534.1412016784416 7657.101486373363
535.1633982763833 7584.883631220048
536.1853347455726 7561.012761944956
537.2070111671401 7639.422876029149
538.2284276221817 7516.356577504749
539.2495841917516 7402.988549198968
540.2704809568677 7354.30628066036
541.2911179985167 7430.49997043676
542.3114953976419 7303.480517553655
543.3316132351592 7240.080380295122
544.3514715919409 7170.981318582652
545.3710705488247 7167.180517754634
546.3904101866156 7169.125893887138
547.4094905860784 7219.757680315348
548.4283118279418 7051.362364741226
549.4468739929034 7127.386828780727
550.4651771616191 7057.428482689344
551.4832214147063 6960.48007619901
552.501006832761 6983.5939634788065
553.5185334963226 6920.462755165802
554.5358014859103 7001.416155987668
555.5528108820035 6947.933622406282
556.5695617650363 6856.630298094696
557.5860542154242 6977.097626867598
558.6022883135283 6902.286899641147
559.6182641396881 6868.6288405294445
560.6339817741991 6932.52564027504
561.6494412973225 6947.757159523814
562.6646427892883 6988.779021579365
563.6795863302796 6831.95962904693
564.694272000459 6798.377806713159
565.7086998799423 6984.549451573073
566.7228700488104 6864.2027256470465
567.7367825871115 6838.9868267233105
568.7504375748576 6872.0638241885845
569.7638350920224 6860.875583531856
570.7769752185486 6855.200526842772
571.7898580343353 6890.437613919533
572.802483619258 6822.784369268465
573.8148520531431 7018.6162329552335
574.8269634157932 7014.232925718497
575.8388177869692 6996.191110941489
576.8504152463938 6940.843417993802
577.8617558737587 7150.941177775341
578.8728397487175 7029.059320235135
579.883666950891 7122.580707604133
580.8942375598654 7283.016059148572
581.9045516551851 7321.060298359365
582.9146093163617 7539.845428489306
583.924410622878 7378.577008217879
584.9339556541727 7352.456342131321
585.9432444896538 7568.604854767075
586.9522772086875 7502.947972807521
587.9610538906127 7598.955195707631
588.9695746147318 7467.373572362126
589.9778394603054 7548.22976868744
590.985848506567 7461.550880724617
591.9936018327098 7467.769426615147
593.0010995178891 7208.566568480304
594.0083416412344 7336.214175250246
595.0153282818283 7095.794835374201
596.0220595187293 7129.784334373131
597.0285354309508 7046.220514424438
598.0347560974806 7047.722386855932
599.0407215972609 6944.159185679348
600.0464320092051 6930.392649151358
601.0518874121954 6927.052209948852
602.0570878850685 6837.893349265825
603.062033506636 6876.071364152807
604.0667243556636 6820.502889020427
605.0711605108936 6743.600844359267
606.0753420510264 7028.511620052227
607.0792690547278 6825.8154272690135
608.082941600629 6801.842242284985
609.0863597673306 6917.533118773425
610.0895236333909 6926.462625425191
611.0924332773357 7057.283464337475
612.0950887776617 6967.620135948981
613.0974902128219 7032.579507447335
614.0996376612384 7183.962753088928
615.1015312013005 7181.195491081016
616.1031709113595 7336.470709088011
617.1045568697336 7304.442868438908
618.1056891547069 7442.350791780444
619.1065678445229 7554.032848378857
620.1071930173985 7778.209897101406
621.1075647515099 7827.592950365984
622.1076831250048 7929.63871051453
623.1075482159849 8031.7985409542
624.1071601025305 8186.72810291089
625.1065188626781 8282.815298655183
626.105624574433 8599.311387866957
627.1044773157682 8674.38193537131
628.1030771646128 8654.306647056783
629.1014241988742 8879.609883115787
630.0995184964158 9070.451495368825
631.0973601350688 9132.858645243861
632.0949491926294 9289.359744178259
633.0922857468631 9154.545481134419
634.089369875499 9248.064716193076
635.0862016562278 9192.9065394957
636.0827811667077 9005.358838794395
637.0791084845641 9026.935760670693
638.0751836873878 8880.678865571985
639.0710068527369 8960.589750061705
640.0665780581294 8701.954141622446
641.0618973810506 8517.342215986795
642.0569648989604 8543.035616215291
643.0517806892676 8241.189828100647
644.0463448293649 8170.792343600302
645.040657396592 8033.372522403211
646.0347184682723 7856.08083948103
647.0285281216875 7738.748334004164
648.0220864340772 7648.136208923768
649.0153934826558 7504.268614487328
650.0084493446047 7458.467603439449
651.0012540970674 7460.785712174758
651.9938078171526 7391.454264042882
652.9861105819346 7393.83871048506
653.9781624684565 7618.567766105087
654.9699635537254 7431.477006328106
655.9615139147136 7617.09213077664
656.9528136283589 7537.818190301083
657.9438627715699 7822.229794337591
658.9346614212154 7782.364529047355
659.925209654135 7634.62259603707
660.9155075471263 7615.625500421217
661.9055551769616 7571.737187560888
662.895352620375 7519.288049165606
663.8848999540678 7244.135240306637
664.8741972547068 6952.979013478395
665.863244598926 6866.385873439091
666.8520420633213 6908.635887279607
667.8405897244611 6690.985530981347
668.8288876588758 6532.719127109308
669.8169359430613 6678.038154794915
670.8047346534822 6619.868852216749
671.7922838665672 6432.473120082022
672.7795836587156 6564.772582507151
673.766634106285 6720.507036893963
674.7534352856092 6397.196132035463
675.7399872729766 6394.67994044401
676.7262901446538 6450.009751414366
677.712343976862 6389.9221706591225
678.6981488457986 6430.149860688187
679.6837048276229 6302.720701760064
680.6690119984596 6411.317449832241
681.6540704344043 6402.182318591518
682.6388802115107 6359.717248912264
683.6234414058108 6365.715989258331
684.6077540932874 6301.980720847909
685.591818349907 6296.534299417354
686.575634251587 6382.721249623038
687.5592018742263 6294.976957816842
688.5425212936734 6172.958732893386
689.5255925857564 6386.802726674334
690.5084158262707 6323.441720393626
691.4909910909646 6231.332672873098
692.4733184555644 6206.250926895346
693.4553979957618 6235.562989707033
694.4372297872123 6260.503270070474
695.4188139055404 6127.293068844616
696.4001504263324 6002.7825766886945
697.3812394251509 6127.524932579432
698.3620809775111 5963.199591907284
699.3426751589104 6005.384981584124
700.3230220448004 5966.6093299754175
701.3031217106054 6035.982088925419
702.2829742317172 6130.4532820018485
703.2625796834873 5896.304074424542
704.2419381412474 5877.614741573986
705.22104968028 5983.8359768376295
706.1999143758458 5923.942100880769
707.178532303169 5938.644534349953
708.1569035374378 5958.131895799849
709.1350281538107 6045.92331468963
710.1129062274158 6005.8040433053875
711.0905378333373 6098.693704387611
712.0679230466376 6121.3047703508755
713.0450619423427 6203.713914402201
714.0219545954424 6298.821955218541
714.9986010808989 6219.875550511513
715.9750014736292 6328.157445147896
716.9511558485392 6398.355043367451
717.9270642804786 6536.600953775311
718.9027268442787 6499.644348273885
719.8781436147328 6534.044239863192
720.8533146666014 6515.780173938078
721.828240074612 6576.792865883207
722.8029199134635 6517.51619366407
723.7773542578125 6514.964496402465
724.751543182294 6450.126795562024
725.7254867615029 6539.01530806075
726.6991850700015 6292.905212105684
727.6726381823228 6306.62295650319
728.6458461729599 6355.91170070967
729.6188091163858 6274.378937693146
730.5915270870246 6270.455373055397
731.5640001592856 6150.131087655704
732.536228407529 6192.943389782557
733.5082119060917 6213.009117347466
734.4799507292755 6192.124606616446
735.4514449513481 6105.809934539033
736.4226946465496 6245.005431997824
737.3936998890786 6290.293359839763
738.3644607531078 6091.806469808837
739.3349773127793 6120.092866534993
740.3052496421951 6143.697461780511
741.27527781543 5990.377716842933
742.2450619065221 5970.635570032086
743.2146019894826 6037.698261245638
744.183898138288 6054.2154674710455
745.1529504268801 5965.505746711949
746.1217589291682 5865.586505036922
747.0903237190341 5899.345124227765
748.058644870318 5890.190902675879
749.0267224568397 5852.293464368533
749.994556552374 5728.255449974104
750.9621472306771 5793.413704888475
751.9294945654583 5776.181964749128
752.8965986304011 5813.636097770743
753.8634594991636 5700.829365941458
754.8300772453586 5789.628824748496
755.7964519425768 5758.313204830183
756.762583664371 5846.13073097098
757.7284724842611 5909.328483519067
758.6941184757416 5741.548487417891
759.6595217122667 5810.308916608502
760.6246822672638 5820.354867195994
761.5896002141235 5651.820819324667
762.5542756262093 5789.700771150505
763.5187085768503 5807.994200319333
764.4828991393406 5742.642095048128
765.4468473869474 5797.00382180203
766.4105533929032 5859.7867343101825
767.3740172304078 5756.663564541718
768.3372389726283 5822.713854764707
769.3002186926988 5665.208832060871
770.2629564637282 5663.8913167149985
771.2254523587872 5674.214775546518
772.1877064509154 5630.659743374576
773.1497188131179 5447.957040917
774.1114895183728 5429.000953754352
775.0730186396268 5469.092161269467
776.0343062497905 5449.965797832652
776.9953524217381 5432.918550344226
777.9561572283274 5456.601976657159
778.9167207423689 5424.350586190026
779.8770430366476 5312.467951132851
780.8371241839159 5327.550977245859
781.7969642568951 5333.147100771095
782.7565633282757 5553.786126655266
783.7159214707099 5381.886031090488
784.6750387568281 5401.431831899811
785.6339152592227 5370.302305503384
786.5925510504512 5349.2590301800465
787.5509462030477 5372.950796490232
788.5091007895098 5381.819676058728
789.4670148823006 5355.197776287925
790.4246885538596 5327.130593603437
791.3821218765861 5387.7538283184595
792.3393149228505 5189.913919510093
793.2962677649975 5369.161897426275
794.2529804753303 5386.821019786736
795.20945312613 5400.662595585983
796.1656857896378 5353.831679907143
797.1216785380675 5306.630691428879
798.0774314435985 5444.148576769474
799.0329445783846 5545.771089784906
799.9882180145414 5501.528938850366
800.9432518241574 5501.958623986013
801.89804607929 5611.396779537775
802.852600851962 5666.345826542021
803.8069162141637 5629.506705630102
804.760992237856 5764.329260527796
805.714828994971 5767.427505382992
806.6684265574077 5866.849017036134
807.6217849970271 5786.709134693256
808.574904385674 5765.188081435122
809.527784795142 5870.966262214017
810.4804262972102 5875.293801206759
811.4328289636178 5684.2963331475075
812.3849928660748 5499.274842732447
813.3369180762638 5493.651896561484
814.2886046658241 5640.917337898615
815.2400527063783 5446.147014978461
816.1912622695108 5414.98985556419
817.1422334267718 5455.350488103843
818.0929662496856 5275.571580375738
819.0434608097457 5165.551770819432
819.9937171784059 5225.162715783828
820.9437354271013 5146.732331069607
821.8935156272255 5266.0237973801595
822.8430578501484 5111.300245149956
823.7923621672016 4986.120816377098
824.7414286496896 5054.61833640185
825.6902573688876 5122.162805304694
826.6388483960363 5009.112440239689
827.5872018023492 4944.756463404743
828.5353176590033 5111.534519909497
829.4831960371503 4890.622023151328
830.4308370079016 4924.284572062489
831.3782406423525 4981.563555152746
832.3254070115545 4963.389211781446
833.2723361865319 4913.221945101504
834.2190282382799 4813.607459847558
835.1654832377644 4878.435111393984
836.1117012559116 4805.889705178976
837.0576823636256 4960.98748202349
838.003426631778 4826.551687906132
838.9489341312074 4770.233611513145
839.8942049327197 4947.6842280763185
840.8392391070975 5002.174891324743
841.7840367250865 4841.819297379352
842.7285978573982 4768.283386846478
843.672922574724 4897.88124268745
844.6170109477152 4849.507566607185
845.560863046996 4806.923342051932
846.5044789431595 4821.240525681714
847.4478587067697 4817.047757550149
848.3910024083561 4960.824094603203
849.333910118421 4866.766515526925
850.2765819074339 4801.699168600227
851.2190178458332 4876.456827286911
852.161218004032 4976.244905877944
853.1031824524016 4958.3381617114665
854.0449112612987 4845.500501528697
854.9864045010327 4923.365829191773
855.9276622418947 4800.027872402623
856.8686845541379 4865.326571819436
857.8094715079915 4847.817836850718
858.7500231736467 4992.959398681885
859.690339621271 4861.75974762242
860.6304209209939 4830.060824884141
861.5702671429244 4844.625240965981
862.5098783571284 4908.083976580645
863.4492546336569 4949.2237926363005
864.3883960425155 4926.850791633681
865.3273026536863 4920.777374002696
866.2659745371238 4821.496927400249
867.2044117627465 5036.216735449789
868.1426144004472 4970.779450344729
869.0805825200823 5026.942563088117
870.0183161914847 5017.063327199441
870.9558154844526 5186.809158695906
871.8930804687552 5128.501266639915
872.8301112141307 5007.332941735708
873.7669077902865 5172.360969976773
874.7034702669062 5351.23288865685
875.6397987136315 5150.434142140136
876.5758932000863 5283.977154943827
877.5117537958522 5389.355819857303
878.4473805704911 5305.6686485952205
879.3827735935283 5312.351106971528
880.3179329344603 5441.7978722486605
881.2528586627541 5520.192636251052
882.1875508478479 5506.150337177257
883.1220095591489 5449.410259411021
884.0562348660296 5399.200063835682
884.9902268378391 5538.900212056533
885.9239855438955 5386.897540834072
886.8575110534839 5285.561704702757
887.7908034358588 5312.28225373269
888.7238627602474 5342.670290682076
889.6566890958475 5388.393246798158
890.5892825118208 5175.457865040662
891.5216430773125 5230.14710597139
892.4537708614189 5284.115425131955
893.3856659332196 5139.599332656918
894.3173283617652 4996.285189792873
895.2487582160684 5159.321468146617
896.179955565116 5077.479279908193
897.110920477864 4984.383093486244
898.0416530232451 4981.434425668165
898.9721532701478 4928.934323049911
899.9024212874428 5064.310148781611
900.8324571439662 4822.287699811698
901.7622609085302 4814.283625090194
902.6918326499072 4805.612164613257
903.6211724368477 4871.888072110632
904.5502803380696 5013.855243139717
905.4791564222614 4971.958749156103
906.4078007580792 4789.346268478802
907.3362134141571 4819.5687702669
908.2643944590909 5030.586580423174
909.1923439614493 4853.257606093317
910.1200619897754 4906.8321053975005
911.0475486125779 5168.11539432598
911.9748038983344 4979.091069766242
912.9018279155007 4908.691133310515
913.8286207324982 4766.587228082195
914.7551824177117 4956.089044905848
915.6815130395116 4892.285851846218
916.6076126662283 4782.068919999127
917.533481366163 4823.953004760848
918.4591192075914 4798.013814581221
919.3845262587565 4878.61814390567
920.3097025878706 4728.936574519784
921.2346482631237 4691.560571661839
922.1593633526682 4697.721964867538
923.0838479246304 4847.381173177008
924.0081020471061 4878.860143974694
924.9321257881656 4589.484892110762
925.8559192158464 4693.568751077039
926.7794823981512 4573.984813425802
927.7028154030686 4554.979114387623
928.6259182985414 4571.013782177613
929.5487911524906 4708.059123205092
930.4714340328119 4749.212216870265
931.3938470073608 4459.253436023529
932.3160301439748 4559.874767581343
933.2379835104548 4602.961578792942
934.1597071745709 4710.18299917511
935.0812012040769 4629.367871087623
936.002465666681 4695.074465389178
936.9235006300696 4692.4428900792855
937.8443061619055 4687.7824032548
938.7648823298077 4519.709799680715
939.6852292013809 4573.425005523211
940.6053468441951 4616.413540684537
941.5252353257874 4470.465297002724
942.4448947136698 4614.896141737351
943.364325075323 4498.390795370296
944.2835264782043 4629.64041811889
945.2024989897309 4554.367750565432
946.1212426773054 4631.630111351062
947.0397576082851 4696.477845472764
947.9580438500125 4798.964101288582
948.8761014697939 4750.095945756654
949.7939305349064 4688.073292598158
950.7115311125999 4596.080636416529
951.6289032700952 4554.856485113164
952.5460470745875 4730.547774270059
953.4629625932339 4644.592491261961
954.3796498931715 4725.677412037898
955.2961090415029 4694.54767889985
956.2123401053068 4622.417242917529
957.1283431516276 4636.686996034448
958.0441182474842 4567.483337283507
958.9596654598663 4768.579876647449
959.8749848557309 4653.218076243997
960.7900765020167 4602.90958766554
961.7049404656209 4618.219527258969
962.6195768134185 4596.8639672409945
963.5339856122537 4639.954374056949
964.4481669289453 4727.864735697003
965.3621208302793 4674.297176309794
966.2758473830145 4540.035372159017
967.1893466538822 4765.489487222026
968.1026187095813 4573.167391462264
969.0156636167867 4569.405736700568
969.9284814421426 4669.271304199145
970.8410722522622 4654.561195254528
971.753436113735 4565.673094011319
972.6655730931161 4578.531808167396
973.5774832569368 4692.638431511737
974.4891666716958 4544.283512819144
975.4006234038698 4552.011749144416
976.3118535198955 4543.006625873288
977.2228570861935 4695.74480730479
978.1336341691494 4722.975483981422
979.0441848351202 4509.101562758889
979.9545091504333 4673.082015396947
980.864607181391 4652.68418508947
981.7744789942699 4661.081898104838
982.6841246553086 4695.893551412572
983.5935442307236 4677.999429850073
984.5027377867027 4760.452002565181
985.4117053894024 4811.68644195496
986.3204471049557 4594.294808276924
987.2289629994648 4753.546533352912
988.1372531390007 4800.098164890761
989.0453175896091 4723.089191173311
989.9531564173067 4797.867020290787
990.860769688079 4651.227300791974
991.7681574678918 4718.906022181212
992.6753198226706 4774.407505905753
993.582256818323 4724.628625954521
994.4889685207218 4758.697886158191
995.3954549957143 4891.775385749195
996.301716309119 4977.001796207422
997.2077525267232 4819.58440506923
998.1135637142943 4807.407467994658
999.0191499375615 4949.829118710241
999.924511262232 4950.22429909131
1000.8296477539861 4968.904088455582
1001.7345594784656 4900.297523467428
1002.6392465012996 4904.10374843091
1003.5437088880753 4980.560462275393
1004.4479467043584 4929.793196111936
1005.3519600156869 4781.229122995537
1006.2557488875718 4967.049644818
1007.1593133854858 4906.867909231301
1008.0626535748888 4822.891080426241
1008.9657695212009 4784.7777588738045
1009.8686612898182 5019.1986880865625
1010.7713289461135 4994.202537913638
1011.6737725554212 4918.828190223108
1012.5759921830577 4875.300680229978
1013.4779878943027 4989.247020631306
1014.379759754418 4994.985243904319
1015.2813078286254 4839.898634228395
1016.18263218213 4811.894896850492
1017.0837328801026 4754.224736061913
1017.9846099876886 4890.951623977403
1018.8852635700023 4757.740446419366
1019.7856936921362 4647.679867147055
1020.6859004191447 4861.800696284353
1021.5858838160675 4713.24857444265
1022.4856439479063 4620.66114894615
1023.3851808796389 4609.366839039822
1024.2844946762143 4766.258749520386
1025.183585402554 4771.179383576261
1026.082453123554 4465.49423555772
1026.9810979040776 4654.755611934903
1027.8795198089647 4535.003871051833
1028.777718903024 4642.035362429558
1029.6756952510368 4509.943163640873
1030.5734489177648 4549.946028805398
1031.4709799679313 4526.095576864724
1032.3682884662358 4703.8655803248585
1033.2653744773506 4424.925749365188
1034.1622380659192 4383.55263221096
1035.058879296559 4521.699194239138
1035.9552982338591 4596.372587768782
1036.8514949423825 4530.51924021319
1037.7474694866614 4437.806336576465
1038.6432219312028 4369.788021567872
1039.5387523404825 4580.564938518701
1040.4340607789582 4494.821407792604
1041.3291473110476 4448.709008143866
1042.2240120011465 4616.921537951174
1043.1186549136273 4630.09406887597
1044.0130761128294 4506.4514129424515
1044.9072756630649 4523.554682013151
1045.8012536286205 4585.532446821012
1046.6950100737577 4612.129196769811
1047.588545062701 4661.320024518616
1048.481858659663 4607.111337226908
1049.3749509288118 4734.071829396211
1050.2678219343034 4601.771296755582
1051.1604717402515 4636.9502744145375
1052.0529004107575 4515.687676298496
1052.9451080098825 4684.216611768768
1053.8370946016694 4675.507175454883
1054.7288602501267 4715.118529029975
1055.6204050192446 4616.17991461717
1056.511728972977 4761.386662505808
1057.402832175254 4766.750331337053
1058.2937146899785 4627.70845655923
1059.1843765810263 4629.431504680013
1060.0748179122456 4764.503976410084
1060.9650387474576 4652.419992951831
1061.855039150456 4675.75565932035
1062.7448191850071 4700.983005456423
1063.6343789148505 4747.448411317554
1064.5237184037014 4786.877021770384
1065.412837715241 4679.816716253353
1066.3017369131267 4683.1575216793735
1067.190416060992 4634.682091866724
1068.0788752224398 4630.464455925159
1068.9671144610438 4614.800770235726
1069.8551338403558 4758.388209475357
1070.7429334239023 4732.2494914041445
1071.6305132751695 4548.017701623204
1072.517873457633 4638.995387953142
1073.4050140347335 4599.10552640902
1074.2919350698776 4621.555460256399
1075.1786366264623 4545.949661377049
1076.0651187678395 4624.322141959879
1076.95138155735 4492.539218967434
1077.8374250582929 4501.552853258711
1078.7232493339507 4595.155166182348
1079.608854447577 4551.134946285984
1080.4942404623907 4450.3193966362305
1081.3794074415982 4584.3303776289185
1082.2643554483657 4594.9768706312025
1083.149084545841 4533.144571925196
1084.033594797138 4482.6486106549
1084.9178862653516 4434.077123836041
1085.8019590135427 4671.9516282863615
1086.6858131047484 4337.426135088837
1087.5694486019802 4500.60348266013
1088.4528655682225 4517.20992047527
1089.3360640664287 4688.4249680440025
1090.2190441595321 4514.865965790765
1091.1018059104317 4463.652927922835
1091.98434938201 4578.343235394908
1092.866674637111 4663.671228752301
1093.748781738559 4495.480724876132
1094.6306707491512 4399.331513744892
1095.5123417316554 4566.353684964447
1096.3937947488157 4557.417334030998
1097.2750298633455 4467.383313846841
1098.156047137938 4468.883797933456
1099.0368466352556 4520.5942125674155
1099.9174284179317 4610.342169192759
1100.7977925485757 4331.84260693528
1101.6779390897755 4422.27121191473
1102.5578681040806 4480.317646238821
1103.4375796540226 4475.939456507602
1104.3170738021054 4377.398059828566
1105.1963506108077 4313.685416004296
1106.0754101425773 4276.942068364385
1106.9542524598382 4378.874421877065
1107.8328776249855 4369.6777514858995
1108.7112857003904 4368.0642112971545
1109.5894767483987 4290.205046998703
1110.4674508313292 4471.336368291339
1111.3452080114657 4391.901086973525
1112.2227483510815 4479.907543706681
1113.1000719124077 4545.278531212297
1113.9771787576592 4648.482652963699
1114.854068949022 4545.558225510923
1115.7307425486542 4667.458402129139
1116.6071996186893 4735.843609201234
1117.483440221229 4853.921645702214
1118.3594644183577 4598.5795814814965
1119.235272272128 4715.568376804304
1120.1108638445658 4805.1730682849
1120.9862391976712 5007.994836740001
1121.8613983934229 4872.42579149411
1122.7363414937627 4994.474869056357
1123.6110685606182 5060.267799442462
1124.485579655884 5167.8862629200485
1125.359874841426 5124.1259619520915
1126.2339541790916 5177.793236064242
1127.1078177306936 5331.27393275546
1127.9814655580267 5178.004382925226
1128.854897722851 5217.885767595084
1129.7281142869106 5220.069595598032
1130.6011153119125 5215.441448243606
1131.473900859548 5442.521136263821
1132.3464709914697 5294.600068407397
1133.2188257693178 5266.405713313273
1134.0909652546961 5116.71852900554
1134.96288950919 5088.7950893901825
1135.8345985943506 5198.851959741706
1136.7060925717087 4917.1072918258
1137.57737150277 5071.541911118748
1138.4484354490069 5175.865771270308
1139.3192844718778 4938.887001960218
1140.1899186327992 4778.822961134627
1141.060337993178 4970.887786480301
1141.930542614382 4846.665234768805
1142.8005325577597 4722.087036381827
1143.670307884635 4540.014781046816
1144.5398686563003 4714.834346184276
1145.409214934025 4672.852061348538
1146.2783467790541 4505.93116789751
1147.1472642526023 4579.953907266865
1148.0159674158622 4658.54649796942
1148.8844563300026 4410.12894184537
1149.7527310561618 4384.6137829778645
1150.6207916554504 4332.535875326874
1151.4886381889592 4262.718703119595
1152.3562707177498 4469.23279940788
1153.2236893028585 4266.5434341615255
1154.090894005296 4236.059680309798
1154.9578848860474 4260.1415868881795
1155.8246620060709 4234.857295917585
1156.6912254262988 4030.140509990152
1157.5575752076438 4133.932741521719
1158.42371141098 4351.5113766799805
1159.2896340971656 4337.007005735162
1160.1553433270346 4208.087341786053
1161.0208391613887 4304.285807814203
1161.8861216610057 4292.96006814492
1162.75119088664 4275.482614117374
1163.6160468990201 4170.216584586608
1164.4806897588442 4101.7659322429045
1165.3451195267917 4251.257862157766
1166.2093362635114 4332.145051971735
1167.0733400296285 4214.5962821682215
1167.9371308857444 4095.4530125359925
1168.8007088924278 4131.944219078641
1169.6640741102328 4210.023705233128
1170.5272265996773 4103.760854441365
1171.390166421259 4040.2338003050513
1172.252893635452 4230.91963478423
1173.1154083026995 4357.215182604499
1173.977710483421 4247.633715569393
1174.8398002380145 4097.918463604585
1175.7016776268483 4264.042638554626
1176.563342710264 4152.250137506011
1177.4247955485826 4114.071370805215
1178.2860362020947 4275.034457689298
1179.147064731069 4113.436891382688
1180.0078811957483 4230.089454388613
1180.8684856563486 4213.136995505064
1181.7288781730604 4275.712944937493
1182.589058806052 4318.674791919502
1183.4490276154593 4487.808801330129
1184.3087846614017 4207.803303047329
1185.1683300039676 4316.435697118446
1186.027663703222 4561.795988146043
1186.8867858192025 4338.47692580279
1187.7456964119228 4424.5332514020865
1188.6043955413716 4434.180521569881
1189.4628832675116 4599.385533132991
1190.3211596502842 4732.454145103038
1191.179224749596 4685.644806567735
1192.0370786253388 4487.7463392128775
1192.8947213373758 4727.843386888959
1193.7521529455407 4848.954713241264
1194.6093735096438 4575.207869851152
1195.466383089477 4576.838796328733
1196.3231817447977 4638.236756639074
1197.1797695353398 4763.024799828176
1198.0361465208189 4514.337600292716
1198.8923127609214 4556.189230420667
1199.7482683153048 4748.88852169877
1200.6040132436028 4855.356369887488
1201.459547605431 4672.430976516333
1202.3148714603722 4773.191914364761
1203.1699848679855 4762.073259244782
1204.0248878878065 4775.621190729714
1204.8795805793507 4489.856825923155
1205.7340630020935 4696.5175885419785
1206.5883352155033 4747.121531187309
1207.4423972790064 4710.92211644728
1208.2962492520237 4560.671187121859
1209.1498911939307 4644.412168243309
1210.0033231640937 4676.929338932626
1210.8565452218427 4623.641809468003
1211.7095574264913 4345.307540377612
1212.5623598373222 4439.328773455256
1213.4149525135963 4357.168106411978
1214.2673355145507 4472.732583052433
1215.1195088993936 4377.6910492099
1215.9714727273113 4316.917467976362
1216.8232270574663 4525.3885629871365
1217.6747719489904 4241.531189646782
1218.5261074609934 4209.480192111945
1219.3772336525653 4372.678337791685
1220.2281505827668 4435.145214006445
1221.0788583106296 4411.4952088834325
1221.9293568951707 4130.516304837406
1222.7796463953746 4121.280772421329
1223.629726870202 4273.212830250318
1224.4795983785934 4266.960679260782
1225.3292609794553 4167.377504529359
1226.1787147316809 4094.729727141217
1227.0279596941327 4171.881312810467
1227.8769959256424 4124.9681630767545
1228.7258234850306 4169.748887691984
1229.5744424310833 3973.0127923665714
1230.422852822563 4312.392026003153
1231.2710547182105 4375.736455163727
1232.119048176739 4183.382663957455
1232.9668332568417 3925.862109729783
1233.8144100171812 4208.668597211794
1234.6617785163999 4197.439127110212
1235.508938813111 3909.988354991041
1236.3558909659114 3889.4882566512692
1237.2026350333617 4209.968080734542
1238.049171074008 4260.449025203907
1238.8954991463652 4006.5550090656216
1239.741619308932 4008.522890464704
1240.587531620169 4084.893459107718
1241.4332361385277 4160.372890322696
1242.2787329224248 3985.3653844895284
1243.1240220302534 4008.390542438822
1243.9691035203869 3987.8996590698225
1244.813977451171 4163.467205555657
1245.6586438809263 4081.774279255152
1246.5031028679496 3828.5509385608943
1247.3473544705157 4151.9525932653805
1248.1913987468706 4025.8311485436243
1249.0352357552383 3837.042946676245
1249.8788655538228 3887.276952580917
1250.7222882007918 4120.992711427094
1251.565503754302 4169.093877409128
1252.4085122724755 3816.717846054225
1253.2513138134182 4133.946661759922
1254.0939084352049 4020.2089277852874
1254.9362961958905 4025.651652172118
1255.7784771535007 3969.6109576284844
1256.6204513660432 4097.078863085642
1257.4622188915 4273.746461598242
1258.3037797878242 4015.3686988680356
1259.1451341129468 3943.705019466769
1259.9862819247755 4079.6883231073866
1260.8272232811978 3982.443065786475
1261.6679582400666 4289.423359501199
1262.5084868592203 3939.3869303324545
1263.34880919647 3989.237459702193
1264.1889253095997 4058.270103375392
1265.0288352563712 4199.65370724471
1265.8685390945266 3996.717348171581
1266.7080368817751 4180.5592677233235
1267.5473286758115 4270.377810403894
1268.386414534294 4191.443216271154
1269.2252945148703 3818.573708077523
1270.0639686751547 4005.7832955333615
1270.9024370727402 3998.710799736439
1271.7406997651997 3951.0175394144208
1272.5787568100714 3833.233119304756
1273.4166082648808 3865.118327710106
1274.2542541871244 3982.6808456415542
1275.091694634275 4318.6434210985435
1275.9289296637817 3832.698248448941
1276.7659593330663 4144.6091952466295
1277.6027836995308 4026.1888893923533
1278.4394028205552 4223.793307079999
1279.2758167534867 3964.84270927069
1280.112025555658 4026.2684725635313
1280.9480292843746 4099.39723364167
1281.7838279969128 3815.1182584483963
1282.6194217505326 4022.815345445973
1283.4548106024686 3886.358874401617
1284.289994609926 3928.431355638559
1285.1249738300921 4086.6617986961
1285.959748320127 3972.461756687223
1286.7943181371702 4004.653266279426
1287.6286833383328 4066.7915236402514
1288.4628439807038 4005.249213585777
1289.2968001213521 4025.3974532343564
1290.1305518173194 4044.07403640406
1290.9640991256183 4086.7798178944518
1291.7974421032523 3920.6768808897186
1292.630580807183 3886.0073231467104
1293.463515294361 4138.223229537731
1294.29624562171 4213.9834839497535
1295.12877184613 4020.1024379546507
1295.961094024493 3984.8066969408865
1296.79321221365 4192.0379500782565
1297.6251264704333 4132.09873457311
1298.4568368516466 4390.824682727371
1299.2883434140658 4191.74369320828
1300.1196462144526 4046.857650889104
1300.9507453095375 4266.082005562509
1301.7816407560313 4250.24049132462
1302.6123326106172 4238.868189955572
1303.4428209299622 4128.423211542689
1304.2731057707024 4403.431166482182
1305.1031871894502 4221.078666194684
1305.933065242798 4316.902136100144
1306.7627399873181 4237.445469678174
1307.5922114795467 4572.882478792423
1308.4214797760123 4754.647668825646
1309.2505449332057 4348.9152584869
1310.0794070076026 4486.438005173707
1310.9080660556538 4634.098614332039
1311.736522133786 4583.980993387975
1312.5647752983987 4328.601665583315
1313.3928256058734 4297.585889762571
1314.2206731125661 4621.83472249057
1315.048317874809 4470.519547723961
1315.8757599489109 4414.271553296576
1316.7029993911547 4444.715714465041
1317.5300362578055 4623.6530362120675
1318.356870605101 4332.079041713502
1319.183502489257 4403.638284845987
1320.0099319664623 4471.346202297158
1320.836159092889 4564.103618450639
1321.66218392468 4577.072021433082
1322.4880065179532 4335.065550345091
1323.3136269288134 4398.892748515988
1324.1390452133292 4684.503362408178
1324.9642614275563 4777.41967832054
1325.7892756275214 4424.506311910756
1326.6140878692295 4426.579338997863
1327.4386982086617 4862.088870441401
1328.2631067017755 4538.036286734819
1329.0873134045069 4502.918636362529
1329.911318372764 4458.297068546763
1330.735121662441 4499.854233764515
1331.558723329399 4411.720606192115
1332.3821234294774 4395.030524891183
1333.2053220185007 4410.515444006507
1334.0283191522612 4386.984960208986
1334.851114886529 4466.607084260597
1335.6737092770582 4257.236163132912
1336.4961023795695 4327.773113828124
1337.3182942497697 4269.965623270806
1338.1402849433325 4359.375547111266
1338.962074515921 4182.281148681864
1339.7836630231632 4194.676028351257
1340.6050505206676 4674.442681528369
1341.426237064028 4448.370706332649
1342.2472227088037 4188.387465244652
1343.0680075105338 4170.973212291517
1343.888591524741 4255.442437259484
1344.7089748069138 4372.132128616369
1345.5291574125276 4251.674597710646
1346.3491393970307 4030.418278654341
1347.168920815846 4332.440182914083
1347.9885017243778 4408.967359254921
1348.8078821780036 4116.018502710119
1349.6270622320844 4254.801408957983
1350.4460419419447 4113.180624320221
1351.2648213629054 4304.157819530776
1352.0834005502438 4007.506602140559
1352.90177955923 3991.6252473925756
1353.7199584451064 4143.3496345689855
1354.5379372630887 4090.612504053798
1355.355716068374 4113.2035439343
1356.1732949161305 3937.133211000934
1356.9906738615155 4074.0754375429656
1357.8078529596478 4102.894398418698
1358.6248322656375 4192.2404093038585
1359.441611834567 3925.2791993748206
1360.2581917214866 4133.104833255744
1361.0745719814367 4054.063425821377
1361.890752669433 3924.2921323713053
1362.7067338404577 3919.6866931140567
1363.5225155494845 4120.799390942799
1364.3380978514506 4174.783687131454
1365.1534808012839 3786.2086654554478
1365.9686644538815 3674.1272012302143
1366.783648864117 4054.297601996059
1367.5984340868417 4063.952803279151
1368.413020176893 3985.971447521652
1369.2274071890715 3816.4164617203373
1370.0415951781652 4105.970909274557
1370.8555841989346 3991.2098520843924
1371.6693743061223 3824.010479096686
1372.48296555444 3690.006933222642
1373.2963579985844 3952.4966479793497
1374.1095516932255 3958.9596281352824
1374.9225466930166 3609.836946049484
1375.7353430525782 3885.514172820972
1376.5479408265164 3822.0999175746656
1377.36034006941 3952.5018082263114
1378.1725408358216 4000.7994418031803
1378.9845431802805 3615.018792305633
1379.796347157304 4202.990179704723
1380.6079528213813 3956.0465750273324
1381.4193602269788 3774.6818128480454
1382.230569428546 3734.5791550178524
1383.0415804805016 4090.1871590505734
1383.852393437246 3968.644918275827
1384.6630083531563 4004.274126627834
1385.4734252825892 3753.5824046886073
1386.2836442798798 3867.5333139021577
1387.0936653993322 3907.3267117080118
1387.9034886952395 3810.4134235317206
1388.713114221864 3944.272710243321
1389.5225420334482 3977.471731956752
1390.331772184214 3721.7767789595696
1391.1408047283585 3562.833167135006
1391.9496397200564 3749.970460021569
1392.758277213461 3883.2572525593496
1393.5667172627054 3925.8965188300194
1394.3749599218918 3712.5067738145617
1395.1830052451114 3564.794836308846
1395.9908532864265 3686.0726033984565
1396.7985040998774 3871.1958002047113
1397.6059577394808 3563.1999448108145
1398.4132142592352 3638.062949048132
1399.2202737131156 3655.1494916455536
1400.027136155073 3897.1231476150983
1400.8338016390353 3649.84478048582
1401.6402702189134 3623.2445685509365
1402.446541948586 3727.1769230184777
1403.2526168819204 3660.6667814916123
1404.058495072757 3578.1013233825543
1404.8641765749107 3650.087154691509
1405.6696614421799 3748.4791538063027
1406.4749497283356 4133.178946944437
1407.280041487129 3683.3992456903734
1408.084936772295 3485.9836432064003
1408.8896356375335 3890.928533179574
1409.6941381365323 3745.1432348119824
1410.498444322955 3509.846323732665
1411.3025542504402 3632.591295993817
1412.106467972606 3740.293066261219
1412.9101855430508 3734.632268083963
1413.7137070153458 3376.145295868934
1414.5170324430437 3594.667916555368
1415.320161879672 3733.7147543803558
1416.1230953787435 3877.334043705886
1416.925832993742 3542.671331315609
1417.7283747781275 3423.1918293232907
1418.5307207853439 3734.552900218775
1419.3328710688093 3582.801519171791
1420.134825681922 3390.4285802875047
1420.9365846780584 3458.322795851923
1421.7381481105713 3801.1180115179204
1422.539516032788 3571.766859332235
1423.3406884980232 3392.6985403803365
1424.1416655595604 3395.8872164434833
1424.942447270665 3500.520723541961
1425.7430336845828 3686.794883639908
1426.5434248545298 3303.8919330442172
1427.3436208337116 3563.994075764055
1428.143621675301 3648.3308236302496
1428.9434274324558 3836.430831975914
1429.7430381583108 3356.554528640763
1430.5424539059713 3384.23353151695
1431.3416747285337 3864.9078095258824
1432.1407006790632 3627.196174306693
1432.9395318106053 3562.9741619724873
1433.7381681761835 3327.7716645603514
1434.5366098288014 3611.1474854951657
1435.3348568214424 3656.043740539407
1436.1329092070573 3453.816395069184
1436.9307670385879 3553.3551638515128
1437.7284303689503 3718.7750421646656
1438.5258992510335 3710.463362680896
1439.3231737377118 3581.348722956967
1440.1202538818306 3482.787620988866
1440.9171397362225 3522.3925772177317
1441.7138313536925 3562.200304505139
1442.5103287870243 3326.2332930449484
1443.3066320889775 3359.708581563819
1444.1027413122956 3710.339225434154
1444.8986565096966 3491.309825021165
1445.694377733882 3539.081154874026
1446.4899050375207 3303.602732875645
1447.2852384732687 3474.855441800275
1448.0803780937622 3611.2123040776496
1448.8753239516063 3352.7725348333943
1449.6700760993954 3253.680722209446
1450.464634589689 3376.5435387844163
1451.2589994750397 3640.667779030316
1452.0531708079689 3348.1763499909102
1452.8471486409799 3209.8369307586318
1453.6409330265524 3645.1793095793937
1454.4345240171442 3312.6376182394865
1455.2279216651987 3324.798563012105
1456.0211260231263 3297.07003103049
1456.8141371433194 3530.4827057137577
1457.6069550781594 3530.1784120171337
1458.3995798799897 3158.7939600087516
1459.1920116011424 3248.235610927144
1459.98425029393 3201.9103431391427
1460.7762960106338 3207.784840441563
1461.5681488035225 3285.7356429252395
1462.3598087248392 3342.7659206689436
1463.1512758268036 3583.861554631075
1463.942550161617 3248.235262901465
1464.7336317814625 3162.922096801639
1465.524520738496 3422.406343636792
1466.3152170848552 3188.7662522174355
1467.1057208726506 3283.8086320548273
1467.8960321539817 3112.268175017151
1468.6861509809169 3060.350567766673
1469.4760774055085 3171.5680687227255
1470.265811479785 3221.2287991045287
1471.055353255755 3008.245412251345
1471.844702785409 3072.8887020466045
1472.6338601207044 3059.575704080246
1473.4228253135934 3303.9577356083073
1474.2115984159936 2993.930463342197
1475.0001794798063 2884.0923089690673
1475.7885685569145 3138.791761813754
1476.576765699172 3089.2613796635933
1477.3647709584238 3120.9631281420866
1478.1525843864802 3296.418442482991
1478.9402060351367 3237.9379896687456
1479.7276359561693 3165.03746054975
1480.514874201328 3081.8393201718377
1481.3019208223468 2968.2791981404625
1482.0887758709323 2789.533488112878
1482.8754393987747 3241.9065689248855
1483.6619114575406 2895.747275193914
1484.4481920988783 3117.360470905828
1485.2342813744108 3076.4336810285854
1486.0201793357446 3259.478087191297
1486.8058860344572 2940.7800274466094
1487.591401522117 3022.126424870466
1488.3767258502594 3023.516119307205
1489.1618590704056 3112.8403186486867
1489.9468012340494 2708.432793489174
1490.7315523926754 3147.352486754613
1491.5161125977356 3219.6350338860198
1492.3004819006637 3121.0426959911338
1493.084660352877 2910.2403330733046
1493.8686480057622 3269.696283186092
1494.6524449106964 3361.090105788951
1495.4360511190262 3357.657961987103
1496.219466682087 3164.302769311385
1497.0026916511779 3200.784290957584
1497.7857260775945 3194.255355619767
1498.5685700125996 3250.5285871225415
1499.3512235074395 2934.5424982808922
1500.133686613337 2977.5874300028304
1500.9159593814966 3105.8444229772263
1501.698041863101 3546.796285403635
1502.4799341093094 2896.2903392769063
1503.2616361712662 2873.1881031355115
1504.043148100087 3212.0571606771277
1504.8244699468742 3238.271403018393
1505.6056017626997 2949.839844999841
1506.3865435986281 2961.7672701597508
1507.1672955056893 3268.2617999063605
1507.9478575348967 2914.155688680523
1508.7282297372512 3268.4670621180035
1509.5084121637192 3054.529458328287
1510.2884048652577 3054.4334687811647
1511.0682078927948 3001.9031338444483
1511.8478212972423 2956.8514888355753
1512.6272451294917 2983.0359146448873
1513.4064794404076 3194.81812621613
1514.1855242808433 3162.836671924005
1514.9643797016215 2995.0767237645327
1515.743045753552 3158.015316201217
1516.5215224874191 3242.0468573780763
1517.2998099539836 2867.311983567856
1518.077908203999 2992.454088204087
1518.8558172881785 3009.4881200989735
1519.633537257234 3195.070975007029
1520.4110681618404 3104.640318998104
1521.1884100526604 3086.8824425602384
1521.9655629803365 3064.877194395648
1522.7425269954856 3267.950698064045
1523.5193021487103 3415.593894540335
1524.2958884905856 2803.70038897611
1525.0722860716687 2975.003835768825
1525.848494942502 2953.8505245736496
1526.624515153595 3078.1305462862997
1527.4003467554485 3098.7162555834875
1528.175989798534 3167.2688482961435
1528.9514443333064 3106.0646480960518
1529.726710410203 3263.308342784586
1530.5017880796331 2930.320200562807
1531.276677391992 2966.735364496071
1532.0513783976457 3324.5367444755816
1532.825891146953 3062.968516516123
1533.6002156902414 3167.272066225836
1534.3743520778207 3051.6686149932725
1535.1483003599806 3127.6259546948886
1535.9220605869923 3211.178222623649
1536.6956328091019 3142.0589949134874
1537.4690170765407 3073.0318658096285
1538.242213439511 3234.7294638759895
1539.015221948208 3119.4609220602256
1539.78804265279 3069.9097641163326
1540.560675603405 2903.4204871186894
1541.3331208501804 3247.2586799887135
1542.1053784432224 3326.8821571279354
1542.8774484326168 3153.5239155689683
1543.649330868422 3115.697645198778
1544.4210258006842 3062.811740211533
1545.1925332794308 3073.5992798833213
1545.9638533546604 3040.852607818826
1546.7349860763552 2985.1479508160073
1547.5059314944829 3382.5675595545545
1548.27668965898 3114.556310041681
1549.0472606197673 3159.5590044112055
1549.817644426752 2992.5803252952783
1550.5878411298072 3257.360304910851
1551.3578507787988 3163.596805419852
1552.1276734235635 3029.981840284813
1552.8973091139233 3131.0355742353963
1553.6667578996767 3315.4974213518567
1554.436019830604 3110.9649854725685
1555.20509495646 3032.303392931053
1555.9739833269869 3065.882663591253
1556.7426849919011 2962.681440325393
1557.511200000903 3369.351409081085
1558.2795284036674 3202.4264164903416
1559.0476702498509 3034.5251677024125
1559.8156255890954 3231.7438857980515
1560.5833944710157 3539.1211271218103
1561.3509769452048 3040.5361319620706
1562.1183730612447 3091.9245285192023
1562.8855828686865 3155.764024658582
1563.6526064170703 3493.804215214526
1564.4194437559127 3387.1340118376647
1565.1860949347047 3072.3034066572454
1565.9525600029283 3434.6269634482246
1566.7188390100328 3514.9658941272683
1567.4849320054564 3122.224593754248
1568.250839038612 3119.392060368469
1569.0165601588997 3126.615837201237
1569.7820954156887 3306.3079813833842
1570.5474448583373 3156.5822139337292
1571.31260853618 3092.0137819673787
1572.0775864985299 2925.6867804397943
1572.8423787946813 3139.602865584298
1573.6069854739108 3002.8907772121
1574.371406585471 3112.490649055774
1575.1356421785986 3238.0825921129153
1575.899692302506 3104.5605913623526
1576.6635570063845 3259.56474517381
1577.4272363394157 3114.7251548299023
1578.190730350747 3047.518211511716
1578.9540390895163 3244.47297071337
1579.7171626048384 2827.370170552346
1580.480100945806 2915.4794055271727
1581.2428541614918 2965.008150283409
1582.0054223009538 3167.550885947084
1582.767805413223 3127.1560727766646
1583.5300035473156 3083.7329525788077
1584.292016752228 3296.3029641071953
1585.0538450769309 3310.724457512771
1585.8154885703807 2884.5236438057773
1586.5769472815136 3000.841497718592
1587.3382212592405 3027.5593572709595
1588.099310552463 3299.6574289561368
1588.8602152100484 2990.06117032434
1589.6209352808564 3204.116693866615
1590.3814708137234 3174.0341925009184
1591.14182185746 3209.0015383820974
1591.9019884608679 3051.2056415040065
1592.6619706727215 2804.9517150496217
1593.4217685417734 3099.9068482279185
1594.1813821167616 3336.524635615138
1594.9408114464022 2924.3211223969042
1595.7000565793933 3055.473789214363
1596.459117564409 3166.319935582526
1597.2179944501113 3045.375920337847
1597.9766872851324 3072.5018979664433
1598.735196118092 3222.2189947622273
1599.4935209975883 3189.5489086499592
1600.2516619721973 3306.7981234315266
1601.0096190904787 3015.7671546195425
1601.7673924009723 3084.81473534497
1602.524981952196 2977.870191967784
1603.2823877926476 3043.5646946544084
1604.0396099708087 2902.868596830712
1604.7966485351371 2872.3667057006796
1605.5535035340745 3088.301841287827
1606.3101750160404 3351.7554519488926
1607.0666630294363 2920.6955413435044
1607.822967622642 2925.771930449548
1608.5790888440224 3097.806277405941
1609.3350267419137 3295.961794261066
1610.0907813646445 3060.0531783798515
1610.8463527605145 2996.379185228471
1611.601740977805 3209.617369790355
1612.356946064785 3120.930973123939
1613.1119680696902 2833.9261162597386
1613.8668070407512 2991.6291984141435
1614.6214630261748 2965.1795303352606
1615.375936074137 3184.1058872987733
1616.1302262328118 3000.0686159127154
1616.8843335503425 3135.1623619566462
1617.638258074854 2912.55062854439
1618.391999854457 3108.595387605824
1619.1455589372363 3187.278307692646
1619.8989353712623 3155.3509978317447
1620.65212920458 2738.0533955527035
1621.4051404852235 2942.538305982547
1622.1579692611976 3052.1772903306255
1622.9106155804966 2915.9917186774082
1623.663079491087 2850.635868270418
1624.4153610409248 3138.1091182780483
1625.1674602779385 2936.8157102559007
1625.9193772500403 2854.610973377311
1626.6711120051277 3169.7919318662975
1627.4226645910676 2998.2909404595116
1628.174035055721 2834.2999169901614
1628.9252234469168 3014.889644837895
1629.676229812474 2858.412174555325
1630.4270542001905 3233.7983633137646
1631.1776966578382 2948.3627291315515
1631.9281572331747 2961.0376702501558
1632.678435973945 3078.6265236498566
1633.4285329278573 3037.9980069876683
1634.1784481426203 2665.1214287308635
1634.9281816659113 2787.73243451966
1635.677733545388 3076.886521066999
1636.4271038286934 2855.3480241122115
1637.176292563452 3095.192314136313
1637.9252997972635 2874.212155265349
1638.674125577716 3049.117459789335
1639.4227699523672 3388.2060725630263
1640.171232968767 2748.6778366685357
1640.9195146744423 2935.363865544071
1641.6676151168977 3147.1083690514724
1642.4155343436178 3152.8573761846596
1643.1632724020765 2937.472075303088
1643.9108293397167 2951.3991521503854
1644.658205203974 2854.768806549538
1645.4054000422566 2885.600914267118
1646.1524139019566 2916.2227722327602
1646.8992468304423 2741.436325245605
1647.6458988750728 2859.128279782688
1648.3923700831765 2965.9237290898045
1649.1386605020743 2967.974133672272
1649.8847701790564 3167.9453486796
1650.6306991614038 3108.390399076565
1651.3764474963682 3118.945622590537
1652.1220152311944 2701.6835716209284
1652.867402413096 3201.1250205998717
1653.6126090892776 3012.5216109819544
1654.3576353069184 3293.1877984963403
1655.1024811131829 3044.689504289542
1655.8471465552066 2939.1762900905997
1656.5916316801213 3172.1802525590183
1657.3359365350298 3207.8100084568
1658.0800611670165 2967.232107443804
1658.824005623148 3077.9578452607025
1659.5677699504722 2816.6738571713076
1660.3113541960192 3149.9677851322585
1661.054758406799 2942.2357206860693
1661.7979826297997 2855.48411488974
1662.5410269119966 2845.8231855718777
1663.283891300338 3252.484901604525
1664.0265758417645 2895.8374432411497
1664.7690805831826 2882.187060432988
1665.5114055714948 3182.3009932564105
1666.2535508535748 3376.640240052089
1666.9955164762814 2684.042245389885
1667.7373024864555 2930.988918703642
1668.478908930916 2937.5198379829553
1669.220335856462 2855.076373774702
1669.9615833098778 2839.889169435779
1670.7026513379296 2786.2166349068566
1671.44353998736 3009.998030382728
1672.1842493048916 2927.312877749144
1672.9247793372379 2778.4406810557416
1673.6651301310812 2909.8550819792686
1674.4053017330934 2855.4571348978207
1675.1452941899242 2998.364034653418
1675.885107548207 2451.4248193717244
1676.6247418545518 2615.0660673419793
1677.3641971555535 2637.757721418107
1678.1034734977893 2970.958327413643
1678.8425709278108 2685.5981816965973
1679.5814894921605 2904.738579700877
1680.320229237359 2890.31080535711
1681.0587902098978 2941.916557119541
1681.7971724562685 2585.9376436387874
1682.5353760229264 2576.015846368592
1683.2734009563173 2793.891096231909
1684.0112473028657 2538.798191720847
1684.7489151089794 2729.5472726566704
1685.4864044210462 2872.9436154441555
1686.2237152854377 2390.6754506742973
1686.960847748498 2792.5536527297513
1687.6978018565642 2355.3731026126484
1688.434577655944 2417.5662591929404
1689.1711751929379 2412.5044555290633
1689.9075945138156 2607.113579659286
1690.6438356648396 2529.5833685682856
1691.3798986922448 2104.206400594926
1692.1157836422499 2421.1776288473275
1692.851490561059 2479.895894270006
1693.587019494853 2439.362851730435
1694.3223704897991 2181.948936543941
1695.0575435920364 2154.716400909948
1695.792538847696 2190.5087672008576
1696.527356302886 2226.274408884218
1697.2619960036936 2163.7372637028934
1697.9964579961907 2278.140390823751
1698.730742326432 1963.9559735891773
1699.4648490404488 2106.284525037364
1700.1987781842563 2272.9821775469654
1700.9325298038548 2376.890564593736
1701.6661039452174 2567.49740430956
1702.3995006543082 2347.510294938341
1703.1327199770658 2484.916827863241
1703.865761959416 2481.555978577741
1704.598626647261 2478.316845960141
1705.3313140864866 2027.0093265776075
1706.0638243229587 2246.048714275961
1706.7961574025303 2395.4720900037187
1707.528313371029 2284.6606581195324
1708.260292274268 2051.7191957493933
1708.9920941580403 2137.5483660600744
1709.7237190681226 2241.8361779325255
1710.4551670502697 2220.300658745808
1711.18643815022 2418.9181404283654
1711.9175324136959 2061.3162785834947
1712.6484498863938 2205.5907660759117
1713.379190614005 1962.9478429516435
1714.109754642188 2172.183976035963
1714.8401420165883 2072.11877340058
1715.570352782839 2442.683915657318
1716.3003869865497 2250.6409898500797
1717.0302446733076 2082.1261386752494
1717.7599258886876 2131.724964857499
1718.4894306782444 2520.1482726891936
1719.2187590875183 2451.749123653607
1719.9479111620203 2383.1978811844174
1720.6768869472544 1970.0092085456422
1721.4056864887025 2529.5311547794818
1722.1343098318284 2432.7969480508896
1722.8627570220742 2102.6333699898796
1723.591028104871 2000.093193992431
1724.3191231256242 1928.8731280909537
1725.0470421297232 2164.211201622048
1725.7747851625427 2183.03603295214
1726.5023522694337 2206.97834823124
1727.2297434957363 2157.717871290535
1727.9569588867635 1904.8004152802837
1728.6839984878152 2272.9857941768214
1729.4108623441734 2234.6096346953727
1730.1375505011038 2196.4042464134814
1730.8640630038426 2024.3223428812366
1731.5903998976264 1915.7647797113452
1732.316561227657 2072.2049631057107
1733.0425470391274 1922.2369628167307
1733.7683573772065 2091.4791591921366
1734.4939922870508 2073.491180741878
1735.2194518137949 2062.2445416213204
1735.9447360025606 2079.0337472663773
1736.669844898439 2059.8780502637933
1737.3947785465189 1893.2596225006932
1738.1195369918605 1786.4956434993207
1738.8441202795093 2053.9208264233707
1739.5685284544943 2204.569802248718
1740.292761561821 2153.994286599979
1741.0168196464838 2063.4253254999703
1741.7407027534518 2132.0979357843476
1742.464410927687 2008.4018953429727
1743.187944214118 1964.4057156544354
1743.9113026576688 1918.9203039165018
1744.634486303241 2024.8643336828166
1745.3574951957125 2056.5233123677044
1746.0803293799509 2255.3957910755275
1746.8029889008048 2068.0031137896135
1747.5254738031017 2165.6632972704447
1748.2477841316504 1998.7743141039377
1748.969919931249 1944.3755636653718
1749.6918812466665 1948.645156989236
1750.4136681226646 2216.9616664491814
1751.1352806039777 2087.46431894957
1751.856718735331 1718.7872506081712
1752.5779825614281 1733.8667250626343
1753.2990721269507 2154.1751407972524
1754.0199874765676 2062.430830035216
1754.7407286549314 1802.0989674649493
1755.4612957066693 1946.8046879548651
1756.1816886763954 1865.1516737666202
1756.9019076087097 2170.8323540028086
1757.6219525481865 2037.1362206008428
1758.3418235393856 2097.132187120095
1759.061520626854 2124.8992329581524
1759.7810438551096 2190.161382248706
1760.5003932686614 1864.2679356016583
1761.2195689119999 2243.899498107561
1761.938570829594 2035.5035758919034
1762.657399065898 2090.7891553163095
1763.376053665348 1766.8682222997381
1764.0945346723602 1731.155120700781
1764.812842131334 2085.7208533429116
1765.5309760866512 1846.5484046751317
1766.2489365826787 1782.806089608017
1766.9667236637597 1999.0619899895646
1767.684337374223 1574.6687397459104
1768.401777758383 1709.8845420687314
1769.1190448605284 1807.4705691783922
1769.836138724937 1765.9076661572847
1770.5530593958665 1979.6537974980474
1771.2698069175603 2201.825812648661
1771.9863813342326 1983.3225777246535
1772.702782690094 1848.5877624038392
1773.4190110293293 2039.2162359220106
1774.1350663961111 2091.318560552828
1774.8509488345844 1822.5757821242466
1775.5666583888924 1974.0717034818813
1776.2821951031437 2198.4015770392007
1776.9975590214362 1912.0488314898244
1777.7127501878585 2015.8015450932803
1778.4277686464684 2163.0154965673587
1779.1426144413108 2091.8045354079395
1779.8572876164162 2139.3143026720913
1780.571788215797 1738.2744018334565
1781.2861162834415 1907.906375838464
1782.0002718633277 1803.6270986506195
1782.7142549994132 1913.3103978758518
1783.4280657356376 2016.6907682706474
1784.141704115922 1840.2230787668163
1784.855170184177 1887.761110718456
1785.5684639842839 1911.819274988477
1786.2815855601148 1637.484674100588
1786.9945349555237 1896.7584667165331
1787.707312214343 1790.4878183475244
1788.4199173803918 1776.554578815576
1789.132350497468 1762.7518160372285
1789.8446116093583 1814.0347299294294
1790.556700759822 1802.1572129585354
1791.2686179926077 1765.102621841644
1791.9803633514493 1851.0024320304456
1792.6919368800554 1641.8539317987422
1793.4033386221236 2006.9676786459756
1794.1145686213295 1992.7822516070432
1794.8256269213307 2229.707725420154
1795.536513565774 1958.4930230684902
1796.247228598284 1621.9320961791568
1796.9577720624693 1772.1696015380307
1797.6681440019165 1865.182277830614
1798.3783444602013 1777.39958749692
1799.0883734808776 1974.1911757326238
1799.7982311074884 1966.0814885291522
1800.5079173835475 1891.8687995236305
1801.2174323525633 2053.440188866152
1801.9267760580187 1798.9083112017881
1802.635948543386 1943.0897014152044
1803.3449498521113 1748.350774590029
1804.0537800276325 1922.371566876537
1804.7624391133668 1886.2990152961684
1805.47092715271 1551.1206219564963
1806.1792441890484 1639.1786224752682
1806.8873902657433 2031.024578385934
1807.5953654261448 1809.970550745205
1808.3031697135812 1741.4883184184941
1809.0108031713662 1815.0648309807489
1809.71826584279 1777.2253152373548
1810.425557771141 1901.6030481040002
1811.1326789996747 1839.8626453588051
1811.839629571632 1777.9501264566547
1812.5464095302468 1667.9305081189755
1813.2530189187182 1930.638472586394
1813.959457780249 1787.0750486590646
1814.6657261580076 2053.3242152266075
1815.371824095153 1945.5973871721253
1816.0777516348262 2022.499850834308
1816.78350882015 1531.852612317389
1817.4890956942272 1489.1321422076571
1818.1945123001533 1741.0118043245063
1818.8997586809928 1805.6249539090088
1819.6048348798067 1656.6613269196507
1820.3097409396287 1696.96158572987
1821.0144769034796 2191.840922248695
1821.7190428143622 1992.287968908282
1822.423438715261 2002.3136149990437
1823.1276646491478 1761.1492490086628
1823.8317206589727 1859.9407770115838
1824.5356067876692 1863.7728917029285
1825.2393230781581 1917.9845087008212
1825.942869573335 1583.0081007832262
1826.646246316086 1664.0608313237058
1827.3494533492758 1817.4829938144517
1828.052490715756 1865.02391869141
1828.7553584583547 1857.9451158451618
1829.458056619891 1901.4128127529953
1830.1605852431585 1711.774397657168
1830.8629443709433 1679.568556923823
1831.5651340460063 1794.0250619910614
1832.2671543110919 1659.1667710980923
1832.9690052089318 1913.0886450875046
1833.6706867822395 1931.5674324231452
1834.3721990737104 1950.2550111317373
1835.0735421260233 1931.6125313558473
1835.774715981841 1677.2046258411458
1836.4757206838058 1711.4755361257612
1837.1765562745459 1746.2985510811989
1837.8772227966747 1570.1102907849267
1838.5777202927839 1794.0091677865366
1839.2780488054523 1761.501676145952
1839.9782083772352 1654.6325961376283
1840.6781990506806 1706.0096554870347
1841.378020868313 1757.4467425982941
1842.0776738726418 1837.1320829555902
1842.777158106157 1673.8173934035458
1843.4764736113375 1657.9916293273916
1844.1756204306403 1883.7147322472513
1844.8745986065078 1825.7102100191278
1845.5734081813607 1596.2984701921957
1846.2720491976124 1613.9869708825513
1846.970521697649 1625.1615857233276
1847.6688257238511 1917.0184107404573
1848.3669613185684 1716.6883081597734
1849.0649285241452 1510.6394986557173
1849.7627273829057 1888.8633650805725
1850.460357937156 1776.3814372136803
1851.1578202291857 1753.046729805878
1851.8551143012664 1730.0778189894086
1852.5522401956569 1744.5035864297793
1853.2491979545957 1908.253472172772
1853.9459876203055 1721.8928785507428
1854.6426092349902 1645.11463943221
1855.3390628408451 1634.002705555809
1856.0353484800362 1922.4063073456048
1856.7314661947203 1941.1066560809763
1857.4274160270397 1566.750496306582
1858.123198019115 1777.2592516338195
1858.8188122130487 1619.4294943300767
1859.5142586509319 1743.6897146032018
1860.209537374838 1684.3738256382808
1860.9046484268183 1708.2217176896052
1861.599591848917 1685.6407694161983
1862.294367683151 1663.005941249532
1862.988975971528 1681.6030667659093
1863.6834167560355 1822.8774321474593
1864.3776900786452 1981.7506648147769
1865.0717959813119 1711.327280338525
1865.7657345059724 1621.0150623307657
1866.4595056945564 1737.3963098773188
1867.1531095889586 1764.9488198015374
1867.846546231076 1630.934428037683
1868.5398156627743 1954.1893141783535
1869.2329179259123 1683.621716947621
1869.9258530623283 1647.8350674954388
1870.618621113843 1611.9530180459144
1871.3112221222636 1466.700479841084
1872.0036561293764 1676.000477277461
1872.695923176956 1802.082899197399
1873.3880233067594 1885.2362352992682
1874.0799565605212 1582.0800315651522
1874.7717229799673 1749.7977400504728
1875.4633226068036 2027.1346331163525
1876.1547554827175 1800.241950956804
1876.8460216493859 1664.8306973565839
1877.5371211484617 1796.9903436383192
1878.2280540215852 1907.2374489633519
1878.9188203103804 1477.64898913226
1879.6094200564548 1759.6399839052224
1880.299853301396 1573.923651412703
1880.9901200867826 1871.4625599989529
1881.6802204541673 1754.76627250858
1882.3701544450942 1853.7933115027422
1883.059922101087 1960.0487621060656
1883.7495234636517 1529.850645722171
1884.4389585742792 1636.8598742409745
1885.1282274744517 1594.2972190741489
1885.8173302056166 1661.3395835403796
1886.506266809225 1728.4740273692528
1887.195037326701 1540.3677181465123
1887.8836417994517 1768.3819431360134
1888.5720802688702 2033.4194605871792
1889.260352776333 2022.4092858439503
1889.9484593632042 2037.3988319306623
1890.63640007082 1593.6167029617088
1891.3241749405151 1494.457199333095
1892.0117840135954 1782.9371058296615
1892.6992273313572 1739.5049062807273
1893.3865049350788 1604.276766630226
1894.0736168660223 2016.808529105548
1894.7605631654333 1797.731248939875
1895.4473438745408 1925.6559420128513
1896.133959034556 2053.658857888249
1896.820408686679 1775.2073042527416
1897.506692872088 1707.6383402224778
1898.192811631945 1639.9580702727442
1898.8787650073991 1619.2231250252985
1899.5645530395832 1855.4004451115368
1900.2501757696118 1901.0000654952687
1900.9356332385796 1545.5270654347746
1901.620925487574 1662.383253195668
1902.3060525576602 1779.571621880344
1902.9910144898859 1754.9638509753725
1903.6758113252872 1566.7568899499038
1904.3604431048789 1843.3125485334845
1905.0449098696663 1889.0789666873611
1905.7292116606295 1529.0397579280263
1906.4133485187394 1832.9964182724495
1907.0973204849488 1396.1858344750597
1907.7811276001976 1506.5830334055613
1908.4647699053967 1696.862432687357
1909.1482474414588 1148.3399691629104
1909.8315602492694 1518.42136841813
1910.5147083696957 1904.716466216421
1911.1976918436012 1665.409294598032
1911.880510711815 1559.0586486787229
1912.5631650151681 1890.8241332739428
1913.2456547944657 1604.6602551193357
1913.927980090495 1623.316296124827
1914.6101409440362 1628.1573927657948
1915.2921373958416 1868.5196689487263
1915.9739694866603 1651.781877835808
1916.655637257214 1646.5497608813457
1917.3371407482136 1641.3204084764118
1918.0184800003572 1875.0540790275704
1918.6996550543154 1912.5680642913571
1919.3806659507554 1780.3014715834452
1920.0615127303208 1657.049323766735
1920.7421954336423 1949.6346916313735
1921.4227141013343 1911.6675168153984
1922.103068773993 1787.1632073840588
1922.783259492202 1888.5937555346231
1923.4632862965227 1750.998137956798
1924.1431492275078 1685.9672628430221
1924.8228483256917 1565.9527423626596
1925.5023836315922 1698.5954376468937
1926.1817551857057 1830.5716492761985
1926.8609630285227 1962.829947763425
1927.5400072005123 1819.588752902955
1928.218887742125 1652.7978067746549
1928.8976046938005 1509.2147837484788
1929.5761580959588 1746.129120869371
1930.2545479890086 1700.1867102645942
1930.9327744133352 1408.945657022514
1931.6108374093164 1733.3338853174023
1932.2887370173066 1586.5528608612053
1932.9664732776473 1901.5031786051914
1933.6440462306673 1734.6438347611224
1934.3214559166754 1649.5770647979625
1934.9987023759659 1958.832378596337
1935.675785648813 1829.2158346778572
1936.3527057754836 1332.3910208414777
1937.029462796223 1392.6405561426654
1937.70605675126 1453.0512935753532
1938.3824876808085 1447.9966569057697
1939.058755625072 1703.8906172769432
1939.7348606242267 1664.8446167946663
1940.4108027184448 1674.3997645827626
1941.0865819478713 1838.7788725777111
1941.7621983526478 1637.1176151807106
1942.4376519728921 1525.9660374743776
1943.1129428487038 1778.8976313006904
1943.7880710201734 1783.7373439051612
1944.4630365273733 1710.7008175585506
1945.1378394103576 1458.5323277124012
1945.8124797091714 1419.0808203668053
1946.4869574638324 1379.5013578922558
1947.161272714353 1710.753640725441
1947.8354255007234 1787.6520625653047
1948.5094158629272 1503.1806087783589
1949.1832438409183 1754.116733317784
1949.8569094746435 1894.149001411431
1950.530412804037 1985.9706827275888
1951.2037538690092 1804.4146159312509
1951.8769327094578 1615.7166238985487
1952.5499493652678 1663.7360390648125
1953.222803876306 1830.4057369367906
1953.895496282421 1821.10496754922
1954.5680266234522 1799.0336609248359
1955.2403949392155 1864.5636437487192
1955.9126012695142 1446.4340418309553
1956.5846456541403 1742.0422596191315
1957.2565281328643 1682.6313292798209
1957.9282487454457 1907.5281813307593
1958.5998075316202 1738.7674189220536
1959.27120453112 1593.3131857993767
1959.9424397836501 1723.851081270633
1960.613513328908 1934.0107335077737
1961.2844252065697 1925.753107158664
1961.9551754563017 1512.0016982375168
1962.6257641177453 1630.0117671074709
1963.29619123054 1405.0249787393961
1963.966456834296 1474.7715641169232
1964.6365609686181 1480.5703788710173
1965.306503673086 1515.8682567994435
1965.976284987275 1551.1649418886482
1966.645904950734 1652.5056697113826
1967.315363603002 1448.1352103286524
1967.9846609836077 1671.7500948471284
1968.6537971320486 1622.0382818578876
1969.3227720878222 1611.7173437243544
1969.9915858904042 1635.9306706857574
1970.660238579252 1819.2696731300373
1971.3287301938108 1604.507925595301
1971.997060773514 1504.4261686325103
1972.665230357772 1451.9147214055924
1973.3332389859843 1559.9230261255125
1974.0010866975335 1449.20914279807
1974.6687735317864 1762.9311368806561
1975.3362995280932 1779.3562497785529
1976.003664725793 1736.113539516377
1976.6708691642052 1313.8232587719203
1977.3379128826364 1623.1802557734368
1978.004795920373 1977.6345460809166
1978.6715183166925 2001.6796393610882
1979.3380801108524 1825.8877698662407
1980.0044813420973 1649.9421300254085
1980.6707220496555 1330.6501024353292
1981.3368022727373 1524.3898313093819
1982.0027220505417 1437.1699397416735
1982.66848142225 1349.9123754592463
1983.3340804270283 1444.342491901407
1983.999519104027 1689.3817423580808
1984.6647974923835 1813.5164526206513
1985.329915631215 1794.2422533415127
1985.99487355963 1611.9912914466718
1986.6596713167146 1636.135258494701
1987.3243089415428 1660.2529338548397
1987.9887864731754 1928.8442410616
1988.6531039506553 1569.2569603364072
1989.3172614130071 1540.8070229416808
1989.9812588992481 1512.332216059212
1990.645096448372 1248.625417901286
1991.3087740993633 1605.1678123680708
1991.9722918911848 1666.4425180610087
1992.635649862792 1666.98371917392
1993.2988480531185 1711.2221821911426
1993.9618865010852 1666.159489884251
1994.6247652455968 1621.0795836698226
1995.287484325545 1516.9103831052685
1995.9500437798033 1557.3854663642724
1996.6124436472292 1653.146959167892
1997.2746839666706 1872.8551412304084
1997.936764776954 1506.702545904389
1998.598686116895 1722.6626012520694
1999.2604480252903 1988.3365446836196
1999.9220505409212 1904.3389636924614
2000.5834937025593 1468.4270498588805
2001.2447775489582 1547.1148014106031
2001.9059021188514 1700.0046406798767
2002.5668674509616 1407.6151725604357
2003.2276735839987 1646.0215618070972
2003.8883205566508 1870.2230521268182
2004.5488084075987 1656.5727226823929
2005.2091371755014 1590.501109257867
2005.8693068990033 1342.2935827933752
2006.5293176167397 1374.9599920808146
2007.1891693673224 1407.8061828917103
2007.848862189354 1389.4846007700676
2008.5083961214223 1582.086876126174
2009.1677712020955 1480.9630394048866
2009.8269874699254 1467.149245316841
2010.4860449634598 1452.3477465055096
2011.1449437212177 1437.5930638299826
2011.8036837817108 1911.0168249747226
2012.4622651834325 1925.3011430453923
2013.1206879648653 1668.18412093435
2013.7789521644736 1459.6811677812543
2014.4370578207036 1784.2114465534748
2015.0950049719922 1583.136748726666
2015.7527936567585 1792.2277339453133
2016.4104239134067 1610.0050059817997
2017.067895780323 2166.5798025176673
2017.725209295886 2114.5375169373556
2018.3823644984514 2062.298831532039
2019.0393614263648 1725.2176627768845
2019.6962001179545 1627.5714723527485
2020.3528806115355 1992.9469669870025
2021.0094029454067 1710.9029047928675
2021.6657671578487 1462.290813953035
2022.321973287133 1729.583298237864
2022.9780213715148 1541.4671004872903
2023.6339114492293 1441.9067020758825
2024.2896435585026 1703.1028278313593
2024.9452177375442 1568.1462696784179
2025.600634024544 1575.0943028798451
2026.2558924576842 1582.1008651726438
2026.9109930751292 1760.0464263423605
2027.565935915025 1925.6004732419399
2028.2207210155066 2091.7000877771156
2028.8753484146964 2074.5819521618396
2029.529818150695 1957.1385935897601
2030.1841302615903 1839.1878406759024
2030.8382847854573 1427.966120075998
2031.4922817603601 1753.7606471253948
2032.1461212243357 1769.1631856057425
2032.7998032154192 1387.4234590352635
2033.4533277716218 1450.3365464497356
2034.1066949309443 1506.6188646636815
2034.7599047313688 1558.4681351316365
2035.4129572108704 1608.1058846352585
2036.0658524074006 1641.2572472598597
2036.7185903589016 1765.9564614478913
2037.3711711032956 1764.0804674546885
2038.023594678496 1664.0762574921598
2038.675861122394 1567.3657094794462
2039.3279704728757 1513.2080093989275
2039.9799227678031 1459.0660551294586
2040.6317180450278 1587.326345209442
2041.2833563423865 1531.6221431828303
2041.9348376977014 1670.8983250481128
2042.5861621487784 1810.455394706611
2043.2373297334088 1638.6983709396081
2043.8883404893695 1755.3978867526748
2044.5391944544208 1693.4683426076722
2045.1898916663158 1897.3041650217333
2045.8404321627804 1980.475004326057
2046.4908159815368 1475.8333125025233
2047.1410431602853 1541.7239076393632
2047.7911137367173 1558.2704077832934
2048.441027748504 1766.5160138519623
2049.090785233302 1585.5837040057463
2049.7403862287592 1489.76236027766
2050.389830772503 1479.2122433765921
2051.0391189021466 1468.6939286588727
2051.688250655294 1762.8684555293264
2052.337226069527 1481.6079170915086
2052.986045182417 1901.316664900033
2053.634708031521 1889.8136926856175
2054.283214654375 1878.4196809479236
2054.931565088511 1384.7263175893736
2055.579759371436 1468.3738640179554
2056.2277975406523 1632.3382453833324
2056.8756796336384 1536.8326440824283
2057.5234056878617 1441.0013992896547
2058.1709757407752 1557.1661951318113
2058.8183898298194 1945.0416514914268
2059.465647992416 1947.7259199148907
2060.1127502659747 1988.7856987816006
2060.759696687888 1865.476655277954
2061.4064872955405 1742.1586629553744
2062.053122126292 1498.1623002694125
2062.699601217497 1660.0345932124249
2063.345924606485 1420.0816734903312
2063.992092330587 1647.4402082770398
2064.638104427102 1494.8630264316812
2065.283960933324 1856.49314841107
2065.92966188653 1607.4018167080171
2066.5752073239855 1496.736627427183
2067.2205972829397 1807.1528482315239
2067.86583180062 1714.1279838670046
2068.5109109142522 1472.560899734702
2069.15583466104 1400.3938225093475
2069.8006030781708 1662.4077469612007
2070.445216202821 1578.292853157942
2071.089674072153 1834.3393269272824
2071.7339767233116 1750.7832296157635
2072.3781241934303 1635.2188868690776
2073.0221165196253 1825.492926672825
2073.6659537390024 1793.3194698206728
2074.3096358886505 1761.180111748053
2074.953163005637 1531.2690239235158
2075.596535127028 1352.6012045802931
2076.2397522898664 1485.1222261572107
2076.882814531182 1639.5844364233512
2077.5257218879924 1725.4638757987898
2078.1684743973 1520.0953668517902
2078.8110720960885 1395.9349799728411
2079.453515021336 1498.980069796458
2080.095803209997 1602.103849557954
2080.7379366990135 1830.6056246696232
2081.37991552532 1726.8669982115498
2082.0217397258275 1860.078806233069
2082.6634093374414 1806.3386706015579
2083.3049243970418 1752.6151513491993
2083.9462849415067 1747.9411363596348
2084.587491007689 1660.3393724256075
2085.2285426324324 1494.2290078689225
2085.869439852564 1738.1309671675208
2086.510182704902 1452.8331479354488
2087.1507712262483 1778.200336456861
2087.791205453381 1810.4202489996453
2088.4314854230743 1842.6535893539017
2089.0716111720867 1684.0282204130351
2089.7115827371617 1375.3413264309283
2090.351400155023 1409.0744021658315
2090.991063462385 1442.9390425558288
2091.6305726959527 1358.1653757141626
2092.2699278924047 1346.1486370572532
2092.9091290884153 1334.158906202043
2093.548176320641 1495.6601031463638
2094.187069625721 1730.0380741641416
2094.8258090402887 1764.1341721536915
2095.464394600951 1798.3072273902483
2096.102826344313 1609.0264383435056
2096.741104306955 1850.453392110984
2097.379228525453 1483.2467790297383
2098.017199036358 1360.1008246478589
2098.6550158762147 1587.30670094927
2099.2926790815527 1814.9951745806252
2099.9301886888825 1603.1582068446835
2100.5675447347076 1535.102371711884
2101.2047472555114 1581.118179293485
2101.841796287761 1627.234810728099
2102.47869186792 1655.0704733515383
2103.1154340324265 1597.484306562433
2103.752022817709 1687.1955432676616
2104.388458260184 1492.681330588724
2105.024740396251 1571.780273585527
2105.660869262292 1622.4506319988695
2106.296844894685 1820.1408282394852
2106.93266732978 1721.8439636482442
2107.5683366039284 1361.2265518844456
2108.2038527534532 1606.1638688084647
2108.8392158146726 1753.3450676165376
2109.4744258238843 1604.180683294518
2110.1094828173755 1632.695122484168
2110.744386831422 1944.3685440876375
2111.3791379022787 1676.7605005402856
2112.01373606619 1967.6197385861683
2112.648181359389 1768.272319231294
2113.28247381809 1863.8150742888515
2113.916613478492 1691.594585120635
2114.550600376786 1663.310340538829
2115.1844345491445 1520.6274194207035
2115.818116031729 1479.726982091333
2116.451644860679 1572.619610269302
2117.085021072133 1487.62662866772
2117.718244702204 1462.18612207596
2118.3513157869984 1562.4250438589665
2118.984234362604 1533.191765372985
2119.617000465092 1589.486590487566
2120.249614130529 1509.3191133218284
2120.8820753949585 1429.027734826795
2121.5143842944162 1387.2835871734626
2122.14654086492 1510.034991261037
2122.7785451424734 1871.5202391185308
2123.4103971630702 1809.0157703258533
2124.042096962681 1746.564984983183
2124.6736445772767 1785.8455625536656
2125.305040042802 1499.3370692498406
2125.936283395191 1764.7442973800541
2126.567374670365 1701.438827741515
2127.198313904233 1565.9210938637148
2127.8291011326855 1480.7829031130361
2128.4597363916037 1395.290618257124
2129.0902197168507 1694.8977867955455
2129.720551144279 1899.0364951864917
2130.3507307097225 2103.336601823606
2130.980758449008 1912.813584818226
2131.6106343979427 1841.0096843637552
2132.2403585923203 1769.0296293095253
2132.8699310679276 1839.8016688439507
2133.499351860526 1694.609953571186
2134.1286210058715 1591.752298174799
2134.7577385397053 1793.16449269782
2135.3867044977487 1994.8761072423197
2136.0155189157176 2031.1524493001828
2136.644181829308 1911.0908337616227
2137.2726932742025 1629.3249170943898
2137.901053286074 1495.8187807776196
2138.5292619005777 1362.1561984883094
2139.1573191533535 1539.2276958318869
2139.7852250800315 1822.2698471201043
2140.4129797162295 1708.1627017487929
2141.0405830975433 1414.9895628701488
2141.6680352595613 1439.0324548002968
2142.2953362378576 1463.137786926522
2142.9224860679915 1549.2086615514745
2143.549484785508 1598.779453810911
2144.1763324259373 1500.3337909237298
2144.803029024799 1537.2287730105713
2145.429574617594 1632.4509669080815
2146.0559692398165 1742.956663424373
2146.682212926942 1574.0563210690566
2147.308305714432 1500.118358255527
2147.9342476377333 1977.9548631383611
2148.5600387322847 2023.6491713211096
2149.185679033506 1753.659446955775
2149.8111685768017 1650.3479935864027
2150.4365073975678 1410.6001539060794
2151.061695531187 1490.9476267667935
2151.686733013021 1558.1717580924967
2152.311619878423 1625.6324674722089
2152.9363561627342 1413.5524289251064
2153.560941901278 1425.2263638631507
2154.1853771293663 1684.3334021930175
2154.809661882293 1607.3814147992687
2155.433796195348 2031.0373199375124
2156.0577801037944 1956.9554662221788
2156.681613642895 1882.60310723669
2157.3052968478896 1551.4786652694745
2157.928829754006 1808.0958970552906
2158.552212396462 1815.2550888420349
2159.1754448104566 1765.8868407382554
2159.7985270311783 1507.8988779198276
2160.4214590938027 973.8149138794646
2161.0442410334927 1290.7121570367801
2161.6668728853874 1364.1377999049312
2162.289354684628 1437.7537457245503
2162.911686466332 1486.9395279071816
2163.533868265602 1683.8173035377156
2164.1559001175337 1725.445810995216
2164.7777820572046 1767.070543399168
2165.399514119681 1558.1514104818111
2166.021096340013 1534.6737651536564
2166.6425287532384 1966.2703996569865
2167.263811394385 1934.7652674178917
2167.8849442984574 1903.3627276579202
2168.505927500455 1435.935071338077
2169.126761035366 1683.00673721268
2169.7474449381552 1486.4413649124758
2170.367979243778 1653.9727758673046
2170.9883639871823 1822.0268826896397
2171.608599203293 1596.1883639868083
2172.2286849270276 2058.3297731542434
2172.8486211932886 2309.780023912972
2173.4684080369625 1613.108168549113
2174.0880454929265 1384.2660934111593
2174.7075335960417 1391.2730709957116
2175.3268723811543 1343.4116448418713
2175.9460618831 1295.4495889786263
2176.565102136701 1629.9329407556188
2177.1839931767627 1565.0234792377807
2177.802735038078 1499.9649513859736
2178.421327755432 1455.3642130257567
2179.0397713635866 1585.2370005615223
2179.658065897298 1439.1105336294017
2180.276211391305 1523.7287789262696
2180.8942078803357 1694.0968100044624
2181.5120553991 1637.0880630247639
2182.129753982299 1431.0721712636603
2182.7473036646206 1663.5668509869872
2183.3647044807367 1746.1096632000954
2183.9819564653044 1730.0151164255979
2184.599059652968 1713.9418835318313
2185.216014078367 1745.7335514906158
2185.832819776113 1826.8557963317194
2186.4494767808137 1908.0660743795615
2187.065985127063 1552.792052126908
2187.682344849436 1479.7951837589194
2188.298555982501 1573.3221334549482
2188.9146185608097 1666.9099265379486
2189.530532618901 1844.8208401214965
2190.1462981912937 1878.9357752963522
2190.761915312507 1725.4215295103852
2191.377384017036 1530.8654120872543
2191.9927043393654 1671.3114985592972
2192.6078763139667 1870.756182038791
2193.2228999753006 1415.140057770362
2193.837775357808 1692.7218220579155
2194.452502495922 1394.7656584933363
2195.0670814240602 1586.5899356689736
2195.6815121766285 1392.1107606692492
2196.2957947880186 1286.4507981491636
2196.9099292926057 1180.5820164790916
2197.523915724758 1741.5766006191675
2198.137754118825 1563.0594356125873
2198.7514445091456 2080.288850186275
2199.3649869300443 2130.969541363787
2199.9783814158327 2181.858098743887
2200.5916280008096 2093.2297877747865
2201.2047267192593 1889.4752701074115
2201.8176776054515 1694.9412532167414
2202.430480693649 1699.184258448983
2203.0431360180955 1703.4620904640983
2203.6556436130195 1808.721481276804
2204.268003512645 1331.626449216244
2204.8802157511727 1533.1105065117713
2205.492280362796 1633.1828547311725
2206.1041973816937 1733.5869920815924
2206.715966842032 1701.0810567868095
2207.3275887779655 1622.0602904800755
2207.93906322363 1612.958791416047
2208.550390213153 1747.1787285149705
2209.1615697806465 1829.2610670777412
2209.7726019602105 1417.6356903371523
2210.3834867859277 1407.3290287795162
2210.9942242918787 1463.1809694797691
2211.6048145121167 1418.649890155483
2212.2152574806914 2254.4600787747054
2212.825553231638 1499.0216744961733
2213.435701798975 2439.0122105473497
2214.045703216707 1588.4184434145516
2214.655557518832 1282.226718433897
2215.2652647393297 1385.4461563519465
2215.874824912169 1503.257513732531
2216.4842380713 1621.5049298515053
2217.09350425067 1454.223242588398
2217.7026234842033 1820.711167569308
2218.311595805819 1818.7228969989894
2218.9204212494133 1571.0377489357656
2219.52909984888 2034.563182750219
2220.137631638092 1394.193394104456
2220.7460166509154 1859.7155163062212
2221.354254921198 1418.4360133811165
2221.9623464827764 1632.166606515103
2222.5702913694713 1663.8462784343642
2223.178089615096 1523.765724696765
2223.7857412534486 1383.4247083310681
2224.39324631831 1210.4018627768016
2225.000604843457 1680.0867338992662
2225.607816862641 1739.2531362825296
2226.214882409611 1698.7653491196793
2226.8218015180973 1799.7381368094786
2227.4285742218217 1589.7714790982302
2228.0352005544864 1587.8246414142825
2228.6416805497847 1258.5782894178299
2229.248014241399 1522.893984544227
2229.8542016629945 1660.6674188807283
2230.460242848223 1798.6189971664196
2231.0661378307304 2102.9255681811424
2231.671886644139 1491.4881273681235
2232.277489322065 1286.1198869191887
2232.8829458981127 1217.1623167480843
2233.48825640587 1472.52079088849
2234.0934208789095 1687.4629959905483
2234.6984393507955 1902.717900721141
2235.3033118550793 1717.4648965298838
2235.9080384252975 1615.152229101797
2236.5126190949723 1296.6915449425462
2237.1170538976166 1658.592993316565
2237.721342866729 1265.1571725172198
2238.32548603579 1471.0670453518337
2238.9294834382763 1664.1137628049444
2239.533335107646 1684.490341699341
2240.1370410773434 1622.7359709058414
2240.740601380803 1325.994930355609
2241.3440160514474 1612.0681150610885
2241.9472851226783 1870.6917834982858
2242.550408627896 1744.21305451928
2243.1533866004793 1839.9510042551024
2243.756219073799 1537.8723257952067
2244.3589060812064 1548.0738287292957
2244.961447656049 1511.0639465710005
2245.5638438316564 1636.6108518157794
2246.166094641343 1809.7792660125313
2246.7682001184166 1442.7891065256379
2247.3701602961664 1419.0148788794725
2247.971975207871 1776.5450237678365
2248.5736448867974 1879.2704813659286
2249.175169366197 1730.8647603519262
2249.7765486793123 1713.0339061030718
2250.3777828593684 1741.2208762663547
2250.9788719395783 1752.9418044817746
2251.579815953146 1675.1023185979725
2252.1806149332606 1400.1065485474132
2252.781268913097 1574.1722717295654
2253.381777925817 1454.1024557153942
2253.9821420045737 1640.3614248461004
2254.5823611825035 1925.60908304855
2255.1824354927303 1694.8370592984331
2255.782364968365 1480.2869681612683
2256.38214964251 1850.0754040982636
2256.9817895482483 1582.9380732835525
2257.5812847186553 1366.4902223197555
2258.180635186791 1364.5944912375558
2258.779840985704 1492.060781570614
2259.37890214843 1571.6241754310934
2259.97781870799 2038.4884963030468
2260.5765906973957 1889.5476995620331
2261.175218149645 1781.0762754175892
2261.773701097718 1519.832865927347
2262.3720395745895 1258.0968072258286
2262.970233613216 1175.9162612797334
2263.568283246548 1294.9338827593995
2264.1661885075137 1414.079650520221
2264.763949429038 1610.684851012016
2265.3615660440246 1900.0972792323378
2265.959038385374 1373.0186885668377
2266.5563664859637 1337.5449148453308
2267.153550378669 1302.0819751087872
2267.7505900963424 1768.89282457595
2268.3474856718312 1401.8549418011758
2268.9442371379664 1572.482494303939
2269.5408445275643 1610.7369241602935
2270.1373078734377 1499.3740207761111
2270.7336272083758 1387.777926508615
2271.32980256516 1364.7465511845771
2271.925833976562 1878.131574885819
2272.5217214753357 2004.3184888252345
2273.117465094223 1407.2956328024395
2273.7130648659586 1440.9633301767717
2274.308520823257 1617.8102951323876
2274.903832998827 1677.924360425927
2275.4990014253563 1580.8642703881028
2276.094026135528 1715.0976090197794
2276.6889071620117 1683.4555445906255
2277.2836445374614 1651.6804781159212
2277.878238294519 1485.9093151326142
2278.472688465812 1431.3061916058227
2279.066995083962 1376.57245178459
2279.6611581815705 1551.2780899344448
2280.255177791232 1938.902696377047
2280.8490539455233 1560.6620444789264
2281.442786677013 1900.1230557248568
2282.0363760182554 1839.6353829657262
2282.6298220017943 1427.1429459373708
2283.223124660155 2036.7530151330543
2283.816284025859 1545.7505605375168
2284.4093001314086 1470.177333863348
2285.002173009292 1394.4590506237332
2285.5949026919952 1878.5671346999654
2286.1874892119777 1694.1146389455196
2286.7799326016993 1490.3303226455473
2287.3722328936 1286.0101106397929
2287.964390120109 1079.6110063293743
2288.556404313642 1784.4571758407062
2289.1482755066027 1971.9358003950213
2289.7400037313873 1585.5229104386847
2290.3315890203703 1585.1898425090726
2290.9230314059205 1590.3985687746167
2291.5143309203904 1595.6651989668758
2292.1054875961236 1500.5330904598716
2292.6965014654506 2214.6919335717294
2293.287372560684 1512.9455041418476
2293.878100914131 1459.7783576996787
2294.468686558086 1406.5446728425425
2295.059129524827 1503.5332381615813
2295.649429846617 1505.9762185238644
2296.239587555716 1508.3815600603052
2296.8296026843636 1565.7633380595119
2297.419475264791 1633.5531732273805
2298.0092053292137 1701.3678960425907
2298.598792909839 1861.1913470193704
2299.1882380388597 1812.9901176973617
2299.777540748455 1799.8474377554016
2300.3667010707904 1786.5718041720254
2300.9557190380256 1882.273220297613
2301.544594682302 1676.2289656600976
2302.1333280357503 1469.9370097880108
2302.721919130485 1602.5111402962289
2303.3103679986198 2177.5097263682483
2303.898674672242 2011.7025362952786
2304.486839183437 1494.8215480165009
2305.0748615642697 1654.1962495734383
2305.6627418468015 1499.403874781891
2306.2504800630704 1349.2267778989403
2306.8380762451143 1630.5445645070183
2307.425530424949 1712.5636280840608
2308.012842634582 1794.7576056892624
2308.6000129060103 2045.0790084017947
2309.187041271214 1767.1666955898158
2309.773927762164 2072.5561523226966
2310.3606724108213 1698.8504674753385
2310.9472752491274 1441.6778324619904
2311.5337363090184 1835.237366411183
2312.120055622414 1858.7691472725105
2312.706233221221 1543.6120680369768
2313.2922691373424 1245.6767008687775
2313.8781634026564 1421.101526601627
2314.463916049037 1596.9331658729923
2315.049527108342 1728.7634964016047
2315.6349966124235 1913.5587653925722
2316.2203245931123 1624.8514955054884
2316.8055110822315 1794.198234796312
2317.3905561115935 1535.1819960939101
2317.9754597129977 1517.0449744143657
2318.560221918229 1535.3061237863453
2319.1448427590603 1553.6421975203343
2319.729322267256 1517.313326275289
2320.313660474563 1635.5103126297631
2320.8978574127195 1799.8545422269362
2321.481913113452 1964.7234636456117
2322.0658276084705 1585.3922115891637
2322.6496009294806 1704.5903038659108
2323.233233108165 1936.236219138106
2323.8167241762058 1851.834691632073
2324.4000741652617 1661.4216526412827
2324.983283106987 2075.169472741508
2325.5663510330232 1980.116606654141
2326.1492779749933 1679.1876794411066
2326.7320639645204 1933.6229446465193
2327.3147090332004 1736.189914474701
2327.897213212629 1825.231422855118
2328.4795765343843 1914.2565429199633
2329.0617990300307 1614.5772012274977
2329.643880731124 2058.706247489646
2330.22582166921 1621.7665294474314
2330.807621875816 1542.5343237584805
2331.3892813824623 1463.3066055159306
2331.9708002206517 1440.8900850418433
2332.5521784218818 1951.8040066906822
2333.133416017634 1841.607099855557
2333.7145130393765 1680.1727205477528
2334.295469518571 2024.4298006266072
2334.876285486658 1770.8047197296005
2335.456960975076 1817.1601482008434
2336.037496015242 1863.6506682987256
2336.6178906385667 1826.4272859640037
2337.198144876451 1768.5938720871825
2337.778258760278 1583.6990633649516
2338.3582323214214 1678.2949852527004
2338.938065591243 1773.0686344651251
2339.517758601087 1950.6225357450162
2340.0973113822965 1873.466785942807
2340.676723966193 1602.888443757135
2341.255996384094 1799.6457660377594
2341.835128667295 1889.627826273295
2342.4141208470883 1817.1491955280976
2342.992972954751 1992.2016244455147
2343.5716850215467 1796.572800901108
2344.1502570787306 1171.8487023366242
2344.7286891575386 1445.6602366282739
2345.3069812892045 1961.5304564179692
2345.885133504944 2055.3085282798143
2346.4631458359618 1506.5756312469316
2347.04101831345 1441.364408021051
2347.6187509685915 1614.8639470645314
2348.196343832553 1591.4176141055298
2348.7737969364935 1575.8015815102563
2349.351110311558 1560.1985422311986
2349.9282839888765 1571.7127024212482
2350.5053179995757 1410.16011532729
2351.0822123747585 1342.9617902305395
2351.658967145526 1313.3945386766513
2352.2355823429643 1283.8543498547024
2352.812057998144 1709.7338099852393
2353.3883941421263 1663.9779719643398
2353.9645908059647 1802.8406536681134
2354.540648020693 1743.1497877149018
2355.116565817336 1807.6100336828185
2355.6923442269126 1872.2332980785427
2356.2679832804224 1664.1219617473412
2356.8434830088518 1519.1623952630448
2357.41884344318 1671.1677861159926
2357.994064614377 1795.0602081194215
