#exp_cfg={"servo_angle": 0.0, "laser_lim": 100.0, "servo_angle_to": 18.0, "laser_wup": 0.0, "bt_dev": "EnSpectr-25AE3", "laser_wdn_max": 0.0, "frames": 10.0, "servo_used": 0, "servo_calib_use": 0, "laser_wdn_min": 0.0, "servo_pix_from": 90.0, "cooler_tout": 300.0, "servo_angle_from": 0.0, "servo_calib": "[-1.9174921013161362e-09, 3.9322238269163779e-05, -0.27385609119055809, 653.59552119713567]", "laser_autoctl": 0, "servo_pix_to": 3682.0, "laser_pw": 100.0, "cooler_on": 0, "laser_volt": 4.0, "cooler_autoctl": 0, "cooler_curr": 70.0, "cooler_startup": 10.0, "laser_fixed_pw": 0, "gain": 1.3, "offset": 2.53059635486, "servo_calib_degree": 3.0, "laser_curr": 55.0, "shutter": 8200.0, "servo_calib_step": 1.0, "laser_fixed_curr": 0, "exp": 2000.0, "ccd_volt": 4.7, "bt_addr": "00:06:66:62:5A:E3", "servo_delay": 500.0, "laser_autooff": 1}
#proc_cfg={"flat_auto_wnd": 200.0, "flat_auto_fr": 200.0, "flat_auto_shift": 5.0, "yconv": 1, "flatten": 1, "flatten_strength": 100.0, "xfrom": 300.0, "auto_max_frame": 2000.0, "auto_signal": 48000.0, "flat_auto_tol": 0.1, "autoclip": 1, "xrel_range": 0.0, "flat_auto_to": 4000.0, "intensity_adj": 1.0, "xrel": 7852.0, "rmhot": 1, "flat_auto_slit": 4.999999999999997, "auto_ini_exp": 300.0, "auto_off": 0, "xto": 2860.0, "flat_auto_ref": "", "flat_auto_rank": 1, "autobackg": 0, "xrel_adj": 0.0, "auto_black_lvl": 1, "base_wnd": 100.0, "sub_baseline": 0, "xconv": 2, "auto_max_exp": 1000.0, "auto_total_exp": 10000.0, "auto_exp": 0, "rmripple": 0, "black_lvl": 8279.35, "shutter_clip_adj": 0.0, "auto_bckg": 0, "flat_auto_thr": 0.9, "subbackg": 1}
316.8218498245369 13015.44697372308
317.89969571804795 12858.273548272582
318.977263876126 12878.442906091012
320.05455438786703 12774.344463028008
321.1315673423287 12720.938406617144
322.2083028285215 12755.179061352954
323.2847609354267 12648.505224799394
324.3609417519747 12655.771629465637
325.43684536705587 12544.559067776845
326.5124718695279 12534.012329624815
327.58782134820103 12423.876311032782
328.66289389184385 12520.583678149422
329.7376895891921 12227.695542848978
330.8122085289342 12310.799365600335
331.88645079971866 12342.200503486913
332.9604164901575 12216.675247656844
334.03410568881554 12142.270962634466
335.1075184842266 12286.301942434086
336.18065496487543 12054.699814018128
337.2535152192122 12154.994903528994
338.32609933564163 12152.252563396929
339.39840740253203 12097.423944306627
340.4704395082099 12093.08512255075
341.5421957409617 11961.584591459978
342.6136761890357 12039.957517447423
343.6848809406365 11932.53403166965
344.75581008392874 11896.650892612948
345.82646370703696 11851.164276119336
346.8968418980512 11820.434348205628
347.96694474501055 11852.083595016516
349.0367723359268 11844.508696189829
350.106324758759 11786.521446531042
351.1756021014353 11663.314429834283
352.2446044518383 11648.782439599072
353.31333189781435 11839.107399323266
354.38178452716966 11699.87165251857
355.449962427665 11607.812255038561
356.51786568702846 11626.338372182374
357.58549439294256 11775.11975102105
358.6528486330535 11759.355289672483
359.71992849496564 11691.558599234693
360.7867340662433 11685.961483192292
361.8532654344144 11776.795142390247
362.9195226869597 11804.564530066742
363.9855059113288 11726.21443875357
365.05121519492604 11588.507554537193
366.11665062511565 11810.739047292713
367.1818122892273 11699.593026864053
368.2467002745434 11777.008625816943
369.31131466831175 11779.7110951564
370.375655557742 11786.389805098723
371.4397230299983 11755.958301952487
372.5035171722102 11762.902424975417
373.5670380714637 11732.94145415938
374.6302858148101 11881.60741617531
375.6932604892554 11757.7129097885
376.7559621817709 11785.62836645263
377.81839097928605 11706.946724503327
378.8805469686886 11699.246687868963
379.94243023683157 11668.898924285193
381.0040408705263 11745.92959572572
382.0653789565458 11553.174418237413
383.1264445816196 11672.910837637819
384.1872378324406 11617.396172776333
385.2477587956637 11636.316686006066
386.3080075579037 11515.509978681905
387.3679842057336 11461.029587458592
388.4276888256918 11589.218554723298
389.48712150426945 11448.982847287738
390.54628232792857 11375.827336578364
391.6051713830857 11345.414966585877
392.66378875611736 11334.780976408772
393.7221345333637 11359.766590533436
394.7802088011249 11251.17062561268
395.838011645661 11239.955473495447
396.89554315319765 11259.501112697266
397.9528034099112 11120.739504596062
399.00979250194723 11000.537583472036
400.06651051541485 11123.721527527006
401.1229575363741 11133.670279766751
402.17913365085224 10999.216571921754
403.23503894483656 11101.318834845075
404.2906735042761 10968.10484099317
405.3460374150818 10934.967829117692
406.401130763119 10917.704331289497
407.455953634224 10906.771500107407
408.5105061141876 10904.279517109406
409.56478828876243 10736.135774247252
410.6188002436629 10717.931398923678
411.6725420645689 10734.168419123343
412.72601383711117 10795.09636526632
413.77921564689314 10797.370381711562
414.8321475794728 10683.129637953807
415.88480972036814 10629.857933694155
416.93720215506437 10678.080694623235
417.9893249690049 10565.946643605172
419.04117824759123 10443.92475683471
420.09276207619223 10484.465603453284
421.144076540133 10551.318298460585
422.1951217247042 10450.76112809377
423.24589771515275 10465.271793237862
424.2964045966928 10387.461341260558
425.34664245449494 10467.808976716256
426.3966113736933 10310.063115553527
427.4463114393875 10256.977905709986
428.49574273662984 10366.54891459063
429.5449053504417 10212.39215255936
430.5937993658026 10394.798618671197
431.6424248676558 10261.069052527135
432.6907819409007 10175.83588459115
433.73887067040596 10283.887728466334
434.7866911409965 10265.671954736266
435.8342434374608 10215.80986167532
436.88152764455117 10136.573735128633
437.9285438469724 10167.405138531247
438.9752921294057 10064.07540922236
440.02177257648145 10078.209438740965
441.06798527279716 9974.1213207206
442.1139303029122 10148.198718419248
443.1596077513459 10192.629874536435
444.2050177025794 10088.04439344542
445.25016024105753 10094.201656894964
446.2950354511886 10048.110042639253
447.33964341733736 10058.261768852115
448.383984223834 10002.027595085794
449.4280579549686 9954.13544714237
450.471864694995 9974.491762242376
451.5154045281306 10037.856388884775
452.5586775385509 10016.165646217465
453.60168381039693 9990.293006444846
454.64442342776783 10156.802104845503
455.6868964747264 10031.08249419029
456.7291030353008 9974.347883105864
457.77104319347563 10146.341874891394
458.8127170332027 9991.161815460839
459.854124638392 10033.276162275652
460.895266092919 10170.409083842373
461.93614148061897 10165.352848288052
462.97675088529104 10228.848773601447
464.01709439069236 10239.875966797397
465.0571720805492 10194.794234274927
466.0969840385442 10198.337687262087
467.1365303483253 10341.046674720408
468.17581109350067 10247.06271086956
469.2148263576437 10262.696221134665
470.2535762242878 10313.217269637786
471.29206077693016 10414.171001722618
472.33028009902773 10453.520203923454
473.3682342740012 10374.520542795744
474.40592338523857 10431.893417960864
475.4433475160804 10469.81561707883
476.4805067498364 10451.390646597047
477.51740116978 10435.61052853743
478.5540308591426 10566.378141301524
479.59039590112116 10701.19465756446
480.6264963788726 10613.478531753468
481.6623323755193 10794.877646903415
482.6979039741436 10866.119456605982
483.7332112577915 11100.758258656826
484.76825430947247 11359.925522078156
485.80303321215797 11361.581451624055
486.837548048783 11564.17369140839
487.8717989022425 11765.950253805478
488.90578585539697 11779.237869913568
489.9395089910686 11905.208526811128
490.97296839203955 11836.659180561046
492.00616414106116 11846.335413470502
493.0390963208429 11781.216713665619
494.0717650140559 11693.117261613377
495.10417030333883 11566.891499137138
496.1363122712901 11509.986170590704
497.16819100046814 11208.709399173804
498.1998065734024 11121.261071573295
499.2311590725767 10941.36155177812
500.26224858044407 10736.789578687438
501.2930751794156 10578.256113297708
502.3236389518679 10491.956328376657
503.35393998014115 10273.24974818351
504.38397834653733 10220.14347050838
505.4137541333221 10157.609785318195
506.4432674227228 10030.366599613446
507.4725182969323 9943.507044813745
508.5015068381035 9995.96460257514
509.53023312835467 9980.298113314502
510.55869724976765 9783.39416419261
511.58689928438434 9831.716326995955
512.6148393142121 9808.356596204652
513.6425174212218 9895.177756767289
514.6699336873462 9762.292442770025
515.6970881944835 9884.278698162869
516.7239810244901 9774.754013146254
517.7506122591931 9777.219659722155
518.7769819803761 9790.474952569524
519.8030902697901 9843.767468533417
520.8289372091476 9845.36500272493
521.8545228801249 9924.662070498554
522.8798473643619 9877.526200768361
523.9049107434621 9889.67999993433
524.9297130989908 9863.760573744643
525.9542545124805 9865.018165701404
526.9785350654201 9832.670777087453
528.0025548392696 9844.362851889566
529.0263139154504 9759.200461181872
530.0498123753423 9801.361148384643
531.073050300296 9733.457919900027
532.0960277716204 9620.012466966822
533.1187448705896 9660.64454702725
534.1412016784416 9648.98325613733
535.1633982763833 9585.169968777662
536.1853347455726 9564.948874807826
537.2070111671401 9538.539383313282
538.2284276221817 9414.709420790961
539.2495841917516 9247.477863682321
540.2704809568677 9175.392230644398
541.2911179985167 9294.997824732822
542.3114953976419 9156.058452195259
543.3316132351592 9076.833246218766
544.3514715919409 9026.900018496031
545.3710705488247 9048.768500859522
546.3904101866156 9036.470322245468
547.4094905860784 8995.109498444343
548.4283118279418 8951.784987019937
549.4468739929034 8941.885636984127
550.4651771616191 8901.862398432257
551.4832214147063 8811.262223502365
552.501006832761 8891.282639265622
553.5185334963226 8816.191244578462
554.5358014859103 8912.75740544673
555.5528108820035 8840.826203625085
556.5695617650363 8795.105618569827
557.5860542154242 8740.982133971132
558.6022883135283 8831.062058491896
559.6182641396881 8766.968637961672
560.6339817741991 8762.039192944894
561.6494412973225 8847.268385894526
562.6646427892883 8858.518905751818
563.6795863302796 8745.08171702101
564.694272000459 8735.590048217236
565.7086998799423 8895.132948949042
566.7228700488104 8811.324845811783
567.7367825871115 8697.290384937036
568.7504375748576 8770.673769153924
569.7638350920224 8762.740192077077
570.7769752185486 8758.03468877015
571.7898580343353 8758.991007571658
572.802483619258 8708.1334306393
573.8148520531431 8923.407585452436
574.8269634157932 8834.774788048566
575.8388177869692 8801.088230941685
576.8504152463938 8891.758929380017
577.8617558737587 9071.716862699674
578.8728397487175 8978.559579966748
579.883666950891 9028.61478069171
580.8942375598654 9301.778306047305
581.9045516551851 9353.221509729052
582.9146093163617 9559.004189007912
583.924410622878 9418.915137248703
584.9339556541727 9472.289681168408
585.9432444896538 9683.220112101062
586.9522772086875 9593.12111566462
587.9610538906127 9716.504947484704
588.9695746147318 9544.56985592336
589.9778394603054 9569.471114070333
590.985848506567 9441.370507444157
591.9936018327098 9417.372133462692
593.0010995178891 9106.714837413387
594.0083416412344 9264.302171277697
595.0153282818283 9008.9363645705
596.0220595187293 8928.37608693798
597.0285354309508 8941.25266967517
598.0347560974806 8788.24998564211
599.0407215972609 8768.931461070864
600.0464320092051 8717.488351077665
601.0518874121954 8710.601401664348
602.0570878850685 8694.616138148573
603.062033506636 8671.33734592902
604.0667243556636 8610.926526035684
605.0711605108936 8523.6603323107
606.0753420510264 8741.929062733629
607.0792690547278 8681.174706896605
608.082941600629 8553.471154964973
609.0863597673306 8692.996862129594
610.0895236333909 8747.171509997384
611.0924332773357 8895.466169074907
612.0950887776617 8853.66758640404
613.0974902128219 8893.967438157244
614.0996376612384 9041.687601308793
615.1015312013005 9177.384724424004
616.1031709113595 9306.051346930615
617.1045568697336 9297.806747559069
618.1056891547069 9393.16560192348
619.1065678445229 9555.513865424977
620.1071930173985 9824.424691654895
621.1075647515099 9909.194118794574
622.1076831250048 10065.931819955438
623.1075482159849 10221.335492652755
624.1071601025305 10398.059978703384
625.1065188626781 10539.2061198137
626.105624574433 10873.475955130587
627.1044773157682 11000.953263872652
628.1030771646128 11133.445107172374
629.1014241988742 11305.646036858354
630.0995184964158 11463.485837229795
631.0973601350688 11614.600055432074
632.0949491926294 11814.762340328374
633.0922857468631 11648.472724269264
634.089369875499 11743.07386736886
635.0862016562278 11665.587335128412
636.0827811667077 11511.112071172463
637.0791084845641 11518.143548118382
638.0751836873878 11255.357483692944
639.0710068527369 11251.80050958917
640.0665780581294 10905.032354604973
641.0618973810506 10754.26675899038
642.0569648989604 10769.320616924524
643.0517806892676 10312.917715096588
644.0463448293649 10318.57687180219
645.040657396592 10020.943896142806
646.0347184682723 9843.998063953055
647.0285281216875 9648.550852348806
648.0220864340772 9480.539158193782
649.0153934826558 9300.242460677935
650.0084493446047 9198.714092405025
651.0012540970674 9159.000987748796
651.9938078171526 8870.759974134227
652.9861105819346 8834.711927605807
653.9781624684565 8896.791068180284
654.9699635537254 8647.566904354306
655.9615139147136 8634.357297898696
656.9528136283589 8511.706542338792
657.9438627715699 8611.508534396617
658.9346614212154 8450.809017069036
659.925209654135 8282.737984127303
660.9155075471263 8254.466609126193
661.9055551769616 8296.99508466384
662.895352620375 8405.428558022668
663.8848999540678 8139.867956649457
664.8741972547068 8186.335381646782
665.863244598926 8063.429459437182
666.8520420633213 8113.715968451892
667.8405897244611 7955.083511896344
668.8288876588758 7905.013394809362
669.8169359430613 8026.626558788468
670.8047346534822 7959.946353206105
671.7922838665672 7838.5369681092125
672.7795836587156 7946.022279899102
673.766634106285 8115.924799996608
674.7534352856092 7805.052797724085
675.7399872729766 7828.5934575402425
676.7262901446538 7880.0923402969975
677.712343976862 7933.16171240596
678.6981488457986 8008.78334820241
679.6837048276229 7838.378542467271
680.6690119984596 7922.116116920382
681.6540704344043 7894.734774946222
682.6388802115107 7846.406627066601
683.6234414058108 7828.711705348438
684.6077540932874 7709.663852409108
685.591818349907 7792.433079754311
686.575634251587 7772.364735987723
687.5592018742263 7719.502110126223
688.5425212936734 7498.785664885979
689.5255925857564 7822.481006966684
690.5084158262707 7668.320160801166
691.4909910909646 7600.1039808279365
692.4733184555644 7527.997886732419
693.4553979957618 7641.995026539577
694.4372297872123 7583.127775884733
695.4188139055404 7528.061132742531
696.4001504263324 7394.347723535633
697.3812394251509 7603.159388649782
698.3620809775111 7403.608545712409
699.3426751589104 7418.834449044123
700.3230220448004 7456.476829692621
701.3031217106054 7424.534674325985
702.2829742317172 7587.175763739739
703.2625796834873 7276.88466119345
704.2419381412474 7346.480101167146
705.22104968028 7461.8810632101795
706.1999143758458 7392.566521347408
707.178532303169 7403.422046451819
708.1569035374378 7437.725714547523
709.1350281538107 7492.420621948632
710.1129062274158 7455.96525197903
711.0905378333373 7598.552583513281
712.0679230466376 7608.655152980855
713.0450619423427 7742.787784501746
714.0219545954424 7907.854734440423
714.9986010808989 7806.955209035133
715.9750014736292 7921.8282913076255
716.9511558485392 8048.507982320024
717.9270642804786 8257.918715253649
718.9027268442787 8229.169613275459
719.8781436147328 8263.404832696842
720.8533146666014 8253.42218274169
721.828240074612 8257.542872122896
722.8029199134635 8274.876825642845
723.7773542578125 8211.692233364192
724.751543182294 8187.235611782895
725.7254867615029 8129.395207098316
726.6991850700015 7894.0016567096145
727.6726381823228 7936.2178620041905
728.6458461729599 7898.798268387191
729.6188091163858 7766.608085025519
730.5915270870246 7725.5197712288555
731.5640001592856 7663.341687006248
732.536228407529 7668.625318254849
733.5082119060917 7698.691725593302
734.4799507292755 7666.2357599471725
735.4514449513481 7645.757037660624
736.4226946465496 7707.198156563815
737.3936998890786 7831.142192755209
738.3644607531078 7644.61779390972
739.3349773127793 7684.614254319187
740.3052496421951 7606.72477432273
741.27527781543 7487.064588561245
742.2450619065221 7415.5899212573295
743.2146019894826 7465.387350030546
744.183898138288 7409.871577583891
745.1529504268801 7335.558513086219
746.1217589291682 7205.213404567044
747.0903237190341 7223.086144754027
748.058644870318 7168.255241980219
749.0267224568397 7162.765377392674
749.994556552374 7073.15799415642
750.9621472306771 7131.179672489484
751.9294945654583 7046.5202365107225
752.8965986304011 7096.24475550598
753.8634594991636 6986.228824329526
754.8300772453586 7031.2490713497555
755.7964519425768 7037.782572668737
756.762583664371 7183.358401586338
757.7284724842611 7158.397178814159
758.6941184757416 7094.257455123516
759.6595217122667 7098.128939913416
760.6246822672638 7104.955662296113
761.5896002141235 6987.207744321216
762.5542756262093 7044.527142364306
763.5187085768503 7135.121706240908
764.4828991393406 7005.383974670755
765.4468473869474 6988.941930457872
766.4105533929032 7068.655267932818
767.3740172304078 6998.189541439751
768.3372389726283 7030.212321386952
769.3002186926988 6881.340521709675
770.2629564637282 6847.379601153033
771.2254523587872 6806.9547412228685
772.1877064509154 6793.841926969806
773.1497188131179 6664.093732005245
774.1114895183728 6647.416012235194
775.0730186396268 6636.929754976877
776.0343062497905 6564.513884920436
776.9953524217381 6538.870784437315
777.9561572283274 6577.680595141513
778.9167207423689 6604.57883514298
779.8770430366476 6499.119464453114
780.8371241839159 6473.618262365997
781.7969642568951 6514.994614058728
782.7565633282757 6674.897506778625
783.7159214707099 6475.991959033031
784.6750387568281 6561.029820677397
785.6339152592227 6436.682790919545
786.5925510504512 6497.068720775247
787.5509462030477 6586.9091862501755
788.5091007895098 6484.557034156488
789.4670148823006 6484.771077912746
790.4246885538596 6463.454308312383
791.3821218765861 6538.271093242836
792.3393149228505 6368.907224494465
793.2962677649975 6507.822017839055
794.2529804753303 6533.818380669971
795.20945312613 6538.769000961111
796.1656857896378 6473.81026706982
797.1216785380675 6466.527794489292
798.0774314435985 6559.3789962028295
799.0329445783846 6730.507086797855
799.9882180145414 6717.659923806849
800.9432518241574 6710.378786597947
801.89804607929 6840.471251657424
802.852600851962 6855.620920909978
803.8069162141637 6889.062514183854
804.760992237856 6964.766165472749
805.714828994971 7105.8757023978205
806.6684265574077 7120.538643316775
807.6217849970271 7093.856120900692
808.574904385674 6955.869624847199
809.527784795142 7121.692276438704
810.4804262972102 7166.292634144533
811.4328289636178 6980.753700004543
812.3849928660748 6771.447994357896
813.3369180762638 6759.620294664326
814.2886046658241 6819.694592395617
815.2400527063783 6712.464163430135
816.1912622695108 6567.525220249756
817.1422334267718 6638.818043064372
818.0929662496856 6457.688859626372
819.0434608097457 6320.305388704974
819.9937171784059 6375.161097639389
820.9437354271013 6291.63126857269
821.8935156272255 6339.5002476198915
822.8430578501484 6176.857919973517
823.7923621672016 6045.269077903764
824.7414286496896 6087.361754166531
825.6902573688876 6122.44244825934
826.6388483960363 6053.724053233488
827.5872018023492 6031.075137007729
828.5353176590033 6117.481534757671
829.4831960371503 5999.5346170686435
830.4308370079016 5954.004569006952
831.3782406423525 6010.893738871297
832.3254070115545 6008.503824656441
833.2723361865319 5916.182649147667
834.2190282382799 5856.221045616954
835.1654832377644 5882.850279903931
836.1117012559116 5819.5059652422315
837.0576823636256 6021.234023409193
838.003426631778 5854.155194455602
838.9489341312074 5784.7973639980255
839.8942049327197 5947.352561895566
840.8392391070975 6004.447632335494
841.7840367250865 5838.379185672412
842.7285978573982 5857.118867815339
843.672922574724 5973.961880766592
844.6170109477152 5850.719888276034
845.560863046996 5843.184059947688
846.5044789431595 5816.183813159901
847.4478587067697 5839.689591621382
848.3910024083561 5969.978090245595
849.333910118421 5883.519170416783
850.2765819074339 5853.413721986852
851.2190178458332 5938.614139545667
852.161218004032 5980.64354320627
853.1031824524016 5891.129961804539
854.0449112612987 5863.221813205397
854.9864045010327 5949.64963421543
855.9276622418947 5833.654465729234
856.8686845541379 5859.363053924067
857.8094715079915 5841.07153745634
858.7500231736467 6048.847019353468
859.690339621271 5919.184834498469
860.6304209209939 5933.399559250839
861.5702671429244 5857.3174900343665
862.5098783571284 5915.673849392692
863.4492546336569 5981.045368335491
864.3883960425155 5937.117123356247
865.3273026536863 5933.148079546484
866.2659745371238 5864.155041789924
867.2044117627465 6176.451087242101
868.1426144004472 5951.656964548777
869.0805825200823 6064.233667013412
870.0183161914847 6105.8079914198215
870.9558154844526 6166.886649698243
871.8930804687552 6157.829142317407
872.8301112141307 6078.326088980246
873.7669077902865 6229.452305894065
874.7034702669062 6348.9156319283065
875.6397987136315 6276.8339369235855
876.5758932000863 6398.584239845581
877.5117537958522 6465.8074871246745
878.4473805704911 6339.3754562219365
879.3827735935283 6385.802870447567
880.3179329344603 6542.820269552484
881.2528586627541 6615.018102400021
882.1875508478479 6658.522690456504
883.1220095591489 6566.877427334048
884.0562348660296 6476.193256452355
884.9902268378391 6544.9861982964285
885.9239855438955 6428.219036078581
886.8575110534839 6344.023537004874
887.7908034358588 6433.463999389291
888.7238627602474 6434.365816758442
889.6566890958475 6363.10860699774
890.5892825118208 6214.428217510491
891.5216430773125 6277.334983565282
892.4537708614189 6236.092570287895
893.3856659332196 6088.057408360654
894.3173283617652 5997.675347351642
895.2487582160684 6065.0527866680695
896.179955565116 5916.068221395532
897.110920477864 5915.630201195824
898.0416530232451 5853.358120385272
898.9721532701478 5755.165994109618
899.9024212874428 5848.731953507917
900.8324571439662 5705.205671081724
901.7622609085302 5733.929497166681
902.6918326499072 5659.009531848939
903.6211724368477 5622.077442706906
904.5502803380696 5814.761515560327
905.4791564222614 5743.925707491157
906.4078007580792 5586.236301329574
907.3362134141571 5533.165737091544
908.2643944590909 5703.313152002595
909.1923439614493 5537.422855009474
910.1200619897754 5522.549540431492
911.0475486125779 5720.891573075167
911.9748038983344 5616.008711668568
912.9018279155007 5516.73476690707
913.8286207324982 5402.829241141562
914.7551824177117 5586.133741704072
915.6815130395116 5487.923809590926
916.6076126662283 5421.844519139574
917.533481366163 5459.951718053659
918.4591192075914 5474.044834287185
919.3845262587565 5576.652037108807
920.3097025878706 5418.355031388068
921.2346482631237 5443.314315055355
922.1593633526682 5512.251999123372
923.0838479246304 5468.544622399202
924.0081020471061 5565.11403100344
924.9321257881656 5334.993593527683
925.8559192158464 5447.399409031479
926.7794823981512 5350.11608620767
927.7028154030686 5345.176010801899
928.6259182985414 5290.532139025546
929.5487911524906 5473.9541201344155
930.4714340328119 5504.615324960549
931.3938470073608 5257.875272936554
932.3160301439748 5343.70893122757
933.2379835104548 5393.725915625917
934.1597071745709 5388.381384738637
935.0812012040769 5360.340540944465
936.002465666681 5473.251782422828
936.9235006300696 5424.531859511871
937.8443061619055 5450.378695561148
938.7648823298077 5287.283165482013
939.6852292013809 5314.948690762678
940.6053468441951 5438.1832693449305
941.5252353257874 5196.187987580189
942.4448947136698 5312.034265647782
943.364325075323 5294.295127575622
944.2835264782043 5381.370657681717
945.2024989897309 5298.850490973269
946.1212426773054 5293.346215505224
947.0397576082851 5384.1918927575025
947.9580438500125 5486.143713519098
948.8761014697939 5494.7597788770245
949.7939305349064 5439.089425825504
950.7115311125999 5304.52866409263
951.6289032700952 5292.219318877042
952.5460470745875 5479.39184941662
953.4629625932339 5269.659384940287
954.3796498931715 5413.98839098456
955.2961090415029 5410.079768734917
956.2123401053068 5333.1510257556165
957.1283431516276 5328.428193664056
958.0441182474842 5310.875687903451
958.9596654598663 5474.574165692926
959.8749848557309 5318.611415745889
960.7900765020167 5296.782323235029
961.7049404656209 5213.2635099928975
962.6195768134185 5312.480923328408
963.5339856122537 5368.55048434253
964.4481669289453 5432.358799812038
965.3621208302793 5312.66349786796
966.2758473830145 5277.464487955426
967.1893466538822 5420.020003682539
968.1026187095813 5231.947240465225
969.0156636167867 5306.531522695446
969.9284814421426 5356.358897835562
970.8410722522622 5322.888570752308
971.753436113735 5278.719113360233
972.6655730931161 5263.458540616701
973.5774832569368 5330.560466090953
974.4891666716958 5278.698617920226
975.4006234038698 5217.3850903584025
976.3118535198955 5244.180737658266
977.2228570861935 5389.373722440576
978.1336341691494 5401.695775613595
979.0441848351202 5211.455059634311
979.9545091504333 5409.979296702621
980.864607181391 5324.83218334476
981.7744789942699 5361.135663369768
982.6841246553086 5364.833146602566
983.5935442307236 5395.299712859276
984.5027377867027 5342.733005042525
985.4117053894024 5446.217294952756
986.3204471049557 5267.405858456167
987.2289629994648 5434.597317933026
988.1372531390007 5539.977526785959
989.0453175896091 5363.1777648727675
989.9531564173067 5461.851622119897
990.860769688079 5328.898644300591
991.7681574678918 5421.296659043349
992.6753198226706 5463.26362239718
993.582256818323 5425.860923943919
994.4889685207218 5441.057252698475
995.3954549957143 5643.114297896753
996.301716309119 5598.715216283961
997.2077525267232 5537.437514350997
998.1135637142943 5467.423503771133
999.0191499375615 5625.1142865749825
999.924511262232 5692.646220918556
1000.8296477539861 5571.397464226708
1001.7345594784656 5573.22538918801
1002.6392465012996 5536.467708534473
1003.5437088880753 5694.331621579413
1004.4479467043584 5627.434253264745
1005.3519600156869 5465.244608035045
1006.2557488875718 5598.542761624697
1007.1593133854858 5617.692724465273
1008.0626535748888 5519.410582798211
1008.9657695212009 5434.8161595803695
1009.8686612898182 5688.518662380617
1010.7713289461135 5664.3929406987945
1011.6737725554212 5515.166605768698
1012.5759921830577 5520.03346854923
1013.4779878943027 5506.434493202171
1014.379759754418 5589.019180514146
1015.2813078286254 5394.258502478358
1016.18263218213 5397.342565932466
1017.0837328801026 5341.952451100903
1017.9846099876886 5478.0398251852885
1018.8852635700023 5264.586497215222
1019.7856936921362 5282.356118938771
1020.6859004191447 5408.71993429451
1021.5858838160675 5281.577582485922
1022.4856439479063 5203.81243773015
1023.3851808796389 5181.508365628984
1024.2844946762143 5287.020589296346
1025.183585402554 5310.05212933666
1026.082453123554 5019.171749594173
1026.9810979040776 5192.064222688385
1027.8795198089647 5046.5945551952345
1028.777718903024 5107.3560033421045
1029.6756952510368 5085.838251716829
1030.5734489177648 5055.63557728615
1031.4709799679313 5103.432767889327
1032.3682884662358 5288.281841189652
1033.2653744773506 4887.914413256575
1034.1622380659192 4946.1634216137345
1035.058879296559 5019.284256871301
1035.9552982338591 5134.846179222679
1036.8514949423825 5047.107843231452
1037.7474694866614 5044.470274044889
1038.6432219312028 4967.075780419533
1039.5387523404825 5201.715371485434
1040.4340607789582 4992.95761203623
1041.3291473110476 5031.985452842988
1042.2240120011465 5155.6936337415555
1043.1186549136273 5130.296953319451
1044.0130761128294 4997.254463918494
1044.9072756630649 5015.191623019544
1045.8012536286205 5220.096989908457
1046.6950100737577 5199.97762263701
1047.588545062701 5205.425349469334
1048.481858659663 5127.262907430809
1049.3749509288118 5274.200509295318
1050.2678219343034 5210.898206142746
1051.1604717402515 5271.142116638165
1052.0529004107575 5172.67791629994
1052.9451080098825 5214.379488439192
1053.8370946016694 5247.980049218148
1054.7288602501267 5260.774657483719
1055.6204050192446 5248.823808875811
1056.511728972977 5331.380649300436
1057.402832175254 5400.336233478785
1058.2937146899785 5209.6777073440135
1059.1843765810263 5234.52197392519
1060.0748179122456 5342.155576442061
1060.9650387474576 5236.953327267274
1061.855039150456 5320.4892849402995
1062.7448191850071 5220.409685887038
1063.6343789148505 5373.11525339406
1064.5237184037014 5437.610197877141
1065.412837715241 5238.311170809224
1066.3017369131267 5277.108809006837
1067.190416060992 5211.00281967173
1068.0788752224398 5185.234728261403
1068.9671144610438 5211.939032631058
1069.8551338403558 5266.4813758230885
1070.7429334239023 5252.470252524663
1071.6305132751695 5119.174257883975
1072.517873457633 5203.727049630308
1073.4050140347335 5153.169620174103
1074.2919350698776 5190.598975383635
1075.1786366264623 5112.141947721844
1076.0651187678395 5129.774921411236
1076.95138155735 5032.077461061874
1077.8374250582929 5025.040121977843
1078.7232493339507 5115.821346836265
1079.608854447577 5023.8138491067475
1080.4942404623907 4942.000917645157
1081.3794074415982 5011.213909634793
1082.2643554483657 4991.331065950209
1083.149084545841 5003.994465270072
1084.033594797138 4879.596100263757
1084.9178862653516 4923.248384437868
1085.8019590135427 5063.637734405131
1086.6858131047484 4788.953674564262
1087.5694486019802 5014.0158940604715
1088.4528655682225 4951.7475271944595
1089.3360640664287 5081.261764598172
1090.2190441595321 5014.045984306103
1091.1018059104317 5011.130274180716
1091.98434938201 5111.629300609371
1092.866674637111 5127.243435868672
1093.748781738559 4998.365176267837
1094.6306707491512 4819.791357910402
1095.5123417316554 5000.147915830219
1096.3937947488157 4907.467808878656
1097.2750298633455 4865.556473362545
1098.156047137938 4923.603824149839
1099.0368466352556 4944.106055140489
1099.9174284179317 5055.323179633599
1100.7977925485757 4811.455410856695
1101.6779390897755 4890.917741132465
1102.5578681040806 4854.050337571769
1103.4375796540226 4925.365151585637
1104.3170738021054 4855.243168042133
1105.1963506108077 4675.129808470134
1106.0754101425773 4720.698406704501
1106.9542524598382 4898.321387654782
1107.8328776249855 4799.998258594015
1108.7112857003904 4800.060099396188
1109.5894767483987 4822.204117687195
1110.4674508313292 4998.300589964868
1111.3452080114657 4780.291268268835
1112.2227483510815 5009.279778456048
1113.1000719124077 5020.851113635191
1113.9771787576592 5107.679881061199
1114.854068949022 4993.607258630756
1115.7307425486542 5133.880513731896
1116.6071996186893 5190.303480282904
1117.483440221229 5288.682185107161
1118.3594644183577 5150.082119350255
1119.235272272128 5246.63291539056
1120.1108638445658 5381.319357075401
1120.9862391976712 5618.739590908097
1121.8613983934229 5453.7501156924645
1122.7363414937627 5591.274801988257
1123.6110685606182 5578.822173461499
1124.485579655884 5779.323994933621
1125.359874841426 5729.333246279085
1126.2339541790916 5786.585848176825
1127.1078177306936 6076.496373559311
1127.9814655580267 5840.426976756516
1128.854897722851 5830.690810097092
1129.7281142869106 5878.032522493044
1130.6011153119125 6005.764663368043
1131.473900859548 6021.082886598446
1132.3464709914697 5975.443705717986
1133.2188257693178 5911.805167240732
1134.0909652546961 5824.832587656716
1134.96288950919 5753.554140610523
1135.8345985943506 5901.162482722645
1136.7060925717087 5607.6258663809385
1137.57737150277 5704.119654877177
1138.4484354490069 5781.242061718504
1139.3192844718778 5549.980584809709
1140.1899186327992 5410.70799068735
1141.060337993178 5509.525157360762
1141.930542614382 5360.461345287408
1142.8005325577597 5252.46144282655
1143.670307884635 5102.101359550995
1144.5398686563003 5191.484952741142
1145.409214934025 5196.327995450464
1146.2783467790541 4869.153116147256
1147.1472642526023 4907.319288020288
1148.0159674158622 5002.285855403205
1148.8844563300026 4856.4215306807455
1149.7527310561618 4736.619476703494
1150.6207916554504 4679.343963498838
1151.4886381889592 4674.592715648759
1152.3562707177498 4815.297726260217
1153.2236893028585 4625.13662998837
1154.090894005296 4561.3514692981025
1154.9578848860474 4606.42336996172
1155.8246620060709 4574.956362802659
1156.6912254262988 4492.827289255414
1157.5575752076438 4437.82490409443
1158.42371141098 4615.576178865515
1159.2896340971656 4616.551262049757
1160.1553433270346 4486.528471416798
1161.0208391613887 4537.302741107568
1161.8861216610057 4518.470317420562
1162.75119088664 4588.269437910243
1163.6160468990201 4442.252256709204
1164.4806897588442 4400.569010829301
1165.3451195267917 4552.059962346442
1166.2093362635114 4539.39421988823
1167.0733400296285 4494.543448769584
1167.9371308857444 4441.794824318746
1168.8007088924278 4418.4415865325045
1169.6640741102328 4493.3338140848655
1170.5272265996773 4421.318262215742
1171.390166421259 4274.45727730426
1172.252893635452 4507.1491327111735
1173.1154083026995 4623.304247644336
1173.977710483421 4528.624710835638
1174.8398002380145 4344.575959271299
1175.7016776268483 4575.400715089456
1176.563342710264 4430.138738979561
1177.4247955485826 4423.030467743337
1178.2860362020947 4523.555216688748
1179.147064731069 4365.252259393428
1180.0078811957483 4521.289295134454
1180.8684856563486 4444.975422266527
1181.7288781730604 4506.015694054093
1182.589058806052 4586.677466931091
1183.4490276154593 4720.256632785015
1184.3087846614017 4549.21707895311
1185.1683300039676 4587.763568338575
1186.027663703222 4836.427024050232
1186.8867858192025 4721.084058098508
1187.7456964119228 4802.202564401004
1188.6043955413716 4743.716655968294
1189.4628832675116 4960.507919655554
1190.3211596502842 5026.166548766698
1191.179224749596 4990.962789144327
1192.0370786253388 4864.483062424111
1192.8947213373758 5075.745862888594
1193.7521529455407 5224.3516226347065
1194.6093735096438 4931.005973497047
1195.466383089477 4991.497371569814
1196.3231817447977 4963.631281937207
1197.1797695353398 5197.25611977451
1198.0361465208189 4948.011335706053
1198.8923127609214 4999.030795440448
1199.7482683153048 5210.194267389607
1200.6040132436028 5265.180989960631
1201.459547605431 5106.888971191818
1202.3148714603722 5137.86692409838
1203.1699848679855 5097.674952552602
1204.0248878878065 5195.713876028774
1204.8795805793507 4847.555746082797
1205.7340630020935 5037.520148442144
1206.5883352155033 5143.8724833444285
1207.4423972790064 5049.656196264048
1208.2962492520237 4879.61441476549
1209.1498911939307 4905.2560030058285
1210.0033231640937 4942.009201500272
1210.8565452218427 4943.846490258321
1211.7095574264913 4660.455946799377
1212.5623598373222 4716.332785564942
1213.4149525135963 4689.921104756542
1214.2673355145507 4783.847553186647
1215.1195088993936 4613.773233361884
1215.9714727273113 4640.251613784907
1216.8232270574663 4809.930410040918
1217.6747719489904 4490.80499674714
1218.5261074609934 4490.895632519077
1219.3772336525653 4634.062154730434
1220.2281505827668 4585.904334024415
1221.0788583106296 4734.154202557675
1221.9293568951707 4448.001028871731
1222.7796463953746 4393.387576275765
1223.629726870202 4647.171197496179
1224.4795983785934 4548.926649602143
1225.3292609794553 4499.738443518625
1226.1787147316809 4360.743994951545
1227.0279596941327 4414.498389238805
1227.8769959256424 4340.536132593401
1228.7258234850306 4504.2743817000655
1229.5744424310833 4321.844155136969
1230.422852822563 4523.429774649092
1231.2710547182105 4608.35054601477
1232.119048176739 4354.821579744618
1232.9668332568417 4289.912343685247
1233.8144100171812 4443.650405976894
1234.6617785163999 4409.078077131124
1235.508938813111 4170.199644377773
1236.3558909659114 4201.256036739262
1237.2026350333617 4416.51284167388
1238.049171074008 4456.339030057831
1238.8954991463652 4288.297500907664
1239.741619308932 4340.686077355352
1240.587531620169 4376.456393839673
1241.4332361385277 4411.1689312259605
1242.2787329224248 4257.714741588422
1243.1240220302534 4231.672517863694
1243.9691035203869 4230.83185702668
1244.813977451171 4441.87269645747
1245.6586438809263 4314.252431869687
1246.5031028679496 4149.119487676801
1247.3473544705157 4406.057540821583
1248.1913987468706 4328.481871514566
1249.0352357552383 4149.582578791722
1249.8788655538228 4249.8043102699685
1250.7222882007918 4361.4665398984025
1251.565503754302 4399.414121972635
1252.4085122724755 4124.2051756597375
1253.2513138134182 4400.54551620761
1254.0939084352049 4235.604401612511
1254.9362961958905 4317.093338161905
1255.7784771535007 4218.260780782282
1256.6204513660432 4343.19915032651
1257.4622188915 4455.336947156438
1258.3037797878242 4277.107680863811
1259.1451341129468 4190.679413908591
1259.9862819247755 4344.853335992676
1260.8272232811978 4330.483653020355
1261.6679582400666 4517.410799150907
1262.5084868592203 4172.377954320811
1263.34880919647 4279.814761682756
1264.1889253095997 4348.265073960078
1265.0288352563712 4404.087888698123
1265.8685390945266 4209.963543316049
1266.7080368817751 4381.217070182708
1267.5473286758115 4561.807956660501
1268.386414534294 4330.084637210553
1269.2252945148703 4080.1223059182353
1270.0639686751547 4228.911246863243
1270.9024370727402 4184.7683272945915
1271.7406997651997 4222.635764203852
1272.5787568100714 4053.36353587588
1273.4166082648808 4147.531850955547
1274.2542541871244 4210.597742245328
1275.091694634275 4466.380462795956
1275.9289296637817 4073.71166682864
1276.7659593330663 4285.443085725676
1277.6027836995308 4201.9788734712765
1278.4394028205552 4319.428417475747
1279.2758167534867 4171.4950437556
1280.112025555658 4043.5410515845238
1280.9480292843746 4193.847520610507
1281.7838279969128 4093.26475146097
1282.6194217505326 4130.566072210871
1283.4548106024686 3957.7111824259255
1284.289994609926 4099.214188665529
1285.1249738300921 4268.330485831312
1285.959748320127 4088.9113358389054
1286.7943181371702 4112.423415625067
1287.6286833383328 4128.705915618483
1288.4628439807038 4190.565253483606
1289.2968001213521 4048.240496746549
1290.1305518173194 4162.570248506062
1290.9640991256183 4214.717956693736
1291.7974421032523 4077.236165430682
1292.630580807183 4042.7140573137876
1293.463515294361 4188.251117799651
1294.29624562171 4367.531685088148
1295.12877184613 4099.814022869164
1295.961094024493 4132.714369098081
1296.79321221365 4184.441216898253
1297.6251264704333 4255.551072518451
1298.4568368516466 4574.286185845753
1299.2883434140658 4282.227685049202
1300.1196462144526 4106.182468938503
1300.9507453095375 4368.6481625162105
1301.7816407560313 4290.299601078607
1302.6123326106172 4370.971479540759
1303.4428209299622 4263.639556743338
1304.2731057707024 4568.673505511251
1305.1031871894502 4321.141160792541
1305.933065242798 4384.10997096932
1306.7627399873181 4387.66298028482
1307.5922114795467 4732.738937085047
1308.4214797760123 4818.53437519091
1309.2505449332057 4477.487635804281
1310.0794070076026 4582.524923806965
1310.9080660556538 4694.130998850486
1311.736522133786 4611.9175507034
1312.5647752983987 4521.415368617876
1313.3928256058734 4396.987289705729
1314.2206731125661 4620.639279383934
1315.048317874809 4669.2946556387315
1315.8757599489109 4536.067592471578
1316.7029993911547 4631.672475613982
1317.5300362578055 4726.949157896146
1318.356870605101 4521.8387793355705
1319.183502489257 4415.5823684807265
1320.0099319664623 4652.798184735
1320.836159092889 4656.580740833748
1321.66218392468 4698.514887385847
1322.4880065179532 4560.600553454313
1323.3136269288134 4593.6615087259825
1324.1390452133292 4807.291649224208
1324.9642614275563 4872.856167675582
1325.7892756275214 4644.770636089046
1326.6140878692295 4545.126815611404
1327.4386982086617 5049.092288535301
1328.2631067017755 4688.955315591696
1329.0873134045069 4700.966330053282
1329.911318372764 4568.038388997128
1330.735121662441 4636.281289519976
1331.558723329399 4578.448187493877
1332.3821234294774 4595.165610577146
1333.2053220185007 4597.955621755018
1334.0283191522612 4540.16843634011
1334.851114886529 4574.7146561095315
1335.6737092770582 4514.349756542257
1336.4961023795695 4503.3379634658295
1337.3182942497697 4414.791934492754
1338.1402849433325 4481.144735700342
1338.962074515921 4336.067044698501
1339.7836630231632 4321.777662468912
1340.6050505206676 4785.6529762024165
1341.426237064028 4578.248730175187
1342.2472227088037 4384.486079803096
1343.0680075105338 4250.908357205293
1343.888591524741 4434.256125886312
1344.7089748069138 4549.0133955658985
1345.5291574125276 4331.277718891999
1346.3491393970307 4295.21062752859
1347.168920815846 4495.71919259268
1347.9885017243778 4558.867315560243
1348.8078821780036 4349.710433042036
1349.6270622320844 4423.648926745702
1350.4460419419447 4234.2636883504
1351.2648213629054 4466.476904698387
1352.0834005502438 4149.091355602846
1352.90177955923 4224.59720023216
1353.7199584451064 4383.279972631762
1354.5379372630887 4299.3811924012325
1355.355716068374 4256.261832371687
1356.1732949161305 4175.543194622198
1356.9906738615155 4257.177744944188
1357.8078529596478 4338.055023094106
1358.6248322656375 4345.771819431519
1359.441611834567 4216.028464753138
1360.2581917214866 4395.752612493927
1361.0745719814367 4318.024170342602
1361.890752669433 4234.340312823916
1362.7067338404577 4172.567579576689
1363.5225155494845 4389.225938532627
1364.3380978514506 4427.082558933075
1365.1534808012839 4083.1441783528353
1365.9686644538815 3943.273918938163
1366.783648864117 4355.976746574877
1367.5984340868417 4389.1988874569415
1368.413020176893 4273.809589280501
1369.2274071890715 3994.5831376552246
1370.0415951781652 4362.884604781613
1370.8555841989346 4325.372179293336
1371.6693743061223 4002.5316763073583
1372.48296555444 3918.1292743689382
1373.2963579985844 4287.784559594291
1374.1095516932255 4225.700876927076
1374.9225466930166 3988.6799041128274
1375.7353430525782 4175.490854318696
1376.5479408265164 4038.056235137751
1377.36034006941 4174.45871605189
1378.1725408358216 4195.6361971496
1378.9845431802805 3947.3813076344536
1379.796347157304 4484.192625299924
1380.6079528213813 4234.74036050463
1381.4193602269788 3965.6990041647905
1382.230569428546 3998.597675627858
1383.0415804805016 4171.497543263893
1383.852393437246 4225.999837177709
1384.6630083531563 4136.148203301714
1385.4734252825892 4024.669244427559
1386.2836442798798 4142.53789772137
1387.0936653993322 4188.399850651118
1387.9034886952395 4079.261127924595
1388.713114221864 4243.945912405298
1389.5225420334482 4191.649501861522
1390.331772184214 4088.026558999446
1391.1408047283585 3881.8073543262058
1391.9496397200564 4059.9171356431157
1392.758277213461 4164.198132477878
1393.5667172627054 4265.257335516673
1394.3749599218918 4058.4826478335394
1395.1830052451114 3906.038884122065
1395.9908532864265 4062.5705803556725
1396.7985040998774 4190.517753976704
1397.6059577394808 3910.217463057578
1398.4132142592352 4054.4579666577047
1399.2202737131156 3960.748837400615
1400.027136155073 4239.13161030743
1400.8338016390353 3997.4393713469603
1401.6402702189134 3992.182120927042
1402.446541948586 4004.155597395965
1403.2526168819204 3902.5804929070573
1404.058495072757 3885.9775106740985
1404.8641765749107 3988.717888860226
1405.6696614421799 4084.7275743240207
1406.4749497283356 4409.818688902134
1407.280041487129 3927.0362834343055
1408.084936772295 3760.431311870162
1408.8896356375335 4079.8251408672086
1409.6941381365323 4029.3966660172664
1410.498444322955 3818.451625275323
1411.3025542504402 3879.006844813071
1412.106467972606 4020.407046675495
1412.9101855430508 3972.73995670707
1413.7137070153458 3674.404214208448
1414.5170324430437 3955.9504054710183
1415.320161879672 3973.6379744824235
1416.1230953787435 4127.962556785869
1416.925832993742 3830.502168619064
1417.7283747781275 3756.564017920923
1418.5307207853439 3941.6288491911278
1419.3328710688093 3822.139022701101
1420.134825681922 3495.423479979175
1420.9365846780584 3666.49274099705
1421.7381481105713 3988.96194404377
1422.539516032788 3830.3239651469303
1423.3406884980232 3643.7496161677072
1424.1416655595604 3558.1758164672997
1424.942447270665 3801.156301537638
1425.7430336845828 3873.986068969002
1426.5434248545298 3639.808783645041
1427.3436208337116 3862.2628605011014
1428.143621675301 3740.4448471477726
1428.9434274324558 4054.1091080027254
1429.7430381583108 3561.5643844827805
1430.5424539059713 3675.3390778590283
1431.3416747285337 4119.239056178251
1432.1407006790632 3866.613903409827
1432.9395318106053 3688.9009227249626
1433.7381681761835 3607.7284007501257
1434.5366098288014 3922.998152240763
1435.3348568214424 3856.9291444143078
1436.1329092070573 3610.795198602288
1436.9307670385879 3816.8889508412567
1437.7284303689503 3851.128139506437
1438.5258992510335 3992.650247005059
1439.3231737377118 3718.5034378889286
1440.1202538818306 3673.497837621306
1440.9171397362225 3711.6026108883757
1441.7138313536925 3712.897279938522
1442.5103287870243 3570.6017628964955
1443.3066320889775 3516.45693054865
1444.1027413122956 3905.5488104476594
1444.8986565096966 3648.9786523707676
1445.694377733882 3605.293081338539
1446.4899050375207 3503.4411057986954
1447.2852384732687 3690.9491352191444
1448.0803780937622 3725.852825081347
1448.8753239516063 3485.328685494852
1449.6700760993954 3389.796028444639
1450.464634589689 3561.122929624151
1451.2589994750397 3918.7193337012823
1452.0531708079689 3433.2897054805844
1452.8471486409799 3426.5618662039583
1453.6409330265524 3812.404598857805
1454.4345240171442 3542.3829691229257
1455.2279216651987 3451.7858912850556
1456.0211260231263 3516.1466142795434
1456.8141371433194 3622.3311323313055
1457.6069550781594 3703.2178520087
1458.3995798799897 3281.512721179407
1459.1920116011424 3425.0177401832398
1459.98425029393 3361.9840815561793
1460.7762960106338 3325.550370775299
1461.5681488035225 3454.7699255689795
1462.3598087248392 3484.5639178696524
1463.1512758268036 3710.6137377581354
1463.942550161617 3309.213438002361
1464.7336317814625 3392.4901990195976
1465.524520738496 3416.3514404837492
1466.3152170848552 3330.458374729089
1467.1057208726506 3493.38390823415
1467.8960321539817 3338.937901418771
1468.6861509809169 3293.5960617824444
1469.4760774055085 3392.6513474991198
1470.265811479785 3412.551953445123
1471.055353255755 3226.6153429463548
1471.844702785409 3188.754121506077
1472.6338601207044 3243.5315018645097
1473.4228253135934 3468.047994800967
1474.2115984159936 3201.554851261869
1475.0001794798063 3056.591489948044
1475.7885685569145 3363.72601247892
1476.576765699172 3262.58651824648
1477.3647709584238 3219.647673174827
1478.1525843864802 3454.677752453411
1478.9402060351367 3373.3126559489924
1479.7276359561693 3482.780026541756
1480.514874201328 3202.0288402235474
1481.3019208223468 3099.751599331414
1482.0887758709323 3029.195552421226
1482.8754393987747 3536.067804528887
1483.6619114575406 3164.030830508663
1484.4481920988783 3189.920870990263
1485.2342813744108 3350.922315210328
1486.0201793357446 3554.2661799058355
1486.8058860344572 3195.440167389517
1487.591401522117 3232.4638142860376
1488.3767258502594 3199.5676418845223
1489.1618590704056 3350.7762409303236
1489.9468012340494 3005.3664123266367
1490.7315523926754 3386.2027758552454
1491.5161125977356 3327.124813100596
1492.3004819006637 3361.392013075688
1493.084660352877 3096.5153771695414
1493.8686480057622 3323.726684000012
1494.6524449106964 3601.8710427280407
1495.4360511190262 3524.5634519867735
1496.219466682087 3362.3609783186776
1497.0026916511779 3263.3060284495673
1497.7857260775945 3376.397718426763
1498.5685700125996 3437.561486317164
1499.3512235074395 3134.852821803202
1500.133686613337 3139.6813899212643
1500.9159593814966 3290.2113274334706
1501.698041863101 3717.486887379035
1502.4799341093094 3086.3007881085146
1503.2616361712662 3065.1393488824283
1504.043148100087 3280.9502798318485
1504.8244699468742 3401.0647338950666
1505.6056017626997 3055.5837084030345
1506.3865435986281 3130.2943440608387
1507.1672955056893 3376.0274123496247
1507.9478575348967 3169.9992623020526
1508.7282297372512 3393.386739659762
1509.5084121637192 3255.2245559791104
1510.2884048652577 3296.513487614359
1511.0682078927948 3235.09818415597
1511.8478212972423 3150.1776686191356
1512.6272451294917 3205.629013348735
1513.4064794404076 3302.719361120183
1514.1855242808433 3346.754325349763
1514.9643797016215 3199.1310501615835
1515.743045753552 3357.282448556251
1516.5215224874191 3443.828641092805
1517.2998099539836 3044.22670045643
1518.077908203999 3262.0383737159855
1518.8558172881785 3206.7129655132458
1519.633537257234 3294.8550067454503
1520.4110681618404 3301.531484739273
1521.1884100526604 3252.77737127576
1521.9655629803365 3228.4585393924344
1522.7425269954856 3387.6180395978145
1523.5193021487103 3586.166973155974
1524.2958884905856 3120.8302253801003
1525.0722860716687 3263.552690466893
1525.848494942502 3195.9782211535694
1526.624515153595 3313.675917217149
1527.4003467554485 3199.252109907554
1528.175989798534 3442.4930595494434
1528.9514443333064 3325.4872807167135
1529.726710410203 3477.3374098400063
1530.5017880796331 3116.7671179231893
1531.276677391992 3218.03475728587
1532.0513783976457 3562.422253978462
1532.825891146953 3316.4284282687418
1533.6002156902414 3387.528177105335
1534.3743520778207 3289.353633176189
1535.1483003599806 3285.0661284138996
1535.9220605869923 3379.849763097186
1536.6956328091019 3381.4163780785384
1537.4690170765407 3261.756694623148
1538.242213439511 3403.758764769983
1539.015221948208 3315.3095179178536
1539.78804265279 3217.4821724910134
1540.560675603405 3182.263840832068
1541.3331208501804 3544.3655095523573
1542.1053784432224 3540.171767285761
1542.8774484326168 3400.601089357806
1543.649330868422 3397.221568374469
1544.4210258006842 3456.79340416166
1545.1925332794308 3260.6180511144817
1545.9638533546604 3358.5547918997277
1546.7349860763552 3340.6120110291376
1547.5059314944829 3652.625496737025
1548.27668965898 3383.614019728839
1549.0472606197673 3433.2641679052867
1549.817644426752 3262.1588381128036
1550.5878411298072 3530.966008998928
1551.3578507787988 3472.6639780492997
1552.1276734235635 3346.886384039227
1552.8973091139233 3383.3606689154176
1553.6667578996767 3489.8853044495327
1554.436019830604 3321.4808200201646
1555.20509495646 3342.7967343629157
1555.9739833269869 3290.676132430929
1556.7426849919011 3350.2355357461684
1557.511200000903 3666.6564314850884
1558.2795284036674 3470.153129169087
1559.0476702498509 3420.3182389213544
1559.8156255890954 3612.6999078592758
1560.5833944710157 3703.2646288482183
1561.3509769452048 3423.2826119920765
1562.1183730612447 3470.5291535486003
1562.8855828686865 3434.1857234219933
1563.6526064170703 3788.417325273969
1564.4194437559127 3653.365008251104
1565.1860949347047 3304.357480759284
1565.9525600029283 3774.8954008175083
1566.7188390100328 3825.533155866737
1567.4849320054564 3299.3090938818336
1568.250839038612 3460.6781890910606
1569.0165601588997 3454.733334295352
1569.7820954156887 3578.8517380628155
1570.5474448583373 3428.690295610013
1571.31260853618 3338.606742230824
1572.0775864985299 3233.5649391355555
1572.8423787946813 3624.729363011325
1573.6069854739108 3259.6947109350654
1574.371406585471 3476.5467954586156
1575.1356421785986 3620.556795341958
1575.899692302506 3310.4168149558873
1576.6635570063845 3541.9892045400875
1577.4272363394157 3305.5399177849913
1578.190730350747 3369.585292810222
1578.9540390895163 3520.866027137664
1579.7171626048384 3124.9324713167953
1580.480100945806 3256.375492998655
1581.2428541614918 3364.9428925415077
1582.0054223009538 3498.0715527702023
1582.767805413223 3373.7275217472315
1583.5300035473156 3342.902435508631
1584.292016752228 3655.6841724677042
1585.0538450769309 3610.1306686425146
1585.8154885703807 3311.1058212571106
1586.5769472815136 3247.5409638202595
1587.3382212592405 3427.776585724406
1588.099310552463 3574.2053228585987
1588.8602152100484 3409.161925308895
1589.6209352808564 3586.0594867282584
1590.3814708137234 3496.431692774354
1591.14182185746 3395.4987590825986
1591.9019884608679 3374.025797385812
1592.6619706727215 3102.9603460042217
1593.4217685417734 3443.5631703589183
1594.1813821167616 3687.6466774120286
1594.9408114464022 3243.9961066503524
1595.7000565793933 3312.640495510771
1596.459117564409 3421.0025502060876
1597.2179944501113 3360.35499005651
1597.9766872851324 3301.7202935290197
1598.735196118092 3332.4828423778263
1599.4935209975883 3478.7026677445438
1600.2516619721973 3537.19862403941
1601.0096190904787 3226.4645519219416
1601.7673924009723 3269.8040289980217
1602.524981952196 3273.995916775738
1603.2823877926476 3333.9545192495416
1604.0396099708087 3288.004129497074
1604.7966485351371 3141.8852582646864
1605.5535035340745 3282.685054899344
1606.3101750160404 3495.5736240451033
1607.0666630294363 3117.3273434270986
1607.822967622642 3188.632295898496
1608.5790888440224 3389.546297006344
1609.3350267419137 3512.9795109005872
1610.0907813646445 3263.1259386193096
1610.8463527605145 3332.0144688303762
1611.601740977805 3357.9582174166076
1612.356946064785 3396.533700249097
1613.1119680696902 3123.011696154713
1613.8668070407512 3187.012181447014
1614.6214630261748 3170.0126645294667
1615.375936074137 3435.270948735696
1616.1302262328118 3253.329871394533
1616.8843335503425 3367.0332208559703
1617.638258074854 3218.9715560852187
1618.391999854457 3241.245571352242
1619.1455589372363 3452.2274260607983
1619.8989353712623 3285.3898073789533
1620.65212920458 2993.7853319203487
1621.4051404852235 3117.739413069577
1622.1579692611976 3275.931871011925
1622.9106155804966 3071.2588101914
1623.663079491087 3094.9977456373726
1624.4153610409248 3388.108944590435
1625.1674602779385 3072.2870333277156
1625.9193772500403 3180.154573697644
1626.6711120051277 3498.3400791183267
1627.4226645910676 3239.7555160009497
1628.174035055721 3069.828156670722
1628.9252234469168 3325.123806110353
1629.676229812474 3147.7804118382733
1630.4270542001905 3632.572984423308
1631.1776966578382 3276.0623231547224
1631.9281572331747 3112.2912723471995
1632.678435973945 3323.8050562156886
1633.4285329278573 3349.3498546888572
1634.1784481426203 3055.689297302299
1634.9281816659113 3169.054711004369
1635.677733545388 3419.624642326083
1636.4271038286934 3176.5043039348348
1637.176292563452 3204.887336577296
1637.9252997972635 3247.136953366926
1638.674125577716 3386.112577547756
1639.4227699523672 3722.096637133035
1640.171232968767 3047.9463262727745
1640.9195146744423 3303.5493699787316
1641.6676151168977 3568.548572654334
1642.4155343436178 3545.1384860860758
1643.1632724020765 3313.5792775429545
1643.9108293397167 3387.0081083776554
1644.658205203974 3265.853447642308
1645.4054000422566 3867.3739303408584
1646.1524139019566 3306.3341671465323
1646.8992468304423 3295.916100461234
1647.6458988750728 3365.5023480440373
1648.3923700831765 3301.253852118554
1649.1386605020743 3270.9890081283675
1649.8847701790564 3545.081699712886
1650.6306991614038 3471.932192148739
1651.3764474963682 3564.4227657450074
1652.1220152311944 3157.217103775845
1652.867402413096 3437.279270454618
1653.6126090892776 3426.5373221600958
1654.3576353069184 3745.794916702547
1655.1024811131829 3471.3145193194373
1655.8471465552066 3410.074332423531
1656.5916316801213 3688.85914781056
1657.3359365350298 3550.7006091868266
1658.0800611670165 3362.903789006514
1658.824005623148 3422.3905747789154
1659.5677699504722 3349.1867640527903
1660.3113541960192 3438.535189473229
1661.054758406799 3399.673084597088
1661.7979826297997 3233.3977458252057
1662.5410269119966 3177.7743040768773
1663.283891300338 3720.8631644784555
1664.0265758417645 3213.0795484777464
1664.7690805831826 3370.7337489133415
1665.5114055714948 3415.3915915347607
1666.2535508535748 3681.4598414089223
1666.9955164762814 3113.1382883818337
1667.7373024864555 3273.230139749876
1668.478908930916 3427.6387334608744
1669.220335856462 3263.160015657741
1669.9615833098778 3256.0568503493423
1670.7026513379296 3195.5360888641744
1671.44353998736 3348.424911347395
1672.1842493048916 3249.593203998145
1672.9247793372379 3206.4206602976737
1673.6651301310812 3385.2627516133425
1674.4053017330934 3120.0165500897474
1675.1452941899242 3419.671247982586
1675.885107548207 2843.1270636516692
1676.6247418545518 2931.9922410861764
1677.3641971555535 3017.357594580546
1678.1034734977893 3274.1521126531707
1678.8425709278108 3150.6100184511615
1679.5814894921605 3294.665915172505
1680.320229237359 3252.4760798107955
1681.0587902098978 3217.2546168438394
1681.7971724562685 3060.191226803868
1682.5353760229264 2905.020317621808
1683.2734009563173 3184.379778251549
1684.0112473028657 2935.2994224161857
1684.7489151089794 3127.0234953360964
1685.4864044210462 3111.768678705511
1686.2237152854377 2730.870970811448
1686.960847748498 3216.202181420862
1687.6978018565642 2760.5450606698532
1688.434577655944 2747.72845532476
1689.1711751929379 2881.4967722690803
1689.9075945138156 2908.1158679895975
1690.6438356648396 2783.6316515803323
1691.3798986922448 2495.938249733591
1692.1157836422499 2779.75940394268
1692.851490561059 2706.1770610931303
1693.587019494853 2754.010589011914
1694.3223704897991 2633.201142434286
1695.0575435920364 2394.565220369354
1695.792538847696 2913.5281831937737
1696.527356302886 2659.9677868393887
1697.2619960036936 2319.1513792994906
1697.9964579961907 2473.119664302086
1698.730742326432 2219.0306317963214
1699.4648490404488 2392.2406958924234
1700.1987781842563 2493.1756093120684
1700.9325298038548 2735.7235385208796
1701.6661039452174 2831.2135782545292
1702.3995006543082 2576.171042194779
1703.1327199770658 2719.604436965934
1703.865761959416 2164.5876729269976
1704.598626647261 2840.569152537136
1705.3313140864866 2315.964409394176
1706.0638243229587 2468.222836910539
1706.7961574025303 2600.1479194989197
1707.528313371029 2536.738880914877
1708.260292274268 2320.2538461783943
1708.9920941580403 2461.7188741638347
1709.7237190681226 2546.2636638678578
1710.4551670502697 2480.516713785053
1711.18643815022 2164.2903067894877
1711.9175324136959 2280.339236569386
1712.6484498863938 2396.571463869477
1713.379190614005 2223.777898795903
1714.109754642188 2445.8179164601434
1714.8401420165883 2340.7680344675277
1715.570352782839 2656.5419055335633
1716.3003869865497 2509.3428412501407
1717.0302446733076 2250.1897143978517
1717.7599258886876 2396.1170137033814
1718.4894306782444 2734.031609326855
1719.2187590875183 2197.163796557293
1719.9479111620203 2543.628790068353
1720.6768869472544 2246.5361823265907
1721.4056864887025 2631.831811634879
1722.1343098318284 2673.0789723770554
1722.8627570220742 2308.6213087158117
1723.591028104871 2297.8456432998337
1724.3191231256242 2226.872662389941
1725.0470421297232 2303.786187916183
1725.7747851625427 2391.9340523052942
1726.5023522694337 2415.253106637881
1727.2297434957363 2454.999678031577
1727.9569588867635 2224.842309172218
1728.6839984878152 2511.746390371973
1729.4108623441734 2108.704179207978
1730.1375505011038 2442.2422227779707
1730.8640630038426 2143.416794424263
1731.5903998976264 2185.461657068321
1732.316561227657 2341.426952330103
1733.0425470391274 2120.5239003808224
1733.7683573772065 2337.0501135299346
1734.4939922870508 2349.7477459510983
1735.2194518137949 2373.815558813255
1735.9447360025606 2298.054745913934
1736.669844898439 2238.728596121187
1737.3947785465189 2065.4174874182627
1738.1195369918605 2089.3999224788736
1738.8441202795093 2253.8862320287344
1739.5685284544943 2403.916147885312
1740.292761561821 2341.9928107702267
1741.0168196464838 2419.2642386893267
1741.7407027534518 2310.3634699066706
1742.464410927687 2344.733013542767
1743.187944214118 2188.1611367374253
1743.9113026576688 2187.361840880314
1744.634486303241 2239.7216296911865
1745.3574951957125 2333.8473170503644
1746.0803293799509 2503.718312053513
1746.8029889008048 2298.0701454950895
1747.5254738031017 2358.9400225899158
1748.2477841316504 2124.3128572462197
1748.969919931249 2270.949521973997
1749.6918812466665 2250.7944134937197
1750.4136681226646 2489.218418729001
1751.1352806039777 2223.5864468677055
1751.856718735331 1911.6925570893613
1752.5779825614281 2021.7441379762138
1753.2990721269507 2373.947272975873
1754.0199874765676 2378.2083162796375
1754.7407286549314 2083.159380544005
1755.4612957066693 2124.398683384472
1756.1816886763954 2152.2557809867412
1756.9019076087097 2354.226553681595
1757.6219525481865 2277.7713477439106
1758.3418235393856 2298.7832759348057
1759.061520626854 2303.948375917724
1759.7810438551096 2469.5876600215156
1760.5003932686614 2072.4866554142054
1761.2195689119999 2402.021380608544
1761.938570829594 2281.5804031017324
1762.657399065898 2327.580398711515
1763.376053665348 2016.374288369741
1764.0945346723602 2029.5725404742102
1764.812842131334 2042.9444001979723
1765.5309760866512 2056.4773966361195
1766.2489365826787 2152.114302114396
1766.9667236637597 2148.641601255924
1767.684337374223 1864.9470877208835
1768.401777758383 2124.5606904024
1769.1190448605284 2005.7839374175667
1769.836138724937 2055.538703698501
1770.5530593958665 2199.0315568302044
1771.2698069175603 2483.3808397145704
1771.9863813342326 2232.604029859267
1772.702782690094 2006.6317715752423
1773.4190110293293 2281.050833961976
1774.1350663961111 2385.9925805449516
1774.8509488345844 2020.9506989812635
1775.5666583888924 2216.513819355958
1776.2821951031437 2413.047873679693
1776.9975590214362 2138.036411625658
1777.7127501878585 2261.150418275468
1778.4277686464684 2386.1233883697023
1779.1426144413108 2448.1185250854624
1779.8572876164162 2353.967593609431
1780.571788215797 1938.674700901775
1781.2861162834415 2120.554464584912
1782.0002718633277 2095.31637355225
1782.7142549994132 2325.2609217320255
1783.4280657356376 2221.100078332649
1784.141704115922 2064.9823797296235
1784.855170184177 2179.715183920022
1785.5684639842839 2220.962370642979
1786.2815855601148 1908.040560569374
1786.9945349555237 2260.5550010441098
1787.707312214343 2025.0022488230031
1788.4199173803918 2035.9773337674912
1789.132350497468 2047.1483905215507
1789.8446116093583 2056.4946700548303
1790.556700759822 2057.0682766248433
1791.2686179926077 2024.3654190684706
1791.9803633514493 2133.367364587406
1792.6919368800554 1973.4664265299798
1793.4033386221236 2359.3555254050802
1794.1145686213295 2259.7329346506813
1794.8256269213307 2484.6688005266783
1795.536513565774 2214.5406472553327
1796.247228598284 1870.8688497251683
1796.9577720624693 2022.1856556626215
1797.6681440019165 2168.857203254308
1798.3783444602013 2086.311430205321
1799.0883734808776 2222.4828106248797
1799.7982311074884 2211.3009764384196
1800.5079173835475 2168.629599715466
1801.2174323525633 2282.551545214576
1801.9267760580187 2090.9496065300254
1802.635948543386 2200.618814952052
1803.3449498521113 1894.4084572491108
1804.0537800276325 2290.276208186116
1804.7624391133668 2153.419489260802
1805.47092715271 1838.2923060722237
1806.1792441890484 2021.8747062280286
1806.8873902657433 2252.2119278037426
1807.5953654261448 2121.8018490475406
1808.3031697135812 2012.0057346069366
1809.0108031713662 1983.518975662977
1809.71826584279 2055.612218039602
1810.425557771141 2004.5189622210437
1811.1326789996747 2024.890145121261
1811.839629571632 2045.1739676825612
1812.5464095302468 2043.6891309016842
1813.2530189187182 2108.018619603217
1813.959457780249 2123.103579408092
1814.6657261580076 2209.9796816825974
1815.371824095153 2068.9069564675146
1816.0777516348262 1874.6929461276382
1816.78350882015 1680.3559935496858
1817.4890956942272 1772.383018014464
1818.1945123001533 2044.5014837107217
1818.8997586809928 2054.0161432206655
1819.6048348798067 1987.3023567012501
1820.3097409396287 2060.4764517850094
1821.0144769034796 2451.536223330203
1821.7190428143622 2314.196559862242
1822.423438715261 2264.748703098436
1823.1276646491478 1958.1737537404101
1823.8317206589727 2100.7019942232564
1824.5356067876692 2093.6725231656646
1825.2393230781581 2023.5587463634524
1825.942869573335 1853.3572208758349
1826.646246316086 1897.474946921151
1827.3494533492758 2097.2008796756577
1828.052490715756 2127.1450501209783
1828.7553584583547 2073.8605082843173
1829.458056619891 2146.006416252537
1830.1605852431585 2063.36902833297
1830.8629443709433 1912.5436864507392
1831.5651340460063 1972.3322376368792
1832.2671543110919 2008.6813258886662
1832.9690052089318 2218.0905986992175
1833.6706867822395 1783.1395035635403
1834.3721990737104 2216.8130875151755
1835.0735421260233 2179.7997010394092
1835.774715981841 2042.4075248844977
1836.4757206838058 2388.038907014728
1837.1765562745459 2053.115125129414
1837.8772227966747 1871.5315179440036
1838.5777202927839 1953.819717391735
1839.2780488054523 2031.8205750722634
1839.9782083772352 1914.4995673013614
1840.6781990506806 1907.757685285294
1841.378020868313 1900.7647719561508
1842.0776738726418 2116.096010390899
1842.777158106157 1899.7492781187284
1843.4764736113375 1953.4207024106988
1844.1756204306403 2246.9330180688494
1844.8745986065078 2133.6756758974875
1845.5734081813607 1795.1591978297288
1846.2720491976124 2006.715864360678
1846.970521697649 1913.8316424447144
1847.6688257238511 2107.76919972213
1848.3669613185684 1946.1487846247073
1849.0649285241452 1803.7695884891396
1849.7627273829057 2231.773670086925
1850.460357937156 2069.069633994127
1851.1578202291857 1751.86238426922
1851.8551143012664 1934.6863752852194
1852.5522401956569 2003.327221554
1853.2491979545957 2270.423406400712
1853.9459876203055 1855.0666618924504
1854.6426092349902 1790.411198853059
1855.3390628408451 1967.3340845482976
1856.0353484800362 2338.787478256711
1856.7314661947203 2195.4816359754977
1857.4274160270397 1784.1687197358629
1858.123198019115 1974.0959562454962
1858.8188122130487 1796.51740897392
1859.5142586509319 1931.310121619677
1860.209537374838 1912.0124084033669
1860.9046484268183 1931.6979751580752
1861.599591848917 2259.5659676550467
1862.294367683151 1933.730364100197
1862.988975971528 1918.6184660561023
1863.6834167560355 2131.4028631820815
1864.3776900786452 2213.8799436752884
1865.0717959813119 1926.1961058513104
1865.7657345059724 1867.4259172406662
1866.4595056945564 2067.752456934343
1867.1531095889586 2209.951685499179
1867.846546231076 1881.418864976089
1868.5398156627743 2183.019919223407
1869.2329179259123 1994.0620400322696
1869.9258530623283 2221.8283938774402
1870.618621113843 1776.4805224717893
1871.3112221222636 1745.4503616119287
1872.0036561293764 1973.4120646575634
1872.695923176956 2032.0401914800568
1873.3880233067594 2110.0879850477227
1874.0799565605212 1761.3266841885793
1874.7717229799673 1896.5869400182062
1875.4633226068036 2286.0092255481404
1876.1547554827175 2142.268068461831
1876.8460216493859 1981.526047490256
1877.5371211484617 1903.5989555657125
1878.2280540215852 2140.4179579409583
1878.9188203103804 1862.3865610367732
1879.6094200564548 2024.1950450474237
1880.299853301396 1837.7957971677831
1880.9901200867826 2159.4907849792353
1881.6802204541673 2076.750899741179
1882.3701544450942 2149.3561636243003
1883.059922101087 1830.7793558267556
1883.7495234636517 2260.962198312823
1884.4389585742792 1933.044025291922
1885.1282274744517 1759.696923581981
1885.8173302056166 1910.2173032536273
1886.506266809225 2060.941511921307
1887.195037326701 1699.8507980792297
1887.8836417994517 1843.0975879483153
1888.5720802688702 2279.8572923226266
1889.260352776333 2146.4471078769634
1889.9484593632042 2133.77287842513
1890.63640007082 1930.2410662683258
1891.3241749405151 1856.4678742503165
1892.0117840135954 2140.7587817573385
1892.6992273313572 1936.8135002339382
1893.3865049350788 2098.0127786665566
1894.0736168660223 2259.4329572862875
1894.7605631654333 2097.2780775828937
1895.4473438745408 2189.8225024445896
1896.133959034556 2282.3817595599617
1896.820408686679 1967.9782588192643
1897.506692872088 2291.485870557632
1898.192811631945 1901.6150630300745
1898.8787650073991 1909.0561547315017
1899.5645530395832 2122.7997170608837
1900.2501757696118 2144.1407118914913
1900.9356332385796 2237.221193108111
1901.620925487574 2330.6227926704364
1902.3060525576602 2062.329560270892
1902.9910144898859 1993.492706642293
1903.6758113252872 1894.6325339006853
1904.3604431048789 1964.0232394354734
1905.0449098696663 2105.5952524508166
1905.7292116606295 1920.0224074384817
1906.4133485187394 2064.603700167754
1907.0973204849488 1666.4411543746762
1907.7811276001976 1877.795026070789
1908.4647699053967 1924.6299707232024
1909.1482474414588 1929.7567758891594
1909.8315602492694 1934.7997231097875
1910.5147083696957 2226.8393221031365
1911.1976918436012 1957.4593303173965
1911.880510711815 1782.3235768980971
1912.5631650151681 2146.487130960624
1913.2456547944657 1912.1145423349499
1913.927980090495 1975.2538513065551
1914.6101409440362 1876.0609096322885
1915.2921373958416 2144.306984475633
1915.9739694866603 1936.0898370856278
1916.655637257214 2216.8650235149425
1917.3371407482136 2019.543756517395
1918.0184800003572 2227.6253814012243
1918.6996550543154 2105.0299299637154
1919.3806659507554 2018.347513081479
1920.0615127303208 1986.2083303152735
1920.7421954336423 2143.3908128849616
1921.4227141013343 2118.5383302464484
1922.103068773993 2032.2618680924072
1922.783259492202 2273.3589776171293
1923.4632862965227 2006.608962481123
1924.1431492275078 1871.887005886822
1924.8228483256917 1726.8351063860814
1925.5023836315922 1989.2336274927209
1926.1817551857057 2123.2997734338774
1926.8609630285227 2257.6631195720297
1927.5400072005123 2052.968248056918
1928.218887742125 1828.3710203605544
1928.8976046938005 1737.4118057442727
1929.5761580959588 2194.909386932522
1930.2545479890086 2051.840234810004
1930.9327744133352 1645.4145254222408
1931.6108374093164 1986.077440721602
1932.2887370173066 1764.7074161887253
1932.9664732776473 2158.1412703487435
1933.6440462306673 1913.6787168765545
1934.3214559166754 1902.5311183527854
1934.9987023759659 2140.1444204021686
1935.675785648813 2108.274845832272
1936.3527057754836 1647.7701799287552
1937.029462796223 1706.4533241608412
1937.70605675126 1765.3017309473987
1938.3824876808085 1878.543207624754
1939.058755625072 1874.9462842482276
1939.7348606242267 1878.998215676557
1940.4108027184448 1879.2554290967
1941.0865819478713 2088.783041754348
1941.7621983526478 1841.4882509983756
1942.4376519728921 1792.8245262183275
1943.1129428487038 1944.418290836215
1943.7880710201734 2052.149858254404
1944.4630365273733 2091.830833996781
1945.1378394103576 1740.018245204135
1945.8124797091714 1708.0725972710206
1946.4869574638324 1676.0037894881375
1947.161272714353 1790.4666081947428
1947.8354255007234 2028.701432514185
1948.5094158629272 1850.7654513643852
1949.1832438409183 2007.20968263766
1949.8569094746435 2138.7544411464155
1950.530412804037 2196.8755844372836
1951.2037538690092 2114.44607493785
1951.8769327094578 1782.336642271142
1952.5499493652678 1861.591638979879
1953.222803876306 2214.1612762852733
1953.895496282421 2029.0053275720402
1954.5680266234522 2035.3257394100915
1955.2403949392155 2018.1775699715822
1955.9126012695142 1686.9375278020048
1956.5846456541403 1944.64218912672
1957.2565281328643 1845.3288167257804
1957.9282487454457 2214.9458040999693
1958.5998075316202 2191.1207309866195
1959.27120453112 1816.0541125106206
1959.9424397836501 1992.7973123139207
1960.613513328908 2155.1490442883087
1961.2844252065697 2201.0183386352464
1961.9551754563017 1755.0852369656877
1962.6257641177453 1846.7490557126155
1963.29619123054 1684.825737580537
1963.966456834296 1887.5452960445964
1964.6365609686181 1673.1158868428588
1965.306503673086 1733.1418862659873
1965.976284987275 1793.1880569284444
1966.645904950734 1942.9572628142705
1967.315363603002 1609.5185740541936
1967.9846609836077 1969.3694676423268
1968.6537971320486 1830.9315430160652
1969.3227720878222 1960.893968429225
1969.9915858904042 1899.284642049736
1970.660238579252 2003.6667961431497
1971.3287301938108 1884.858186120154
1971.997060773514 1767.1135645523198
1972.665230357772 1752.3663194882454
1973.3332389859843 1794.245696214038
1974.0010866975335 1678.7684299928744
1974.6687735317864 1974.8350131592495
1975.3362995280932 2068.8832501086804
1976.003664725793 2068.6057376338
1976.6708691642052 1638.6123008883847
1977.3379128826364 1841.7187775660746
1978.004795920373 2095.745004496951
1978.6715183166925 1843.901357472915
1979.3380801108524 2111.097071437404
1980.0044813420973 1925.8467645838361
1980.6707220496555 1556.833173475574
1981.3368022727373 1842.6264963386704
1982.0027220505417 1902.1072850536857
1982.66848142225 1564.6427394265916
1983.3340804270283 1601.1947316615442
1983.999519104027 1923.579522840743
1984.6647974923835 1920.5111637899292
1985.329915631215 2044.9841553655156
1985.99487355963 1823.7646678763963
1986.6596713167146 2173.672238315388
1987.3243089415428 1718.2975722976637
1987.9887864731754 2146.226726089123
1988.6531039506553 1713.1664758277943
1989.3172614130071 2210.47614113811
1989.9812588992481 1682.7696562817582
1990.645096448372 1613.4506488760894
1991.3087740993633 1918.6830837161003
1991.9722918911848 1826.1949899535837
1992.635649862792 1861.3763893012303
1993.2988480531185 2045.9271884541631
1993.9618865010852 1922.4233064998166
1994.6247652455968 1798.7547898824967
1995.287484325545 1780.3389195031868
1995.9500437798033 1767.067827812073
1996.6124436472292 1845.7205859537767
1997.2746839666706 1833.6296992630366
1997.936764776954 1821.5263670515021
1998.598686116895 1812.445982923274
1999.2604480252903 2208.5076943819154
1999.9220505409212 1956.331499778173
2000.5834937025593 1773.3961894803688
2001.2447775489582 1866.8038319698371
2001.9059021188514 1919.0402333019392
2002.5668674509616 1669.1104284774035
2003.2276735839987 1811.7587273706547
2003.8883205566508 2127.975670145953
2004.5488084075987 1795.6752349488002
2005.2091371755014 1841.3675689579745
2005.8693068990033 1718.544501308111
2006.5293176167397 2036.8099675571095
2007.1891693673224 1701.779331150618
2007.848862189354 1689.9732903336521
2008.5083961214223 1766.572798576141
2009.1677712020955 1688.537023425389
2009.8269874699254 1659.3595908315626
2010.4860449634598 1642.1979767817097
2011.1449437212177 1625.0881838811429
2011.8036837817108 2065.3249659767152
2012.4622651834325 1980.3882560820996
2013.1206879648653 1964.47353942866
2013.7789521644736 1731.747258485313
2014.4370578207036 2027.2501208335234
2015.0950049719922 1856.5589196151814
2015.7527936567585 2178.913326387685
2016.4104239134067 1874.7302837408213
2017.067895780323 2314.2711023719476
2017.725209295886 2251.8434283377333
2018.3823644984514 2189.187090614986
2019.0393614263648 1890.5167231245237
2019.6962001179545 1812.238746907394
2020.3528806115355 2078.8154234804306
2021.0094029454067 1874.7411212484099
2021.6657671578487 1728.8778831025888
2022.321973287133 1924.893330601871
2022.9780213715148 1790.6133810159376
2023.6339114492293 1888.7985598049988
2024.2896435585026 1889.635695506628
2024.9452177375442 1729.1576854276943
2025.600634024544 2120.111963713803
2026.2558924576842 2043.8281352422237
2026.9109930751292 1991.1049101815902
2027.565935915025 1788.6767091086156
2028.2207210155066 2167.2661111842926
2028.8753484146964 2245.946280844931
2029.529818150695 2164.177667233523
2030.1841302615903 2082.0042635257005
2030.8382847854573 1750.8901852872943
2031.4922817603601 1952.4363231173797
2032.1461212243357 1809.2780914548744
2032.7998032154192 1624.965926384415
2033.4533277716218 1758.3786984629483
2034.1066949309443 1653.4352335174167
2034.7599047313688 1644.9275157100278
2035.4129572108704 1949.9487523271848
2036.0658524074006 1798.3344590635418
2036.7185903589016 1892.2930252759238
2037.3711711032956 1953.3944022534447
2038.023594678496 1882.2637316251094
2038.675861122394 1684.096189341083
2039.3279704728757 1669.341425832065
2039.9799227678031 1654.7066260060885
2040.6317180450278 1868.6088914478664
2041.2833563423865 1776.6206099870444
2041.9348376977014 1893.41606073286
2042.5861621487784 2010.426524775281
2043.2373297334088 1923.6106450912405
2043.8883404893695 1857.631054636809
2044.5391944544208 2028.1133234181082
2045.1898916663158 2164.0557964126956
2045.8404321627804 2187.025038317696
2046.4908159815368 1843.7420720861694
2047.1410431602853 1635.4035892207198
2047.7911137367173 1750.6373624574942
2048.441027748504 1706.0995401199993
2049.090785233302 1661.454992159568
2049.7403862287592 1772.1970590193184
2050.389830772503 1668.5705007608226
2051.0391189021466 1962.0503803110641
2051.688250655294 1831.016965088686
2052.337226069527 1576.7918760847665
2052.986045182417 1989.8121645464828
2053.634708031521 1950.7799666338276
2054.283214654375 1911.816940091559
2054.931565088511 1602.0682666019245
2055.579759371436 1652.0264690061654
2056.2277975406523 1920.123688160366
2056.8756796336384 2031.248813020446
2057.5234056878617 1516.4042802852748
2058.1709757407752 1722.0542716023222
2058.8183898298194 2174.5446735519595
2059.465647992416 2046.9956501650242
2060.1127502659747 2064.2751431236165
2060.759696687888 1688.2776199132827
2061.4064872955405 2061.32303664528
2062.053122126292 2019.6996018858022
2062.699601217497 1871.0463320969477
2063.345924606485 1722.440847931824
2063.992092330587 1785.4122622152013
2064.638104427102 1703.247329508939
2065.283960933324 2118.320839805232
2065.92966188653 1850.0311847308046
2066.5752073239855 1947.4051906105626
2067.2205972829397 1634.5085086654522
2067.86583180062 1841.0741017632754
2068.5109109142522 1755.4393650208062
2069.15583466104 1860.9785414143219
2069.8006030781708 1687.604370630676
2070.445216202821 1858.1471625294776
2071.089674072153 1978.6756433928203
2071.7339767233116 1996.6797506292132
2072.3781241934303 1883.510887744628
2073.0221165196253 1955.1922443487354
2073.6659537390024 1742.6405642493992
2074.3096358886505 1968.7222611697823
2074.953163005637 1786.9569354224118
2075.596535127028 1631.330296114126
2076.2397522898664 1713.657608232087
2076.882814531182 1844.2103018948765
2077.5257218879924 1769.7396055464917
2078.1684743973 1707.777392432718
2078.8110720960885 1957.3217812712714
2079.453515021336 1745.4605122251614
2080.095803209997 1931.4587112251934
2080.7379366990135 1780.7375015921891
2081.37991552532 2018.6083087337179
2082.0217397258275 1865.4015375424751
2082.6634093374414 1883.62981531176
2083.3049243970418 1901.9546675323647
2083.9462849415067 2061.0718939284297
2084.587491007689 2065.978998501101
2085.2285426324324 1710.8445903308937
2085.869439852564 1861.3340347255976
2086.510182704902 1725.3297134934905
2087.1507712262483 1878.4682642977564
2087.791205453381 1953.058542493858
2088.4314854230743 2027.7305622660406
2089.0716111720867 1886.6627961164813
2089.7115827371617 1499.1714036364997
2090.351400155023 1577.181133791514
2090.991063462385 1655.4097078626285
2091.6305726959527 1540.5642198481225
2092.2699278924047 1587.60439497064
2092.9091290884153 1634.8041615795207
2093.548176320641 1540.7840019817695
2094.187069625721 1857.0790650758063
2094.8258090402887 1528.945553052067
2095.464394600951 1831.8588287485964
2096.102826344313 1862.0410788305203
2096.741104306955 1986.2786093544896
2097.379228525453 1562.7746786784094
2098.017199036358 1489.1647094364514
2098.6550158762147 2044.7586506845105
2099.2926790815527 2019.8568922380678
2099.9301886888825 1807.059614438394
2100.5675447347076 1762.8698235516695
2101.2047472555114 1870.0872794394868
2101.841796287761 1879.1851487081185
2102.47869186792 1877.6345998970196
2103.1154340324265 1686.1014902659986
2103.752022817709 1834.1601717943236
2104.388458260184 1720.7339994936985
2105.024740396251 1765.534881879517
2105.660869262292 1632.7381796562784
2106.296844894685 2004.7819799970907
2106.93266732978 1776.3894459196913
2107.5683366039284 1717.4675301254726
2108.2038527534532 1832.2132325495554
2108.8392158146726 2069.667116171138
2109.4744258238843 1643.3766352080052
2110.1094828173755 1785.0178484996832
2110.744386831422 1823.4665818062088
2111.3791379022787 1862.0454003032787
2112.01373606619 1994.9435971625146
2112.648181359389 2037.4886810496332
2113.28247381809 1900.8976382973597
2113.916613478492 1990.60158354771
2114.550600376786 1820.6587097359431
2115.1844345491445 1877.4659617003472
2115.818116031729 1576.6011945879598
2116.451644860679 1740.2337623415674
2117.085021072133 1477.416529905096
2117.718244702204 1648.429524439276
2118.3513157869984 1742.7283443081985
2118.984234362604 1613.4115856660703
2119.617000465092 1675.888353391691
2120.249614130529 1952.687342007018
2120.8820753949585 1732.4472356512197
2121.5143842944162 1775.5697005779243
2122.14654086492 1718.2363205783738
2122.7785451424734 1911.6044983020147
2123.4103971630702 1884.1992406377133
2124.042096962681 1856.937547492697
2124.6736445772767 2022.1394730831641
2125.305040042802 1666.80471595934
2125.936283395191 1664.1269793213385
2126.567374670365 1960.9724746509673
2127.198313904233 1591.4877849865638
2127.8291011326855 1598.8298116893006
2128.4597363916037 1605.9972028303396
2129.0902197168507 1803.8399606946539
2129.720551144279 1967.6257740052667
2130.3507307097225 2131.5076781096855
2130.980758449008 2192.6805455671556
2131.6106343979427 2080.5248261334427
2132.2403585923203 1968.1351146460547
2132.8699310679276 2025.2793849924547
2133.499351860526 1972.5709341670859
2134.1286210058715 1749.9281936084924
2134.7577385397053 1904.5537838019795
2135.3867044977487 2059.433686954832
2136.0155189157176 2039.442229048597
2136.644181829308 2083.4176976413564
2137.2726932742025 1751.6574262513518
2137.901053286074 1688.478734830826
2138.5292619005777 1625.267917546694
2139.1573191533535 1715.8886994853121
2139.7852250800315 1928.6763234440918
2140.4129797162295 1964.434302517699
2141.0405830975433 1599.6971922098644
2141.6680352595613 1635.8946164701294
2142.2953362378576 1672.1800090181373
2142.9224860679915 1745.8207699746738
2143.549484785508 1748.7934642584646
2144.1763324259373 1672.0129897375082
2144.803029024799 1736.9449777052273
2145.429574617594 1606.6120168589441
2146.0559692398165 1869.4027275741294
2146.682212926942 1653.6006237577392
2147.308305714432 1676.3131537761135
2147.9342476377333 2109.7443328009313
2148.5600387322847 2306.947329953628
2149.185679033506 1944.1777223239055
2149.8111685768017 1726.3194269912196
2150.4365073975678 1528.7080311992324
2151.061695531187 1661.4829373824261
2151.686733013021 1995.2199341428313
2152.311619878423 1845.1008428743073
2152.9363561627342 1661.4121428038693
2153.560941901278 1472.157283689168
2154.1853771293663 1873.672612928783
2154.809661882293 1866.1861884138846
2155.433796195348 2103.7693283115595
2156.0577801037944 2032.9396999705853
2156.681613642895 1961.835080249127
2157.3052968478896 1656.464734535896
2157.928829754006 1933.7072558526738
2158.552212396462 1885.5676640790468
2159.1754448104566 1780.857440208507
2159.7985270311783 1597.612579586282
2160.4214590938027 1289.2329520228134
2161.0442410334927 1224.4183934099224
2161.6668728853874 1384.9630988620597
2162.289354684628 1545.8518864179334
2162.911686466332 1589.9611158206985
2163.533868265602 1937.150708655628
2164.1559001175337 2277.1024294401655
2164.7777820572046 1852.1973588960082
2165.399514119681 1767.9712161215716
2166.021096340013 1696.5859073608729
2166.6425287532384 2114.0088517390004
2167.263811394385 1536.7183017737366
2167.8849442984574 2103.468184654634
2168.505927500455 1495.426138425296
2169.126761035366 1927.9352918526097
2169.7474449381552 1583.979889297258
2170.367979243778 1494.4650155833656
2170.9883639871823 2046.954315699249
2171.608599203293 1646.8792380332548
2172.2286849270276 2227.3657936311565
2172.8486211932886 2322.445816666234
2173.4684080369625 1785.223548999779
2174.0880454929265 1377.1749042264225
2174.7075335960417 1448.8987892223317
2175.3268723811543 1528.07701615474
2175.9460618831 1607.4764833339434
2176.565102136701 1781.9207897156455
2177.1839931767627 1804.8388480075148
2177.802735038078 1827.8433968861427
2178.421327755432 1657.211547853134
2179.0397713635866 1552.7458070457037
2179.658065897298 1657.496307860898
2180.276211391305 1782.4720236704914
2180.8942078803357 1591.915847426701
2181.5120553991 1915.182077412587
2182.129753982299 1832.1679437904745
2182.7473036646206 1748.9769303850485
2183.3647044807367 1939.1325613160188
2183.9819564653044 1959.5961619166476
2184.599059652968 1980.177108317037
2185.216014078367 1928.66970209592
2185.832819776113 1331.4000799915239
2186.4494767808137 1432.3170930351448
2187.065985127063 1533.3356252371068
2187.682344849436 1628.3166275854899
2188.298555982501 1989.1117470473837
2188.9146185608097 1666.4009982070293
2189.530532618901 2014.0907073772603
2190.1462981912937 1832.2087597233287
2190.761915312507 1954.8315081531516
2191.377384017036 1697.8410591027755
2191.9927043393654 1651.719161929907
2192.6078763139667 1860.6946857087737
2193.2228999753006 1515.0021728241209
2193.837775357808 1664.8686364133123
2194.452502495922 1357.30506501651
2195.0670814240602 1772.3712955007063
2195.6815121766285 1375.1421611486562
2196.2957947880186 1375.1537939671307
2196.9099292926057 1375.170236535945
2197.523915724758 1863.4697703959682
2198.137754118825 1617.6167843341454
2198.7514445091456 2071.501809324961
2199.3649869300443 1508.099943349813
2199.9783814158327 1978.2479437320897
2200.5916280008096 2338.9327060325077
2201.2047267192593 1929.1206647248382
2201.8176776054515 1819.2277001953057
2202.430480693649 1529.9600856208156
2203.0431360180955 1982.3905392699417
2203.6556436130195 2088.0170342351716
2204.268003512645 1423.1082453217828
2204.8802157511727 1679.162577300566
2205.492280362796 1720.031975082274
2206.1041973816937 1761.0625783683693
2206.715966842032 1836.557633841848
2207.3275887779655 1832.1453551527277
2207.93906322363 1910.4897604580353
2208.550390213153 1995.7953995513903
2209.1615697806465 2079.5383611579905
2209.7726019602105 1591.975617935193
2210.3834867859277 1485.827577013019
2210.9942242918787 1598.2030975439457
2211.6048145121167 1788.2334375908115
2212.2152574806914 2690.6191396189893
2212.825553231638 1629.9784135673435
2213.435701798975 2543.1573600335314
2214.045703216707 1757.7341540792572
2214.655557518832 1348.267945439675
2215.2652647393297 1477.0649415698995
2215.874824912169 1589.2947917783508
2216.4842380713 1701.9585698539952
2217.09350425067 1543.311753781451
2217.7026234842033 1842.967073685694
2218.311595805819 2126.2407363759016
2218.9204212494133 1796.1091646830955
2219.52909984888 1936.8198083461816
2220.137631638092 1996.1257486286408
2220.7460166509154 2055.427923327471
2221.354254921198 1581.3572082463468
2221.9623464827764 1845.471299320825
2222.5702913694713 1794.0306678003167
2223.178089615096 1953.8637878247853
2223.7857412534486 1577.1761271701528
2224.39324631831 1486.4426327317017
2225.000604843457 1727.1262787981836
2225.607816862641 1920.53807736985
2226.214882409611 2027.5062312394389
2226.8218015180973 1969.739500665905
2227.4285742218217 1800.3791403615276
2228.0352005544864 1883.9363910150091
2228.6416805497847 1460.7399157163222
2229.248014241399 1629.550887861296
2229.8542016629945 1575.3331013711472
2230.460242848223 1854.6332352358029
2231.0661378307304 1701.1677509031338
2231.671886644139 1547.5686617264528
2232.277489322065 1531.103751287162
2232.8829458981127 1337.2794101148331
2233.48825640587 1800.7376379561272
2234.0934208789095 2298.290392749258
2234.6984393507955 2025.9848881649891
2235.3033118550793 1756.2745743318003
2235.9080384252975 1645.2380405492793
2236.5126190949723 1418.7695977945816
2237.1170538976166 1641.9741910272228
2237.721342866729 1625.7690045565835
2238.32548603579 1609.5397826474489
2238.9294834382763 1742.6511450099304
2239.533335107646 1773.350230292356
2240.1370410773434 1884.7574062080391
2240.740601380803 1744.5659843469107
2241.3440160514474 1604.1712218111882
2241.9472851226783 1868.6700101028757
2242.550408627896 1728.9452119201342
2243.1533866004793 1681.8043249820253
2243.756219073799 1634.611239171972
2244.3589060812064 1609.4877654658762
2244.961447656049 1489.835953185261
2245.5638438316564 1772.0404921839174
2246.166094641343 1797.3885843425091
2246.7682001184166 1329.6836222958245
2247.3701602961664 1514.8141335648584
2247.971975207871 1964.43812348352
2248.5736448867974 1961.8900589403052
2249.175169366197 1624.7531243028657
2249.7765486793123 1789.8507359858697
2250.3777828593684 1902.9827900439327
2250.9788719395783 1752.3829494962865
2251.579815953146 1667.086583042696
2252.1806149332606 1547.2800186784964
2252.781268913097 1612.4346994868051
2253.381777925817 1812.1186909589608
2253.9821420045737 2012.0496082613306
2254.5823611825035 1941.5031180125359
2255.1824354927303 1727.2069876776145
2255.782364968365 1598.0583447073645
2256.38214964251 1468.7807466808067
2256.9817895482483 1579.375431327572
2257.5812847186553 1793.7764398729116
2258.180635186791 1831.2910657937525
2258.779840985704 1868.9292455475704
2259.37890214843 1625.240753118173
2259.97781870799 1756.9865286351128
2260.5765906973957 1888.982305277305
2261.175218149645 1875.5815935688508
2261.773701097718 1992.0194494906136
2262.3720395745895 1470.6769976927942
2262.970233613216 1636.7891993206968
2263.568283246548 1624.439859065175
2264.1661885075137 1521.0921073302832
2264.763949429038 1619.2140129672457
2265.3615660440246 2215.1363669549282
2265.959038385374 2107.357824047221
2266.5563664859637 1999.4795965033795
2267.153550378669 1547.8618282205628
2267.7505900963424 1902.254178633569
2268.3474856718312 1608.458121895481
2268.9442371379664 1570.3858509782
2269.5408445275643 1460.577014267596
2270.1373078734377 1475.1166321597334
2270.7336272083758 1489.6910754241692
2271.32980256516 1645.9264507203618
2271.925833976562 1728.869740889078
2272.5217214753357 1600.9613804999265
2273.117465094223 1472.7646383666456
2273.7130648659586 1448.0739787786042
2274.308520823257 1552.59772794453
2274.903832998827 1671.9551551042375
2275.4990014253563 1791.5305283171685
2276.094026135528 1929.0507303249462
2276.6889071620117 1555.4295035188677
2277.2836445374614 1915.4932387791825
2277.878238294519 1827.3086826422557
2278.472688465812 1660.6945926137882
2279.066995083962 1493.7728927260025
2279.6611581815705 1608.0794496383678
2280.255177791232 1634.1182120856379
2280.8490539455233 1789.9655869683033
2281.442786677013 1946.1784008063448
2282.0363760182554 2117.5840996350034
2282.6298220017943 1510.6687745604447
2283.223124660155 2142.1964008925743
2283.816284025859 1588.8723572907095
2284.4093001314086 2006.4033213008831
2285.002173009292 1564.4148591780142
2285.5949026919952 2001.7293952509638
2286.1874892119777 1702.9361106826811
2286.7799326016993 1810.0232506926368
2287.3722328936 1518.0262946705893
2287.964390120109 1720.8881450616311
2288.556404313642 1924.0093639800248
2289.1482755066027 2210.892656127205
2289.7400037313873 1908.2661340631719
2290.3315890203703 1458.319408262952
2290.9230314059205 2025.0232583540721
2291.5143309203904 1560.2894161312217
2292.1054875961236 1628.1159857072505
2292.6965014654506 2057.291603946347
2293.287372560684 1539.3041302946988
2293.878100914131 1559.9670055167946
2294.468686558086 1580.7242376664494
2295.059129524827 1677.9049189163693
2295.649429846617 1631.9718498119435
2296.239587555716 1585.8928449828227
2296.8296026843636 1850.7921036756954
2297.419475264791 1646.530557272819
2298.0092053292137 2037.2851421369755
2298.598792909839 1825.3915134586066
2299.1882380388597 1794.776152063617
2299.777540748455 2145.3556538836083
2300.3667010707904 2206.859113275541
2300.9557190380256 2268.3137007017153
2301.544594682302 2264.735017405497
2302.1333280357503 2097.3001831815554
2302.721919130485 1929.722301933551
2303.3103679986198 2246.04681485741
2303.898674672242 2036.8437897482788
2304.486839183437 1531.2560619124054
2305.0748615642697 1713.23151158623
2305.6627418468015 1786.013090017978
2306.2504800630704 1663.615597591944
2306.8380762451143 1872.51850992171
2307.425530424949 1834.1957174811917
2308.012842634582 1795.7706772661925
2308.6000129060103 2255.428833011263
2309.187041271214 1885.966111462034
2309.773927762164 2164.656205000957
2310.3606724108213 1892.0219380761166
2310.9472752491274 1876.382217059308
2311.5337363090184 1860.7437785527661
2312.120055622414 1523.0956246336082
2312.706233221221 1840.8381924549103
2313.2922691373424 1969.283373701627
2313.8781634026564 1675.5873843956556
2314.463916049037 1786.8487197984894
2315.049527108342 1848.1941255822628
2315.6349966124235 2194.480223207249
2316.2203245931123 2042.0876454419092
2316.8055110822315 1508.0918940671231
2317.3905561115935 1620.4698847657942
2317.9754597129977 1701.6621946585778
2318.560221918229 1632.375222203142
2319.1448427590603 1562.9665371960364
2319.729322267256 1604.65115924793
2320.313660474563 1651.5039999643443
2320.8978574127195 1810.0455374394528
2321.481913113452 1969.096920581859
2322.0658276084705 1434.6110265090579
2322.6496009294806 1857.6734566144667
2323.233233108165 1764.94895801539
2323.8167241762058 1663.551567024831
2324.4000741652617 1675.8925052078375
2324.983283106987 1977.1018605405075
2325.5663510330232 1818.8563138845798
2326.1492779749933 2078.4630652395244
2326.7320639645204 1855.4605876554692
2327.3147090332004 1536.5090972525077
2327.897213212629 1697.9927467878765
2328.4795765343843 1859.5695316011602
2329.0617990300307 1402.666584526218
2329.643880731124 2196.7566869649736
2330.22582166921 1643.1333986718232
2330.807621875816 1522.4216747388461
2331.3892813824623 1401.6468571514454
2331.9708002206517 1460.6137791703231
2332.5521784218818 1506.2050715108103
2333.133416017634 1551.956687081137
2333.7145130393765 1679.5345187040398
2334.295469518571 1996.5315990821
2334.876285486658 2152.2120931459567
2335.456960975076 2123.0082210657497
2336.037496015242 2093.7758425429047
2336.6178906385667 1736.7958696113546
2337.198144876451 1733.6845960941803
2337.778258760278 1564.1869303069757
2338.3582323214214 1705.9874965212596
2338.938065591243 1848.0748106382557
2339.517758601087 2025.7126818927122
2340.0973113822965 1993.4393083353275
2340.676723966193 1681.5882395563488
2341.255996384094 1873.2460546224168
2341.835128667295 1973.673701464275
2342.4141208470883 1944.5356363952778
2342.992972954751 1730.0242535257669
2343.5716850215467 1761.248148724162
2344.1502570787306 1015.0092703134144
2344.7286891575386 1566.6023741773802
2345.3069812892045 1714.8722392637042
2345.885133504944 1863.262239341076
2346.4631458359618 1671.3369361954908
2347.04101831345 1720.3592413052706
2347.6187509685915 1769.3765703396668
2348.196343832553 1660.5433175409166
2348.7737969364935 1562.0553201373475
2349.351110311558 1463.4775858628218
2349.9282839888765 1417.250528302285
2350.5053179995757 1523.1915540287177
2351.0822123747585 1471.8318610102376
2351.658967145526 1407.3335611995396
2352.2355823429643 1342.8090818640767
2352.812057998144 1868.7737140446825
2353.3883941421263 1895.1958136743488
2353.9645908059647 1997.368083379925
2354.540648020693 1608.7058947214903
2355.116565817336 1361.9854787059307
2355.6923442269126 1427.8811077807495
2356.2679832804224 1493.9126180875908
2356.8434830088518 1682.9243002513945
2357.41884344318 1688.2024590748129
2357.994064614377 2070.7633859023817
