#exp_cfg={"servo_angle": 0.0, "laser_lim": 100.0, "servo_angle_to": 18.0, "laser_wup": 0.0, "bt_dev": "EnSpectr-25AE3", "laser_wdn_max": 0.0, "frames": 10.0, "servo_used": 0, "servo_calib_use": 0, "laser_wdn_min": 0.0, "servo_pix_from": 90.0, "cooler_tout": 300.0, "servo_angle_from": 0.0, "servo_calib": "[-1.9174921013161362e-09, 3.9322238269163779e-05, -0.27385609119055809, 653.59552119713567]", "laser_autoctl": 0, "servo_pix_to": 3682.0, "laser_pw": 100.0, "cooler_on": 0, "laser_volt": 4.0, "cooler_autoctl": 0, "cooler_curr": 70.0, "cooler_startup": 10.0, "laser_fixed_pw": 0, "gain": 1.3, "offset": 2.53059635486, "servo_calib_degree": 3.0, "laser_curr": 55.0, "shutter": 8200.0, "servo_calib_step": 1.0, "laser_fixed_curr": 0, "exp": 2000.0, "ccd_volt": 4.7, "bt_addr": "00:06:66:62:5A:E3", "servo_delay": 500.0, "laser_autooff": 1}
#proc_cfg={"flat_auto_wnd": 200.0, "flat_auto_fr": 200.0, "flat_auto_shift": 5.0, "yconv": 1, "flatten": 1, "flatten_strength": 100.0, "xfrom": 300.0, "auto_max_frame": 2000.0, "auto_signal": 48000.0, "flat_auto_tol": 0.1, "autoclip": 1, "xrel_range": 0.0, "flat_auto_to": 4000.0, "intensity_adj": 1.0, "xrel": 7852.0, "rmhot": 1, "flat_auto_slit": 4.999999999999997, "auto_ini_exp": 300.0, "auto_off": 0, "xto": 2860.0, "flat_auto_ref": "", "flat_auto_rank": 1, "autobackg": 0, "xrel_adj": 0.0, "auto_black_lvl": 1, "base_wnd": 100.0, "sub_baseline": 0, "xconv": 2, "auto_max_exp": 1000.0, "auto_total_exp": 10000.0, "auto_exp": 0, "rmripple": 0, "black_lvl": 8278.7375, "shutter_clip_adj": 0.0, "auto_bckg": 0, "flat_auto_thr": 0.9, "subbackg": 1}
316.8218498245369 39473.6242345192
317.89969571804795 39216.11092433604
318.977263876126 39140.94224336567
320.05455438786703 39034.3413944106
321.1315673423287 38905.41142088056
322.2083028285215 38991.47354225886
323.2847609354267 38877.888436523164
324.3609417519747 38753.241510858075
325.43684536705587 38684.44642636685
326.5124718695279 38643.967844114304
327.58782134820103 38528.464371985996
328.66289389184385 38566.38897281599
329.7376895891921 38392.282718240975
330.8122085289342 38386.12240665618
331.88645079971866 38451.46933636386
332.9604164901575 38274.83121721531
334.03410568881554 38230.37623910171
335.1075184842266 38393.909269848446
336.18065496487543 38059.85208830187
337.2535152192122 38199.85561167616
338.32609933564163 38038.468933868615
339.39840740253203 37953.278688331906
340.4704395082099 37961.795603924074
341.5421957409617 37770.83359584281
342.6136761890357 38066.79694259751
343.6848809406365 37822.143028341554
344.75581008392874 37641.54899785451
345.82646370703696 37568.751151577846
346.8968418980512 37631.199886065675
347.96694474501055 37625.760409099414
349.0367723359268 37467.22623432257
350.106324758759 37416.9409267958
351.1756021014353 37459.18350265092
352.2446044518383 37323.99089219216
353.31333189781435 37450.601003953445
354.38178452716966 37201.809998371886
355.449962427665 37203.90363678469
356.51786568702846 37110.94321330309
357.58549439294256 37372.39942944915
358.6528486330535 37221.385353068945
359.71992849496564 37242.72998909752
360.7867340662433 37232.556149417615
361.8532654344144 37220.19154142774
362.9195226869597 37286.581520548454
363.9855059113288 37128.79021159555
365.05121519492604 36887.8135523638
366.11665062511565 37013.42224641049
367.1818122892273 37048.71125173617
368.2467002745434 36910.538883784306
369.31131466831175 36891.12505695536
370.375655557742 37022.913278962405
371.4397230299983 36936.63677680403
372.5035171722102 36757.56699539571
373.5670380714637 36753.22471748004
374.6302858148101 36909.56514937708
375.6932604892554 36744.65192579542
376.7559621817709 36920.10942912032
377.81839097928605 36587.96338479743
378.8805469686886 36799.51846838886
379.94243023683157 36760.36397181098
381.0040408705263 36568.275931228985
382.0653789565458 36499.15918306899
383.1264445816196 36610.69464508245
384.1872378324406 36516.155819034124
385.2477587956637 36560.83543478061
386.3080075579037 36336.21948862548
387.3679842057336 36138.35313570961
388.4276888256918 36391.53780228969
389.48712150426945 36202.47852237461
390.54628232792857 36176.02116652354
391.6051713830857 36116.9234594488
392.66378875611736 36106.120176640296
393.7221345333637 36105.37213463111
394.7802088011249 35990.895368330246
395.838011645661 35918.90514680312
396.89554315319765 35797.299990920925
397.9528034099112 35715.006101246436
399.00979250194723 35603.64956304134
400.06651051541485 35536.71269048508
401.1229575363741 35639.62755889909
402.17913365085224 35605.19398343643
403.23503894483656 35613.173453659394
404.2906735042761 35526.36878689153
405.3460374150818 35306.590958539884
406.401130763119 35363.50839319807
407.455953634224 35355.82527402624
408.5105061141876 35182.524526912486
409.56478828876243 35011.32843183555
410.6188002436629 34994.36398574295
411.6725420645689 34876.28521528175
412.72601383711117 35044.87008273887
413.77921564689314 34952.4823185998
414.8321475794728 34694.93212730783
415.88480972036814 34536.96038322769
416.93720215506437 34693.20935109813
417.9893249690049 34391.44633864724
419.04117824759123 34387.412648132056
420.09276207619223 34299.853886061304
421.144076540133 34232.014153960845
422.1951217247042 34247.661939578036
423.24589771515275 34150.72505587168
424.2964045966928 34133.98871082383
425.34664245449494 34113.956472430094
426.3966113736933 33968.049615771815
427.4463114393875 33993.47070405553
428.49574273662984 33882.95461864784
429.5449053504417 33757.61405963006
430.5937993658026 33872.945835640996
431.6424248676558 33619.8424018515
432.6907819409007 33709.13366192845
433.73887067040596 33807.030998534734
434.7866911409965 33602.27574938639
435.8342434374608 33653.05983867139
436.88152764455117 33430.60666364236
437.9285438469724 33405.02052310645
438.9752921294057 33276.614422330786
440.02177257648145 33312.74148895419
441.06798527279716 33112.81391902884
442.1139303029122 33440.06440522422
443.1596077513459 33204.997977987274
444.2050177025794 33263.17510974291
445.25016024105753 33243.826679920385
446.2950354511886 33138.94866697007
447.33964341733736 33124.10896805461
448.383984223834 32920.63327905779
449.4280579549686 32934.24611779603
450.471864694995 33127.15652966051
451.5154045281306 32881.45125439903
452.5586775385509 32924.638029665875
453.60168381039693 32729.582973131466
454.64442342776783 33016.39620701198
455.6868964747264 32769.22072577346
456.7291030353008 32596.73371841907
457.77104319347563 32770.549665873776
458.8127170332027 32690.42354409748
459.854124638392 32585.020547295873
460.895266092919 32796.016916424895
461.93614148061897 32714.738395353466
462.97675088529104 32766.21169429774
464.01709439069236 32588.70681133477
465.0571720805492 32642.99594606851
466.0969840385442 32517.169448319775
467.1365303483253 32651.584110064072
468.17581109350067 32425.73225952265
469.2148263576437 32451.379514523152
470.2535762242878 32455.939849773433
471.29206077693016 32537.15237235417
472.33028009902773 32493.12662870658
473.3682342740012 32499.927735058583
474.40592338523857 32559.300585774316
475.4433475160804 32506.16820301956
476.4805067498364 32323.868381129083
477.51740116978 32423.09119592638
478.5540308591426 32599.751165674905
479.59039590112116 32609.744807097188
480.6264963788726 32363.14482056556
481.6623323755193 32665.45573663859
482.6979039741436 32459.284455746052
483.7332112577915 32654.38003269678
484.76825430947247 32664.0998702389
485.80303321215797 32813.26089000447
486.837548048783 32674.744090804004
487.8717989022425 32953.3110886892
488.90578585539697 32768.3658782106
489.9395089910686 32846.1870989527
490.97296839203955 32694.621037454915
492.00616414106116 32580.858303352452
493.0390963208429 32647.695751344367
494.0717650140559 32632.968778985913
495.10417030333883 32465.239863301547
496.1363122712901 32376.493557376543
497.16819100046814 32207.95068856967
498.1998065734024 31983.130767993385
499.2311590725767 32122.260421604384
500.26224858044407 31865.44259740782
501.2930751794156 31615.242196932282
502.3236389518679 31712.982742156833
503.35393998014115 31410.793454690203
504.38397834653733 31328.892145799364
505.4137541333221 31397.39512553952
506.4432674227228 31204.60826445258
507.4725182969323 31058.02012685987
508.5015068381035 30934.036639758102
509.53023312835467 31025.860103734634
510.55869724976765 30910.239916946175
511.58689928438434 30698.681163961483
512.6148393142121 30719.07520299721
513.6425174212218 30849.11755475621
514.6699336873462 30788.650166782092
515.6970881944835 30829.65291393884
516.7239810244901 30557.017316566216
517.7506122591931 30392.726632901584
518.7769819803761 30526.34116054281
519.8030902697901 30573.105678349402
520.8289372091476 30456.127317556577
521.8545228801249 30679.047377993156
522.8798473643619 30471.381048111256
523.9049107434621 30488.565781940164
524.9297130989908 30523.351156561792
525.9542545124805 30445.21351708065
526.9785350654201 30437.366601778416
528.0025548392696 30395.403027446147
529.0263139154504 30305.98047726386
530.0498123753423 30401.120900443824
531.073050300296 30165.71246769769
532.0960277716204 29955.979609249123
533.1187448705896 30136.695596662546
534.1412016784416 29998.700338860643
535.1633982763833 29914.854703872796
536.1853347455726 29709.079097338195
537.2070111671401 29675.130748058145
538.2284276221817 29541.79243685339
539.2495841917516 29500.279784054794
540.2704809568677 29320.41620495756
541.2911179985167 29403.895906997343
542.3114953976419 29234.878402831488
543.3316132351592 29049.997960694098
544.3514715919409 28894.901092647207
545.3710705488247 28898.21393597673
546.3904101866156 28839.078873252496
547.4094905860784 28873.27270276873
548.4283118279418 28730.801840540564
549.4468739929034 28689.764559171694
550.4651771616191 28605.53016008621
551.4832214147063 28523.934596743406
552.501006832761 28498.459467705386
553.5185334963226 28395.007851300004
554.5358014859103 28424.199381641974
555.5528108820035 28491.701892645087
556.5695617650363 28365.06459302194
557.5860542154242 28508.36352983016
558.6022883135283 28241.882319852448
559.6182641396881 28153.153014910687
560.6339817741991 28003.091796197325
561.6494412973225 28118.562095620196
562.6646427892883 28046.627788480448
563.6795863302796 27883.06166759847
564.694272000459 27805.554128612384
565.7086998799423 27879.686287123768
566.7228700488104 27709.778904312116
567.7367825871115 27708.08027910422
568.7504375748576 27642.56059276453
569.7638350920224 27562.841642516716
570.7769752185486 27542.504537692857
571.7898580343353 27673.709033725503
572.802483619258 27351.838233592414
573.8148520531431 27656.198841459707
574.8269634157932 27446.982276010967
575.8388177869692 27497.93439268606
576.8504152463938 27390.745935606188
577.8617558737587 27602.73954650141
578.8728397487175 27267.845145530602
579.883666950891 27512.282974316622
580.8942375598654 27439.316196931304
581.9045516551851 27373.482955109415
582.9146093163617 27718.21233205052
583.924410622878 27442.128572381305
584.9339556541727 27540.295788838393
585.9432444896538 27643.518460509455
586.9522772086875 27528.315658500564
587.9610538906127 27488.286898646453
588.9695746147318 27412.501832797367
589.9778394603054 27584.937405583572
590.985848506567 27314.24548537392
591.9936018327098 27377.97467624011
593.0010995178891 27040.307845045474
594.0083416412344 27205.487633983885
595.0153282818283 27048.08211202344
596.0220595187293 26896.684589931694
597.0285354309508 26832.55887086765
598.0347560974806 26849.8574498832
599.0407215972609 26771.561071105913
600.0464320092051 26826.784535474108
601.0518874121954 26638.499873205546
602.0570878850685 26618.196435330592
603.062033506636 26519.390523359143
604.0667243556636 26576.62636969485
605.0711605108936 26272.855516372547
606.0753420510264 26645.35860550553
607.0792690547278 26416.97283998965
608.082941600629 26304.539454415913
609.0863597673306 26107.993306329914
610.0895236333909 26403.780378333206
611.0924332773357 26451.981685813727
612.0950887776617 26382.58047674958
613.0974902128219 26337.58959547673
614.0996376612384 26373.917449445475
615.1015312013005 26323.05995922219
616.1031709113595 26467.659600678402
617.1045568697336 26351.120155348937
618.1056891547069 26546.33850934077
619.1065678445229 26585.101758818033
620.1071930173985 26830.69395934153
621.1075647515099 26742.15181975313
622.1076831250048 26752.33474094548
623.1075482159849 26860.24130836695
624.1071601025305 26810.749863454577
625.1065188626781 26824.108791832212
626.105624574433 27228.819390225923
627.1044773157682 27153.567220573354
628.1030771646128 27193.879791688116
629.1014241988742 27235.04768359309
630.0995184964158 27336.54470158313
631.0973601350688 27327.34171465472
632.0949491926294 27523.056365168934
633.0922857468631 27069.034829369844
634.089369875499 27273.145940913608
635.0862016562278 27319.601196388307
636.0827811667077 27110.819614192762
637.0791084845641 27078.8634401548
638.0751836873878 26908.773528860766
639.0710068527369 26898.990018605597
640.0665780581294 26702.262341057773
641.0618973810506 26500.23271849078
642.0569648989604 26526.514105212
643.0517806892676 26298.182131502974
644.0463448293649 26250.853790488618
645.040657396592 26080.48650554522
646.0347184682723 25937.726000555795
647.0285281216875 25764.662107400385
648.0220864340772 25803.073115588886
649.0153934826558 25589.21676457475
650.0084493446047 25485.937841499363
651.0012540970674 25471.36576697498
651.9938078171526 25412.143976437183
652.9861105819346 25169.40154453797
653.9781624684565 25179.012611402315
654.9699635537254 25120.892199599766
655.9615139147136 25087.23919483909
656.9528136283589 24867.915790344745
657.9438627715699 25101.594951457595
658.9346614212154 24895.13526548562
659.925209654135 24630.466271078527
660.9155075471263 24584.239123041858
661.9055551769616 24608.925451648098
662.895352620375 24621.969466376562
663.8848999540678 24509.978206121123
664.8741972547068 24343.46005900538
665.863244598926 24273.45559306588
666.8520420633213 24233.588528809945
667.8405897244611 24125.88455575405
668.8288876588758 23895.194487892197
669.8169359430613 23991.425564791156
670.8047346534822 23825.44886329559
671.7922838665672 23764.767535918414
672.7795836587156 23702.39587555712
673.766634106285 23848.443620233833
674.7534352856092 23519.937635405884
675.7399872729766 23472.585479420417
676.7262901446538 23447.65330237646
677.712343976862 23488.13459863648
678.6981488457986 23476.11220081293
679.6837048276229 23249.34276029189
680.6690119984596 23230.471462181806
681.6540704344043 23174.981151095802
682.6388802115107 23039.6347172623
683.6234414058108 23174.780145878052
684.6077540932874 22953.55090720448
685.591818349907 22933.315491075635
686.575634251587 22804.62511773078
687.5592018742263 22714.87597084614
688.5425212936734 22587.492315182557
689.5255925857564 22788.22720630063
690.5084158262707 22635.087024162585
691.4909910909646 22476.04576000334
692.4733184555644 22414.15533579742
693.4553979957618 22502.48098839615
694.4372297872123 22374.567745158918
695.4188139055404 22317.00914159838
696.4001504263324 22083.942096265127
697.3812394251509 22370.663337607075
698.3620809775111 22175.59871464001
699.3426751589104 22281.668670943418
700.3230220448004 22024.195310347655
701.3031217106054 22099.345788043993
702.2829742317172 22156.430118978118
703.2625796834873 21863.091882615765
704.2419381412474 21780.991823294014
705.22104968028 21965.248427154533
706.1999143758458 21865.264383274105
707.178532303169 21886.509289426383
708.1569035374378 21831.867895834377
709.1350281538107 21890.598785768772
710.1129062274158 21713.118604500032
711.0905378333373 21863.70846467642
712.0679230466376 21754.710951287092
713.0450619423427 21817.350681277374
714.0219545954424 21949.1839412499
714.9986010808989 21661.34571006981
715.9750014736292 21721.649326755476
716.9511558485392 21941.580367785627
717.9270642804786 21854.878865992338
718.9027268442787 21910.17680187615
719.8781436147328 21816.704168194334
720.8533146666014 21866.870224986305
721.828240074612 21752.31962563877
722.8029199134635 21734.598546916844
723.7773542578125 21645.512718511676
724.751543182294 21533.358046323763
725.7254867615029 21577.513895026823
726.6991850700015 21189.46944302457
727.6726381823228 21405.822266074956
728.6458461729599 21312.795521692173
729.6188091163858 21316.209140566774
730.5915270870246 21318.017440377538
731.5640001592856 21240.049167296667
732.536228407529 21355.579629934102
733.5082119060917 21165.601703498927
734.4799507292755 21212.522942507803
735.4514449513481 21209.90662043014
736.4226946465496 21270.03371526742
737.3936998890786 21357.05531177011
738.3644607531078 21115.715205628745
739.3349773127793 21042.124835082508
740.3052496421951 20952.647506089153
741.27527781543 20693.85901352926
742.2450619065221 20527.28726288022
743.2146019894826 20511.292424738065
744.183898138288 20578.223524301135
745.1529504268801 20328.397481347976
746.1217589291682 20276.70975301344
747.0903237190341 20211.828041289926
748.058644870318 20272.894544059753
749.0267224568397 20119.24974326652
749.994556552374 19910.22752720365
750.9621472306771 19952.389635706822
751.9294945654583 20031.16626956921
752.8965986304011 19908.06656854148
753.8634594991636 19765.911756978698
754.8300772453586 19868.924069779983
755.7964519425768 19734.491093785356
756.762583664371 19838.277735626387
757.7284724842611 19735.562548538262
758.6941184757416 19621.591582719244
759.6595217122667 19719.237293292623
760.6246822672638 19597.347681786272
761.5896002141235 19605.57669400789
762.5542756262093 19574.103334081505
763.5187085768503 19582.276783528974
764.4828991393406 19509.645928354574
765.4468473869474 19449.56852899194
766.4105533929032 19429.5379671744
767.3740172304078 19467.7762684105
768.3372389726283 19534.62694233011
769.3002186926988 19307.14835532978
770.2629564637282 19147.649574615236
771.2254523587872 19194.5266746658
772.1877064509154 18950.73631275361
773.1497188131179 18953.270722531066
774.1114895183728 18857.049811654175
775.0730186396268 18931.79730193702
776.0343062497905 18913.05096582847
776.9953524217381 18738.49820641376
777.9561572283274 18830.059521834624
778.9167207423689 18736.567911783353
779.8770430366476 18607.30554761041
780.8371241839159 18623.088386401403
781.7969642568951 18548.837368217068
782.7565633282757 18767.420693130352
783.7159214707099 18498.691083510006
784.6750387568281 18434.276034081144
785.6339152592227 18413.184353520133
786.5925510504512 18309.268209454298
787.5509462030477 18300.715492748346
788.5091007895098 18232.172010391718
789.4670148823006 18144.03706008032
790.4246885538596 18259.796169066936
791.3821218765861 18179.287994309147
792.3393149228505 18036.424750974154
793.2962677649975 18121.3203152132
794.2529804753303 18271.870359246073
795.20945312613 18164.636876893353
796.1656857896378 18008.466351288578
797.1216785380675 18000.667140239944
798.0774314435985 18158.270883802605
799.0329445783846 18227.457698921196
799.9882180145414 18162.870919898967
800.9432518241574 18048.64042699768
801.89804607929 18188.863252683957
802.852600851962 18193.118745948173
803.8069162141637 18175.641457580863
804.760992237856 18225.58939729757
805.714828994971 18250.123585421163
806.6684265574077 18186.26085608322
807.6217849970271 18200.629105886932
808.574904385674 18020.275521295607
809.527784795142 18236.12148984822
810.4804262972102 18137.303275065013
811.4328289636178 18008.38405500615
812.3849928660748 17808.22417214084
813.3369180762638 17786.376246069678
814.2886046658241 17710.893878878796
815.2400527063783 17684.34332342913
816.1912622695108 17545.60080617509
817.1422334267718 17566.135774378683
818.0929662496856 17461.81277874063
819.0434608097457 17370.273557053893
819.9937171784059 17275.693756649758
820.9437354271013 17147.184323105954
821.8935156272255 17187.25729287982
822.8430578501484 17178.970876748404
823.7923621672016 16946.80773618805
824.7414286496896 17055.158998084804
825.6902573688876 16947.367051808462
826.6388483960363 16883.891360033056
827.5872018023492 16762.235409980418
828.5353176590033 16864.268391027723
829.4831960371503 16694.23899639261
830.4308370079016 16733.187774152302
831.3782406423525 16625.40188907519
832.3254070115545 16619.822600669693
833.2723361865319 16530.274738395943
834.2190282382799 16524.045185734773
835.1654832377644 16629.290120775135
836.1117012559116 16491.545348321342
837.0576823636256 16518.126554665156
838.003426631778 16352.263452756062
838.9489341312074 16263.232516788983
839.8942049327197 16461.536801545943
840.8392391070975 16314.854116615887
841.7840367250865 16296.099993897853
842.7285978573982 16201.865021804226
843.672922574724 16302.905140347619
844.6170109477152 16152.342607298768
845.560863046996 16108.804841577115
846.5044789431595 16045.196641550705
847.4478587067697 16165.351246092745
848.3910024083561 16242.129821562918
849.333910118421 16108.584208870434
850.2765819074339 15933.015074576982
851.2190178458332 16106.313273506632
852.161218004032 16026.284641538427
853.1031824524016 16128.669047700465
854.0449112612987 16014.314001539673
854.9864045010327 16083.230682026851
855.9276622418947 15916.977657930689
856.8686845541379 15933.840801927552
857.8094715079915 15912.571589360445
858.7500231736467 15987.398565464837
859.690339621271 15918.577403940555
860.6304209209939 15824.738322715832
861.5702671429244 15688.620449352657
862.5098783571284 15871.540699646974
863.4492546336569 15854.25872294307
864.3883960425155 15759.550345400508
865.3273026536863 15724.098134902611
866.2659745371238 15769.12996269984
867.2044117627465 15917.516956410138
868.1426144004472 15658.939439899254
869.0805825200823 15695.73722471204
870.0183161914847 15694.163052487687
870.9558154844526 15816.1284312119
871.8930804687552 15770.330748831588
872.8301112141307 15645.091998978507
873.7669077902865 15778.729095055232
874.7034702669062 15874.128568625549
875.6397987136315 15787.108939278365
876.5758932000863 15753.435310191786
877.5117537958522 15891.125256555253
878.4473805704911 15756.052373863971
879.3827735935283 15718.76805960081
880.3179329344603 15771.505665332981
881.2528586627541 15912.585906014454
882.1875508478479 15870.918487454572
883.1220095591489 15629.289158369847
884.0562348660296 15668.781170781023
884.9902268378391 15713.047140046014
885.9239855438955 15628.56437692931
886.8575110534839 15462.564949845535
887.7908034358588 15607.825824515192
888.7238627602474 15515.655416822014
889.6566890958475 15549.28994553471
890.5892825118208 15351.686810283863
891.5216430773125 15226.633450649682
892.4537708614189 15403.588309447305
893.3856659332196 15282.166038994841
894.3173283617652 15125.98758321999
895.2487582160684 15194.520200325622
896.179955565116 15131.028688652214
897.110920477864 14987.482748804283
898.0416530232451 15124.916332540812
898.9721532701478 15000.363022478745
899.9024212874428 15091.30338494433
900.8324571439662 14867.580791139286
901.7622609085302 14837.633535957593
902.6918326499072 14709.174300719344
903.6211724368477 14933.955412298043
904.5502803380696 14975.200960348278
905.4791564222614 14969.990277997324
906.4078007580792 14763.011801112789
907.3362134141571 14707.735754552257
908.2643944590909 14803.153377354532
909.1923439614493 14703.989534875102
910.1200619897754 14563.896597670895
911.0475486125779 14780.365382982936
911.9748038983344 14632.41376175496
912.9018279155007 14544.996309209271
913.8286207324982 14458.094386020686
914.7551824177117 14625.6156168942
915.6815130395116 14479.700529412186
916.6076126662283 14391.787638906151
917.533481366163 14467.151415040706
918.4591192075914 14491.049364430059
919.3845262587565 14557.995379554612
920.3097025878706 14414.575444541455
921.2346482631237 14411.900266197135
922.1593633526682 14409.542161140058
923.0838479246304 14412.095559388792
924.0081020471061 14457.105328610187
924.9321257881656 14232.756915895665
925.8559192158464 14263.620740497154
926.7794823981512 14296.990179101815
927.7028154030686 14196.365415150975
928.6259182985414 14027.531850243802
929.5487911524906 14316.826697965414
930.4714340328119 14156.21591930852
931.3938470073608 14027.930819666784
932.3160301439748 14046.614681552344
933.2379835104548 14084.672002449322
934.1597071745709 14126.42665621228
935.0812012040769 14139.072991658259
936.002465666681 14086.460995544994
936.9235006300696 14134.349197864498
937.8443061619055 14052.13936153743
938.7648823298077 13945.063552547645
939.6852292013809 13880.371451540177
940.6053468441951 14014.59492438178
941.5252353257874 13933.955952170209
942.4448947136698 13999.267179579158
943.364325075323 14031.176189802412
944.2835264782043 13961.422402144124
945.2024989897309 13829.107659021025
946.1212426773054 13937.977341541797
947.0397576082851 13900.6814201415
947.9580438500125 14084.497255961509
948.8761014697939 13978.820259304663
949.7939305349064 13963.983295312366
950.7115311125999 13796.004258602032
951.6289032700952 13901.843489559487
952.5460470745875 13945.993830988815
953.4629625932339 13811.446325112347
954.3796498931715 13942.862147433287
955.2961090415029 13936.274478316438
956.2123401053068 13761.410126892544
957.1283431516276 13782.4036469224
958.0441182474842 13669.910154071165
958.9596654598663 13955.850120610126
959.8749848557309 13814.762183463628
960.7900765020167 13686.556503164367
961.7049404656209 13703.680823418777
962.6195768134185 13765.898290554542
963.5339856122537 13738.526244713468
964.4481669289453 13769.796595383988
965.3621208302793 13608.801423014109
966.2758473830145 13658.542368289269
967.1893466538822 13877.641034167867
968.1026187095813 13711.396187592636
969.0156636167867 13574.504706175736
969.9284814421426 13749.737215272666
970.8410722522622 13645.543383204815
971.753436113735 13611.510402536724
972.6655730931161 13543.64240778514
973.5774832569368 13725.620549428178
974.4891666716958 13480.103897639634
975.4006234038698 13511.220752755087
976.3118535198955 13487.250403437483
977.2228570861935 13687.040334215544
978.1336341691494 13659.853394034359
979.0441848351202 13467.603107423663
979.9545091504333 13608.701518001351
980.864607181391 13713.605181482348
981.7744789942699 13636.029390753432
982.6841246553086 13627.694038834257
983.5935442307236 13520.53197316105
984.5027377867027 13642.845208509088
985.4117053894024 13594.135254420631
986.3204471049557 13497.113098431733
987.2289629994648 13545.816426050878
988.1372531390007 13718.454842821322
989.0453175896091 13529.99651025288
989.9531564173067 13635.965130569715
990.860769688079 13328.886541610857
991.7681574678918 13514.695009491294
992.6753198226706 13537.97621457843
993.582256818323 13434.766527501313
994.4889685207218 13458.413236337594
995.3954549957143 13649.768334140119
996.301716309119 13548.655760975535
997.2077525267232 13496.81044138493
998.1135637142943 13338.03778726431
999.0191499375615 13594.617764686735
999.924511262232 13563.15428060001
1000.8296477539861 13474.823171512588
1001.7345594784656 13414.117836952888
1002.6392465012996 13437.87981687365
1003.5437088880753 13524.166590633404
1004.4479467043584 13549.655305836583
1005.3519600156869 13241.092895057649
1006.2557488875718 13414.153470261914
1007.1593133854858 13300.734201213898
1008.0626535748888 13306.62676049626
1008.9657695212009 13089.290513692396
1009.8686612898182 13471.415833227555
1010.7713289461135 13345.086567752136
1011.6737725554212 13309.086109727064
1012.5759921830577 13385.82344068714
1013.4779878943027 13319.976226329953
1014.379759754418 13357.15702607684
1015.2813078286254 13179.30508691867
1016.18263218213 13063.4832101874
1017.0837328801026 13197.672080502274
1017.9846099876886 13278.125445484164
1018.8852635700023 13184.669364516632
1019.7856936921362 12974.539529925853
1020.6859004191447 13253.513714946628
1021.5858838160675 13113.589729346568
1022.4856439479063 12981.95304207604
1023.3851808796389 13022.581219554571
1024.2844946762143 13210.984722397407
1025.183585402554 13181.683111779867
1026.082453123554 12880.757210494408
1026.9810979040776 12891.112089130434
1027.8795198089647 12928.786816527421
1028.777718903024 12936.234984961307
1029.6756952510368 12836.234067414453
1030.5734489177648 12830.688212945186
1031.4709799679313 12979.013809927583
1032.3682884662358 12973.428179782639
1033.2653744773506 12728.722282189874
1034.1622380659192 12742.733419545275
1035.058879296559 12929.017932727169
1035.9552982338591 12968.289928119248
1036.8514949423825 12940.631600195573
1037.7474694866614 12907.507141396822
1038.6432219312028 12849.80611464862
1039.5387523404825 13113.855942876655
1040.4340607789582 12956.155873746507
1041.3291473110476 12908.16028951149
1042.2240120011465 13119.695900093051
1043.1186549136273 13250.390080316914
1044.0130761128294 13097.121008774599
1044.9072756630649 13064.681945087888
1045.8012536286205 13282.162123914542
1046.6950100737577 13294.416413278455
1047.588545062701 13460.965367306639
1048.481858659663 13211.911959470384
1049.3749509288118 13434.320838547093
1050.2678219343034 13311.884258061147
1051.1604717402515 13316.999232214654
1052.0529004107575 13200.35678545757
1052.9451080098825 13364.896247399054
1053.8370946016694 13317.83131261788
1054.7288602501267 13324.997608285363
1055.6204050192446 13261.407550278114
1056.511728972977 13326.623022871336
1057.402832175254 13176.752028447754
1058.2937146899785 13114.691763845156
1059.1843765810263 13052.64861578093
1060.0748179122456 13212.67671919798
1060.9650387474576 13051.15848808268
1061.855039150456 13088.61422141667
1062.7448191850071 13031.98485179177
1063.6343789148505 13077.626351405404
1064.5237184037014 13052.562090742877
1065.412837715241 12899.98305975566
1066.3017369131267 12806.16390607752
1067.190416060992 12856.368703488803
1068.0788752224398 12665.575337837721
1068.9671144610438 12631.497010103858
1069.8551338403558 12663.489228046861
1070.7429334239023 12710.753113659615
1071.6305132751695 12578.50991059261
1072.517873457633 12681.972092403734
1073.4050140347335 12596.79586332148
1074.2919350698776 12685.78778766061
1075.1786366264623 12595.16857480851
1076.0651187678395 12505.66929403652
1076.95138155735 12335.13898941352
1077.8374250582929 12428.482526298312
1078.7232493339507 12538.197279878428
1079.608854447577 12352.040804266293
1080.4942404623907 12419.793379314702
1081.3794074415982 12488.159162669737
1082.2643554483657 12408.374198280144
1083.149084545841 12397.99760378346
1084.033594797138 12301.488199360854
1084.9178862653516 12357.893709049957
1085.8019590135427 12527.863588153921
1086.6858131047484 12150.331380690417
1087.5694486019802 12361.272396139475
1088.4528655682225 12263.9302076468
1089.3360640664287 12478.297671731383
1090.2190441595321 12339.960864003824
1091.1018059104317 12343.547788632199
1091.98434938201 12407.223622648207
1092.866674637111 12509.191668296393
1093.748781738559 12345.535077695906
1094.6306707491512 12058.643463452298
1095.5123417316554 12347.01068329016
1096.3937947488157 12261.069385001301
1097.2750298633455 12288.070233527005
1098.156047137938 12228.22098553089
1099.0368466352556 12245.540298411654
1099.9174284179317 12413.06758905014
1100.7977925485757 12150.166231103623
1101.6779390897755 12068.479941425172
1102.5578681040806 12142.583593523666
1103.4375796540226 12184.493557859638
1104.3170738021054 12214.35184705984
1105.1963506108077 12049.717912886472
1106.0754101425773 12083.532540218195
1106.9542524598382 12104.904292165003
1107.8328776249855 11988.8834965981
1108.7112857003904 12016.48601690716
1109.5894767483987 12052.199408912431
1110.4674508313292 12145.915129903326
1111.3452080114657 12026.043185763398
1112.2227483510815 12023.776482064508
1113.1000719124077 12136.373433659994
1113.9771787576592 12240.323167665852
1114.854068949022 12061.986167471794
1115.7307425486542 12104.389772853694
1116.6071996186893 12093.580829928198
1117.483440221229 12407.765575044888
1118.3594644183577 12108.555329059505
1119.235272272128 12190.918239696946
1120.1108638445658 12244.190470202473
1120.9862391976712 12506.452935082487
1121.8613983934229 12419.050663788821
1122.7363414937627 12405.76714228478
1123.6110685606182 12404.953636881848
1124.485579655884 12485.335084674203
1125.359874841426 12413.572467536596
1126.2339541790916 12440.853970269443
1127.1078177306936 12615.639466992538
1127.9814655580267 12394.776571054648
1128.854897722851 12531.43287262567
1129.7281142869106 12508.542125956124
1130.6011153119125 12520.62674563671
1131.473900859548 12766.259288273632
1132.3464709914697 12512.189076270795
1133.2188257693178 12574.212642696159
1134.0909652546961 12453.539628830124
1134.96288950919 12462.24897711493
1135.8345985943506 12644.573441963368
1136.7060925717087 12389.933278365024
1137.57737150277 12458.089565209415
1138.4484354490069 12468.986835082007
1139.3192844718778 12432.822725355154
1140.1899186327992 12137.551770693717
1141.060337993178 12379.071795498807
1141.930542614382 12313.293031060508
1142.8005325577597 12218.333418749758
1143.670307884635 12058.637374272419
1144.5398686563003 12253.943000813098
1145.409214934025 12217.461447836835
1146.2783467790541 11996.35092333008
1147.1472642526023 11999.261098832792
1148.0159674158622 12162.34449628092
1148.8844563300026 11917.511555185363
1149.7527310561618 11880.337489115682
1150.6207916554504 11891.413061382093
1151.4886381889592 11789.913458635068
1152.3562707177498 12040.04535766998
1153.2236893028585 11879.718163980959
1154.090894005296 11886.993630361736
1154.9578848860474 11937.540405160247
1155.8246620060709 11905.830246282232
1156.6912254262988 11723.496941499274
1157.5575752076438 11753.58885313033
1158.42371141098 11877.943276797343
1159.2896340971656 11851.628110257476
1160.1553433270346 11883.749198964975
1161.0208391613887 11735.756905510501
1161.8861216610057 11822.064201769988
1162.75119088664 11787.996654709477
1163.6160468990201 11737.086702215449
1164.4806897588442 11640.943447819449
1165.3451195267917 11840.905302170057
1166.2093362635114 11775.411336304825
1167.0733400296285 11702.95510607739
1167.9371308857444 11625.851443201585
1168.8007088924278 11625.97506783079
1169.6640741102328 11615.633809065997
1170.5272265996773 11559.04121023578
1171.390166421259 11469.975909803876
1172.252893635452 11694.425075015753
1173.1154083026995 11777.798931438458
1173.977710483421 11644.498978565112
1174.8398002380145 11474.0582302416
1175.7016776268483 11689.55688434943
1176.563342710264 11544.503796673485
1177.4247955485826 11464.57192764729
1178.2860362020947 11633.196510898622
1179.147064731069 11358.328489102949
1180.0078811957483 11562.514490469634
1180.8684856563486 11419.63399276916
1181.7288781730604 11332.240368360552
1182.589058806052 11385.698756799513
1183.4490276154593 11629.019690914178
1184.3087846614017 11247.790306222074
1185.1683300039676 11379.2395376615
1186.027663703222 11582.718456820752
1186.8867858192025 11497.785016202466
1187.7456964119228 11420.675097068019
1188.6043955413716 11440.691312197532
1189.4628832675116 11631.614337451381
1190.3211596502842 11604.605072738073
1191.179224749596 11571.177927581295
1192.0370786253388 11340.226155339928
1192.8947213373758 11698.076369084658
1193.7521529455407 11789.229593392969
1194.6093735096438 11455.338743440236
1195.466383089477 11594.983398397433
1196.3231817447977 11639.622992843331
1197.1797695353398 11788.064233228619
1198.0361465208189 11458.501702727179
1198.8923127609214 11519.71118909282
1199.7482683153048 11770.596881790754
1200.6040132436028 11734.958572521125
1201.459547605431 11562.702175055161
1202.3148714603722 11615.26755854407
1203.1699848679855 11639.412998290209
1204.0248878878065 11672.036452238648
1204.8795805793507 11401.71551783649
1205.7340630020935 11585.729947326234
1206.5883352155033 11702.819658743996
1207.4423972790064 11664.69969803288
1208.2962492520237 11371.107707279585
1209.1498911939307 11498.926031858147
1210.0033231640937 11558.278863537898
1210.8565452218427 11527.786821481579
1211.7095574264913 11248.397510235536
1212.5623598373222 11319.52838551149
1213.4149525135963 11244.327344883488
1214.2673355145507 11317.457877488943
1215.1195088993936 11198.101426798916
1215.9714727273113 11217.339259535018
1216.8232270574663 11437.555004412481
1217.6747719489904 11041.279066969542
1218.5261074609934 11160.554023890527
1219.3772336525653 11128.113543731031
1220.2281505827668 11220.685367687902
1221.0788583106296 11213.513133258537
1221.9293568951707 11021.976555058764
1222.7796463953746 10919.237963135722
1223.629726870202 11113.329888775257
1224.4795983785934 11124.204655715403
1225.3292609794553 11089.980254436898
1226.1787147316809 10926.418632822315
1227.0279596941327 11041.568261354718
1227.8769959256424 10935.75459549922
1228.7258234850306 10996.172150650485
1229.5744424310833 10756.617001453782
1230.422852822563 11019.809844313542
1231.2710547182105 11136.122542642213
1232.119048176739 10920.397196839567
1232.9668332568417 10752.701443755013
1233.8144100171812 11048.73962833221
1234.6617785163999 10955.789607438868
1235.508938813111 10696.999020460917
1236.3558909659114 10765.119206374113
1237.2026350333617 10996.27848115473
1238.049171074008 11045.238029060443
1238.8954991463652 10814.215015709886
1239.741619308932 10797.907187151086
1240.587531620169 9747.31444794984
1241.4332361385277 10924.588560460366
1242.2787329224248 10630.939240049735
1243.1240220302534 10666.17125543595
1243.9691035203869 10656.914332830445
1244.813977451171 10927.60445459389
1245.6586438809263 10793.424943184438
1246.5031028679496 10630.347529935696
1247.3473544705157 10859.246246199315
1248.1913987468706 10772.40319603682
1249.0352357552383 10577.966473385346
1249.8788655538228 10554.930697700202
1250.7222882007918 10836.85834794525
1251.565503754302 10830.213140887456
1252.4085122724755 10535.890822416848
1253.2513138134182 10794.508775742746
1254.0939084352049 10705.33040509401
1254.9362961958905 10715.616272099292
1255.7784771535007 10719.853265043903
1256.6204513660432 10630.818940202473
1257.4622188915 10969.139723410424
1258.3037797878242 10665.848821797059
1259.1451341129468 10534.484776215812
1259.9862819247755 10629.429096280981
1260.8272232811978 10715.680737282917
1261.6679582400666 10799.524687566609
1262.5084868592203 10576.02480786938
1263.34880919647 10568.720885185288
1264.1889253095997 10684.44478226846
1265.0288352563712 10714.57644395114
1265.8685390945266 10585.870294962795
1266.7080368817751 10593.131704546817
1267.5473286758115 10814.035838925316
1268.386414534294 10609.706175703806
1269.2252945148703 10409.138678570254
1270.0639686751547 10494.694382674801
1270.9024370727402 10453.42285461047
1271.7406997651997 10445.018015283971
1272.5787568100714 10324.080538752944
1273.4166082648808 10365.345265689606
1274.2542541871244 10400.776141334649
1275.091694634275 10659.923181310452
1275.9289296637817 10246.6278972704
1276.7659593330663 10415.037451858398
1277.6027836995308 10399.436935413565
1278.4394028205552 10505.193254050293
1279.2758167534867 10364.192813443815
1280.112025555658 10438.425557789928
1280.9480292843746 10560.203295786492
1281.7838279969128 10183.252160849252
1282.6194217505326 10399.221368155126
1283.4548106024686 10162.046805104037
1284.289994609926 10390.141401177174
1285.1249738300921 10517.373764324519
1285.959748320127 10242.408439712537
1286.7943181371702 10381.8068373178
1287.6286833383328 10369.071540666297
1288.4628439807038 10434.198519140014
1289.2968001213521 10254.964881184738
1290.1305518173194 10340.09716731049
1290.9640991256183 10441.43955950696
1291.7974421032523 10326.617241584574
1292.630580807183 10149.450688012581
1293.463515294361 10366.633783228961
1294.29624562171 10502.838618862079
1295.12877184613 10209.710088994429
1295.961094024493 10281.31096412001
1296.79321221365 10267.540751301452
1297.6251264704333 10356.118044960629
1298.4568368516466 10658.680201153793
1299.2883434140658 10395.533029764923
1300.1196462144526 10133.416608662643
1300.9507453095375 10389.616637554265
1301.7816407560313 10259.821186612156
1302.6123326106172 10339.708934269138
1303.4428209299622 10099.690266292844
1304.2731057707024 10533.373835684422
1305.1031871894502 10256.59272898047
1305.933065242798 10331.12971744091
1306.7627399873181 10264.727893696772
1307.5922114795467 10688.157844079356
1308.4214797760123 10747.702535524095
1309.2505449332057 10362.163304795558
1310.0794070076026 10372.84298434162
1310.9080660556538 10574.45047737869
1311.736522133786 10656.038809980802
1312.5647752983987 10416.306386922965
1313.3928256058734 10241.393509703306
1314.2206731125661 10474.31520520541
1315.048317874809 10523.652882268232
1315.8757599489109 10416.837807836742
1316.7029993911547 10356.805549360968
1317.5300362578055 10573.402373738583
1318.356870605101 10307.49004083395
1319.183502489257 10441.246169787199
1320.0099319664623 10468.65361277453
1320.836159092889 10493.368316297365
1321.66218392468 10558.972563437643
1322.4880065179532 10409.958966255403
1323.3136269288134 10448.814067003665
1324.1390452133292 10619.090579134037
1324.9642614275563 10666.728502274853
1325.7892756275214 10473.629074402648
1326.6140878692295 10266.268805591913
1327.4386982086617 10750.91130490432
1328.2631067017755 10526.394868752785
1329.0873134045069 10561.575032950755
1329.911318372764 10476.077741245355
1330.735121662441 10439.036291810802
1331.558723329399 10332.34182389275
1332.3821234294774 10300.424503630342
1333.2053220185007 10282.071001714616
1334.0283191522612 10331.80547686156
1334.851114886529 10386.250508846855
1335.6737092770582 10216.975182799939
1336.4961023795695 10228.081806399836
1337.3182942497697 10132.538558427708
1338.1402849433325 10207.995346531025
1338.962074515921 9953.75832411582
1339.7836630231632 9943.142155081021
1340.6050505206676 10493.319882422733
1341.426237064028 10222.716676947424
1342.2472227088037 10014.233875466209
1343.0680075105338 9861.26344935284
1343.888591524741 9928.427965967696
1344.7089748069138 10256.621741844205
1345.5291574125276 9916.353174373131
1346.3491393970307 9790.73761253059
1347.168920815846 10059.303867038445
1347.9885017243778 10024.89229219992
1348.8078821780036 9842.705198587802
1349.6270622320844 9819.780235974964
1350.4460419419447 9695.200964929174
1351.2648213629054 9840.163184921419
1352.0834005502438 9612.093132716853
1352.90177955923 9623.215250409221
1353.7199584451064 9750.391784301191
1354.5379372630887 9681.035721157237
1355.355716068374 9570.03745841608
1356.1732949161305 9442.96486978804
1356.9906738615155 9630.742761703445
1357.8078529596478 9496.28923798939
1358.6248322656375 9671.462290901673
1359.441611834567 9529.505754063062
1360.2581917214866 9686.590720332588
1361.0745719814367 9439.934769582826
1361.890752669433 9454.560096874664
1362.7067338404577 9323.0137499507
1363.5225155494845 9496.026163476748
1364.3380978514506 9647.939231282322
1365.1534808012839 9244.158320560542
1365.9686644538815 9066.421167223965
1366.783648864117 9655.023551104015
1367.5984340868417 9550.501103894509
1368.413020176893 9454.000998135432
1369.2274071890715 9121.835204498739
1370.0415951781652 9549.53319240447
1370.8555841989346 9445.816803649033
1371.6693743061223 9151.688047771755
1372.48296555444 9142.689716501183
1373.2963579985844 9410.394083158959
1374.1095516932255 9415.100255575217
1374.9225466930166 9100.460915300511
1375.7353430525782 9313.092199709228
1376.5479408265164 9178.07678147361
1377.36034006941 9293.452550082131
1378.1725408358216 9341.176719345178
1378.9845431802805 9120.587484543705
1379.796347157304 9483.94535864175
1380.6079528213813 9273.878642285454
1381.4193602269788 9082.28830280529
1382.230569428546 8977.802074277526
1383.0415804805016 9298.978635133111
1383.852393437246 9204.647113098568
1384.6630083531563 9083.909203680047
1385.4734252825892 9013.989961797875
1386.2836442798798 9140.089436144279
1387.0936653993322 9133.330810868425
1387.9034886952395 9001.555206314059
1388.713114221864 9103.086654714867
1389.5225420334482 9093.600287473559
1390.331772184214 8966.989625693983
1391.1408047283585 8646.572729671958
1391.9496397200564 8879.665478794826
1392.758277213461 9071.827215261173
1393.5667172627054 9048.598319892322
1394.3749599218918 8801.592481298972
1395.1830052451114 8653.09948790412
1395.9908532864265 8766.498337141154
1396.7985040998774 9017.753346569878
1397.6059577394808 8753.217744741634
1398.4132142592352 8731.479573822948
1399.2202737131156 8778.116252679847
1400.027136155073 9020.109400722413
1400.8338016390353 8682.720561644248
1401.6402702189134 8620.569778683366
1402.446541948586 8744.762570985586
1403.2526168819204 8643.716017740164
1404.058495072757 8630.822951283168
1404.8641765749107 8666.900461633732
1405.6696614421799 8788.292430975074
1406.4749497283356 9166.06717532357
1407.280041487129 8613.247758506466
1408.084936772295 8530.84506021185
1408.8896356375335 8760.12287966225
1409.6941381365323 8781.256557292996
1410.498444322955 8493.079347168052
1411.3025542504402 8531.13647978452
1412.106467972606 8581.533504013601
1412.9101855430508 8636.088304616616
1413.7137070153458 8380.896966043483
1414.5170324430437 8513.109810914651
1415.320161879672 8708.249066152279
1416.1230953787435 8808.692949060074
1416.925832993742 8417.344870775398
1417.7283747781275 8263.508860849499
1418.5307207853439 8608.852652714308
1419.3328710688093 8485.555248287445
1420.134825681922 8235.386042888978
1420.9365846780584 8277.162609233868
1421.7381481105713 8586.839168071207
1422.539516032788 8472.30900864128
1423.3406884980232 8128.933774889294
1424.1416655595604 8120.099320051467
1424.942447270665 8327.508014578165
1425.7430336845828 8466.723543953012
1426.5434248545298 8159.959806029641
1427.3436208337116 8310.128864425384
1428.143621675301 8285.331183655297
1428.9434274324558 8392.586282291362
1429.7430381583108 8048.6869403576175
1430.5424539059713 8112.751641279514
1431.3416747285337 8605.225034310477
1432.1407006790632 8384.436998622496
1432.9395318106053 8263.406954677015
1433.7381681761835 8035.491162791089
1434.5366098288014 8364.983248743172
1435.3348568214424 8310.194906904353
1436.1329092070573 8195.657655597857
1436.9307670385879 8191.0899572561275
1437.7284303689503 8327.516671190064
1438.5258992510335 8331.034361955635
1439.3231737377118 8188.945360770852
1440.1202538818306 8149.718771433128
1440.9171397362225 8217.12654118659
1441.7138313536925 8178.460818613406
1442.5103287870243 7923.802636809256
1443.3066320889775 7924.281862026744
1444.1027413122956 8321.763895338807
1444.8986565096966 8011.113789807864
1445.694377733882 8023.5612489697405
1446.4899050375207 7869.970458655334
1447.2852384732687 8046.137149163433
1448.0803780937622 8012.5971409970025
1448.8753239516063 7947.010655224874
1449.6700760993954 7658.373470071216
1450.464634589689 7872.185087956408
1451.2589994750397 8225.565798689582
1452.0531708079689 7687.984549990429
1452.8471486409799 7783.02155442599
1453.6409330265524 8019.560479419655
1454.4345240171442 7687.802344156342
1455.2279216651987 7712.2938711928655
1456.0211260231263 7666.848660429529
1456.8141371433194 7965.372042475248
1457.6069550781594 7888.360322679553
1458.3995798799897 7513.860262002093
1459.1920116011424 7646.643175247815
1459.98425029393 7544.409593824438
1460.7762960106338 7482.034272205814
1461.5681488035225 7571.8270759737225
1462.3598087248392 7696.488265197533
1463.1512758268036 7840.397891572591
1463.942550161617 7486.0727259021105
1464.7336317814625 7509.1514819966715
1465.524520738496 7550.9384110070605
1466.3152170848552 7512.20097752085
1467.1057208726506 7636.421953345544
1467.8960321539817 7470.050314245977
1468.6861509809169 7339.48015388763
1469.4760774055085 7507.573936270538
1470.265811479785 7595.778174403425
1471.055353255755 7303.379035668266
1471.844702785409 7399.813536339107
1472.6338601207044 7383.710045977986
1473.4228253135934 7573.788733585568
1474.2115984159936 7249.569892722228
1475.0001794798063 7173.990523034365
1475.7885685569145 7408.023263943609
1476.576765699172 7402.718874965122
1477.3647709584238 7256.2576704965395
1478.1525843864802 7504.208727934309
1478.9402060351367 7446.822585529866
1479.7276359561693 7473.881793316953
1480.514874201328 7295.149717540114
1481.3019208223468 7135.939552008036
1482.0887758709323 7119.957416502247
1482.8754393987747 7517.072027090806
1483.6619114575406 7131.027171089287
1484.4481920988783 7289.139681264937
1485.2342813744108 7336.927999045789
1486.0201793357446 7519.465924373171
1486.8058860344572 7141.116368236091
1487.591401522117 7089.897323347739
1488.3767258502594 7158.056080315471
1489.1618590704056 7226.978843778988
1489.9468012340494 6940.6469036620165
1490.7315523926754 7261.071090273518
1491.5161125977356 7355.685524542956
1492.3004819006637 7263.886336633312
1493.084660352877 7053.835961113272
1493.8686480057622 7191.59539771428
1494.6524449106964 7479.159982818896
1495.4360511190262 7401.105736818179
1496.219466682087 7197.545803884881
1497.0026916511779 7202.8851158999405
1497.7857260775945 7218.39077912114
1498.5685700125996 7339.788674012093
1499.3512235074395 6948.343850250256
1500.133686613337 6995.53357596252
1500.9159593814966 7143.000171735759
1501.698041863101 7549.32973141748
1502.4799341093094 6962.161378497762
1503.2616361712662 6889.1880129304645
1504.043148100087 7260.711189781073
1504.8244699468742 7147.228771281353
1505.6056017626997 6967.767972908169
1506.3865435986281 6993.270877314806
1507.1672955056893 7136.172492284811
1507.9478575348967 6864.02867104667
1508.7282297372512 7327.07186684814
1509.5084121637192 6972.62276408702
1510.2884048652577 6961.1445891034655
1511.0682078927948 6895.623867474673
1511.8478212972423 6868.085081753705
1512.6272451294917 6947.173869349097
1513.4064794404076 6977.625846013917
1514.1855242808433 7087.74271201839
1514.9643797016215 6854.667410258917
1515.743045753552 6955.228806868266
1516.5215224874191 7105.297151804795
1517.2998099539836 6765.180727643415
1518.077908203999 6944.745476490427
1518.8558172881785 6809.361092880752
1519.633537257234 7118.245219035855
1520.4110681618404 6989.178674786151
1521.1884100526604 6883.418041988921
1521.9655629803365 6915.151136056343
1522.7425269954856 7007.497772428103
1523.5193021487103 7256.013471420158
1524.2958884905856 6632.960836924457
1525.0722860716687 6781.35792421688
1525.848494942502 6686.275427300943
1526.624515153595 6743.819771999488
1527.4003467554485 6830.255407808034
1528.175989798534 6873.726597471238
1528.9514443333064 6893.200843045333
1529.726710410203 7057.918254938857
1530.5017880796331 6727.452990282897
1531.276677391992 6726.863215489345
1532.0513783976457 7029.03486596103
1532.825891146953 6725.869314259793
1533.6002156902414 6769.9224490674915
1534.3743520778207 6729.297758048054
1535.1483003599806 6730.702684368911
1535.9220605869923 6770.642682075621
1536.6956328091019 6760.782005864845
1537.4690170765407 6681.300356299043
1538.242213439511 6782.523513245464
1539.015221948208 6570.856127674003
1539.78804265279 6599.343395341515
1540.560675603405 6396.032552082296
1541.3331208501804 6845.314916003697
1542.1053784432224 6853.553104507683
1542.8774484326168 6666.450508611109
1543.649330868422 6591.657083589586
1544.4210258006842 6556.60183931567
1545.1925332794308 6572.847665503645
1545.9638533546604 6607.6042229802215
1546.7349860763552 6477.236567851554
1547.5059314944829 6873.338176187576
1548.27668965898 6523.416507068778
1549.0472606197673 6505.884758661558
1549.817644426752 6434.392810079174
1550.5878411298072 6702.476145353018
1551.3578507787988 6601.252030505404
1552.1276734235635 6356.299711494112
1552.8973091139233 6568.128498102176
1553.6667578996767 6598.804399755046
1554.436019830604 6375.222411725675
1555.20509495646 6480.137348441971
1555.9739833269869 6366.237952413345
1556.7426849919011 6448.493694414536
1557.511200000903 6703.844457137692
1558.2795284036674 6508.704824603924
1559.0476702498509 6401.161992421501
1559.8156255890954 6606.15798214744
1560.5833944710157 6773.557325108644
1561.3509769452048 6394.787824147864
1562.1183730612447 6463.492074413214
1562.8855828686865 6391.650831809063
1563.6526064170703 6765.31523674059
1564.4194437559127 6419.147270752106
1565.1860949347047 6298.365571592827
1565.9525600029283 6671.808793970949
1566.7188390100328 6681.992532985287
1567.4849320054564 6280.258186065701
1568.250839038612 6253.481610673713
1569.0165601588997 6454.567392445932
1569.7820954156887 6457.891018770218
1570.5474448583373 6200.716104353845
1571.31260853618 6294.548455704835
1572.0775864985299 6077.116034250796
1572.8423787946813 6418.209881824623
1573.6069854739108 6280.825090213096
1574.371406585471 6407.412355756629
1575.1356421785986 6463.8624388150665
1575.899692302506 6228.463107224765
1576.6635570063845 6324.391640252092
1577.4272363394157 6287.050947692281
1578.190730350747 6242.856539496582
1578.9540390895163 6322.663657701288
1579.7171626048384 6048.740137049971
1580.480100945806 6056.174834467411
1581.2428541614918 6119.637020185014
1582.0054223009538 6183.0524791994485
1582.767805413223 6174.61104660604
1583.5300035473156 6192.909111565633
1584.292016752228 6340.826575848107
1585.0538450769309 6288.389151347346
1585.8154885703807 5955.5798165776605
1586.5769472815136 5830.680063159278
1587.3382212592405 6180.918828009731
1588.099310552463 6293.000075718619
1588.8602152100484 6260.958401460898
1589.6209352808564 6239.425016033259
1590.3814708137234 6087.809409303396
1591.14182185746 6172.038804861925
1591.9019884608679 6007.621415580297
1592.6619706727215 5777.75446650684
1593.4217685417734 6137.184740553459
1594.1813821167616 6173.971438293672
1594.9408114464022 5923.799260049682
1595.7000565793933 5813.229882031361
1596.459117564409 6141.73110412551
1597.2179944501113 5767.553411545281
1597.9766872851324 5773.319513333852
1598.735196118092 6024.186318248348
1599.4935209975883 6010.184640258691
1600.2516619721973 6115.8035795122905
1601.0096190904787 5939.2868261619815
1601.7673924009723 5871.480508173749
1602.524981952196 5741.724134295261
1603.2823877926476 5801.769219562811
1604.0396099708087 5713.842141635068
1604.7966485351371 5625.460836008113
1605.5535035340745 5687.31288877641
1606.3101750160404 5982.460781362091
1607.0666630294363 5645.802088208864
1607.822967622642 5546.988115157436
1608.5790888440224 5757.250833405435
1609.3350267419137 5849.158099746475
1610.0907813646445 5649.209970572485
1610.8463527605145 5601.295388922251
1611.601740977805 5784.665558068407
1612.356946064785 5597.714849582595
1613.1119680696902 5399.236222356422
1613.8668070407512 5510.880464639301
1614.6214630261748 5411.574118544706
1615.375936074137 5784.2131991477
1616.1302262328118 5539.345940611989
1616.8843335503425 5605.44656666798
1617.638258074854 5355.991200348542
1618.391999854457 5548.612034425223
1619.1455589372363 5688.349308975031
1619.8989353712623 5534.960472344588
1620.65212920458 5268.4558181435
1621.4051404852235 5288.090393595884
1622.1579692611976 5358.295761760527
1622.9106155804966 5132.439969490287
1623.663079491087 5259.171318284903
1624.4153610409248 5448.520666574462
1625.1674602779385 5236.831796265505
1625.9193772500403 5171.817308852343
1626.6711120051277 5470.178657085365
1627.4226645910676 5330.290303298984
1628.174035055721 5075.036487054322
1628.9252234469168 5230.466608385851
1629.676229812474 5185.694163801822
1630.4270542001905 5618.599535524602
1631.1776966578382 5217.009789075181
1631.9281572331747 5177.3997593728955
1632.678435973945 5302.612522950219
1633.4285329278573 5254.753425249162
1634.1784481426203 4935.291845453501
1634.9281816659113 4944.4561387875965
1635.677733545388 5343.637634646568
1636.4271038286934 4972.292506050577
1637.176292563452 5177.562376326289
1637.9252997972635 5049.863116561043
1638.674125577716 5168.526871411091
1639.4227699523672 5543.858678043149
1640.171232968767 4794.76441968704
1640.9195146744423 5072.04906580797
1641.6676151168977 5260.533549779408
1642.4155343436178 5186.4890533745765
1643.1632724020765 4968.734789435273
1643.9108293397167 4900.191916904335
1644.658205203974 4866.138001135752
1645.4054000422566 5476.79056640697
1646.1524139019566 4928.895826367448
1646.8992468304423 4770.087131394994
1647.6458988750728 4970.688300159947
1648.3923700831765 4906.393268567496
1649.1386605020743 4757.350799685946
1649.8847701790564 5000.447854347521
1650.6306991614038 5030.57980603737
1651.3764474963682 4979.541602801932
1652.1220152311944 4572.782576202124
1652.867402413096 4964.308980386939
1653.6126090892776 4976.47231800896
1654.3576353069184 5074.226762494618
1655.1024811131829 4862.212880094741
1655.8471465552066 4728.597550346877
1656.5916316801213 5074.957181903121
1657.3359365350298 4911.147184089368
1658.0800611670165 4876.502905295544
1658.824005623148 4909.936190806509
1659.5677699504722 4696.571311431714
1660.3113541960192 4876.070562844457
1661.054758406799 4766.851839328651
1661.7979826297997 4613.6479833396825
1662.5410269119966 4625.276497875842
1663.283891300338 4841.773302890968
1664.0265758417645 4590.749914017991
1664.7690805831826 4807.191692441743
1665.5114055714948 4823.702534678412
1666.2535508535748 5132.958578842351
1666.9955164762814 4393.119828390324
1667.7373024864555 4698.260181228709
1668.478908930916 4696.93578612075
1669.220335856462 4538.321528346215
1669.9615833098778 4465.963338691539
1670.7026513379296 4466.648543004591
1671.44353998736 4683.676830002342
1672.1842493048916 4609.249487881842
1672.9247793372379 4547.142541159107
1673.6651301310812 4452.545392658523
1674.4053017330934 4507.369692454561
1675.1452941899242 4562.613320352037
1675.885107548207 3992.9756627300144
1676.6247418545518 4163.940933122889
1677.3641971555535 4240.50776412272
1678.1034734977893 4460.4280629758805
1678.8425709278108 4355.144153785002
1679.5814894921605 4610.816636895157
1680.320229237359 4490.480855788303
1681.0587902098978 4587.783315631581
1681.7971724562685 4259.50644200279
1682.5353760229264 4111.56518461981
1683.2734009563173 4424.1115008924835
1684.0112473028657 4084.900500314645
1684.7489151089794 4357.485359256185
1685.4864044210462 4468.015129638283
1686.2237152854377 3959.415031779514
1686.960847748498 4419.644325302537
1687.6978018565642 4138.7360732394645
1688.434577655944 4064.0747146623917
1689.1711751929379 3951.7113098599416
1689.9075945138156 4273.334115437706
1690.6438356648396 4151.559490801972
1691.3798986922448 3694.906802150691
1692.1157836422499 4134.790889760374
1692.851490561059 4001.8074764423545
1693.587019494853 4059.3020783511975
1694.3223704897991 3808.016063993016
1695.0575435920364 3680.251598548007
1695.792538847696 4193.302671506951
1696.527356302886 3960.089028207842
1697.2619960036936 3747.800890484791
1697.9964579961907 3846.155846806226
1698.730742326432 3467.6526365195336
1699.4648490404488 3551.484136045167
1700.1987781842563 3709.4582056877493
1700.9325298038548 4097.081059338933
1701.6661039452174 4065.7847596163037
1702.3995006543082 3884.160045905345
1703.1327199770658 4011.5794582932926
1703.865761959416 3416.3415279142923
1704.598626647261 4089.608855130763
1705.3313140864866 3642.57274169482
1706.0638243229587 3672.2261169068342
1706.7961574025303 3952.65796523792
1707.528313371029 3799.6664570675493
1708.260292274268 3540.6602903161097
1708.9920941580403 3796.878255289396
1709.7237190681226 3847.5917858747525
1710.4551670502697 3758.979560805986
1711.18643815022 3481.255821486243
1711.9175324136959 4045.534623753351
1712.6484498863938 3709.8533364940827
1713.379190614005 3520.093076801829
1714.109754642188 3596.073305564364
1714.8401420165883 3612.2785796314356
1715.570352782839 4257.038000563502
1716.3003869865497 3739.9208496088986
1717.0302446733076 3506.4765816760832
1717.7599258886876 3652.049141398672
1718.4894306782444 3984.3583367405154
1719.2187590875183 3435.128127309279
1719.9479111620203 3749.757146112776
1720.6768869472544 3527.752889897063
1721.4056864887025 4039.939983694375
1722.1343098318284 3889.805316611132
1722.8627570220742 3653.9185043503335
1723.591028104871 3427.3437069898914
1724.3191231256242 3410.653037451896
1725.0470421297232 3679.4692093936915
1725.7747851625427 3724.940436493757
1726.5023522694337 3718.2173600317997
1727.2297434957363 3689.373629144956
1727.9569588867635 3350.547510575743
1728.6839984878152 3681.748719733331
1729.4108623441734 3108.072837689008
1730.1375505011038 3662.702733078836
1730.8640630038426 3438.8640938611616
1731.5903998976264 3472.2645813661934
1732.316561227657 3612.921243442071
1733.0425470391274 3307.0717979066058
1733.7683573772065 3477.9733364933186
1734.4939922870508 3501.16497691679
1735.2194518137949 3530.393416192349
1735.9447360025606 3582.3401975663282
1736.669844898439 3439.7524135210383
1737.3947785465189 3373.6741933140192
1738.1195369918605 3309.4655189169985
1738.8441202795093 3624.7431944408536
1739.5685284544943 3566.9610502816395
1740.292761561821 3569.3409366318165
1741.0168196464838 3611.3772509278156
1741.7407027534518 3622.73689830156
1742.464410927687 3399.493854303564
1743.187944214118 3430.0372918566254
1743.9113026576688 3320.29645764446
1744.634486303241 3379.656282205868
1745.3574951957125 3393.205789703832
1746.0803293799509 3541.6987528016716
1746.8029889008048 3422.548042401321
1747.5254738031017 3521.540494268461
1748.2477841316504 3268.7785689595416
1748.969919931249 3297.566296858121
1749.6918812466665 3381.316071630895
1750.4136681226646 3618.556461379934
1751.1352806039777 3319.200029474278
1751.856718735331 3123.291119792362
1752.5779825614281 3098.7357746520606
1753.2990721269507 3466.9272554095296
1754.0199874765676 3393.026656895955
1754.7407286549314 3170.8193395807893
1755.4612957066693 3263.1555684112723
1756.1816886763954 3122.659853690451
1756.9019076087097 3469.29650777544
1757.6219525481865 3400.7189778432853
1758.3418235393856 3452.9691416323976
1759.061520626854 3434.483656108327
1759.7810438551096 3499.5864157865863
1760.5003932686614 3224.4505986971285
1761.2195689119999 3502.7477027798304
1761.938570829594 3393.0453869022044
1762.657399065898 3288.1403183028838
1763.376053665348 3116.5674081184025
1764.0945346723602 3089.656943907084
1764.812842131334 3552.264839497061
1765.5309760866512 3137.9610947905103
1766.2489365826787 3070.6564273519894
1766.9667236637597 3327.579387746514
1767.684337374223 2930.567687486881
1768.401777758383 2918.59091820405
1769.1190448605284 3114.014428408006
1769.836138724937 3077.0698485853254
1770.5530593958665 3321.6449484059
1771.2698069175603 3557.249775339056
1771.9863813342326 3337.082811307825
1772.702782690094 3113.089027728342
1773.4190110293293 3292.2460151035584
1774.1350663961111 3346.2990376481307
1774.8509488345844 3091.3673883567963
1775.5666583888924 3253.4055117223006
1776.2821951031437 3498.6147769077966
1776.9975590214362 3187.5643130924063
1777.7127501878585 3403.4279585026097
1778.4277686464684 3391.5102072161085
1779.1426144413108 3460.7133984774346
1779.8572876164162 3408.335334918412
1780.571788215797 3009.26588298007
1781.2861162834415 3229.950693285971
1782.0002718633277 3144.6838735559954
1782.7142549994132 3232.347190056913
1783.4280657356376 3315.22886686314
1784.141704115922 3108.464490996385
1784.855170184177 3170.774629435396
1785.5684639842839 3243.4776506018184
1786.2815855601148 2775.2444394806253
1786.9945349555237 3225.470440508175
1787.707312214343 2993.8798430079482
1788.4199173803918 2985.3876308338035
1789.132350497468 2977.1403974582513
1789.8446116093583 3101.081917330127
1790.556700759822 3052.3796497643343
1791.2686179926077 3021.5965275072394
1791.9803633514493 3044.56195491772
1792.6919368800554 2847.3514898818185
1793.4033386221236 3255.42893648771
1794.1145686213295 3307.971542905273
1794.8256269213307 3458.7469232110307
1795.536513565774 3255.981853589061
1796.247228598284 2906.841337670764
1796.9577720624693 2977.9815392291994
1797.6681440019165 3188.8948078437015
1798.3783444602013 3088.45023175036
1799.0883734808776 3185.2431429371018
1799.7982311074884 3152.682215092202
1800.5079173835475 3174.2969170605843
1801.2174323525633 3231.233485177781
1801.9267760580187 3089.867101844159
1802.635948543386 3163.021537080428
1803.3449498521113 2988.083836848839
1804.0537800276325 3193.4888256266286
1804.7624391133668 3045.5977325045537
1805.47092715271 2818.02101778403
1806.1792441890484 2916.023950382021
1806.8873902657433 3108.8073801552696
1807.5953654261448 3114.317806655757
1808.3031697135812 2981.1434645795425
1809.0108031713662 2842.780601390924
1809.71826584279 3083.522319178492
1810.425557771141 3068.902609891601
1811.1326789996747 3533.9002972357193
1811.839629571632 3013.274374930801
1812.5464095302468 3003.0983523728196
1813.2530189187182 3096.227298736033
1813.959457780249 2994.889489747816
1814.6657261580076 3204.8619161874076
1815.371824095153 3085.9237724893073
1816.0777516348262 3121.5460330754595
1816.78350882015 2750.1342215471586
1817.4890956942272 2865.288067616032
1818.1945123001533 2867.6688543589235
1818.8997586809928 2994.877586595224
1819.6048348798067 2864.176611324766
1820.3097409396287 3004.0537395894194
1821.0144769034796 3400.6245208838395
1821.7190428143622 3210.0128912543228
1822.423438715261 3201.2148941192395
1823.1276646491478 2915.9521732528397
1823.8317206589727 3046.159639396611
1824.5356067876692 3073.817936882422
1825.2393230781581 3137.5507894414377
1825.942869573335 2789.3872000227466
1826.646246316086 2821.9356708531313
1827.3494533492758 2965.5246662808795
1828.052490715756 3136.14843470335
1828.7553584583547 2945.9883172476366
1829.458056619891 3107.6011830428847
1830.1605852431585 2779.4497420215353
1830.8629443709433 2796.491122091386
1831.5651340460063 2939.224751527271
1832.2671543110919 2727.3620678088073
1832.9690052089318 3135.3631522418073
1833.6706867822395 2865.5451638790882
1834.3721990737104 2996.7989676573666
1835.0735421260233 3143.862634107806
1835.774715981841 2876.3033422917692
1836.4757206838058 3177.2216463401355
1837.1765562745459 2907.9699454251754
1837.8772227966747 2648.03382273502
1838.5777202927839 2898.0434743362393
1839.2780488054523 2829.704210217375
1839.9782083772352 2901.8121829392835
1840.6781990506806 3290.1231728211073
1841.378020868313 2899.8516345277067
1842.0776738726418 2953.5804159493937
1842.777158106157 2811.302933387414
1843.4764736113375 2905.160648975637
1844.1756204306403 3108.670294633079
1844.8745986065078 2978.496933699829
1845.5734081813607 2881.640250052974
1846.2720491976124 2843.5238469508167
1846.970521697649 2748.4223103692493
1847.6688257238511 2914.9206260731903
1848.3669613185684 2846.7676570744866
1849.0649285241452 2621.610091243008
1849.7627273829057 3042.0488375123396
1850.460357937156 2841.7255380823694
1851.1578202291857 2696.3779497539304
1851.8551143012664 2861.6675384086657
1852.5522401956569 2853.5709343601984
1853.2491979545957 3154.322540084801
1853.9459876203055 2728.8783130589572
1854.6426092349902 2629.286108452232
1855.3390628408451 2788.5923366052853
1856.0353484800362 3055.349169559183
1856.7314661947203 3034.314699713371
1857.4274160270397 2649.5753343543993
1858.123198019115 2866.130500346463
1858.8188122130487 2588.8695353079647
1859.5142586509319 2883.6487888559286
1860.209537374838 2842.556895827423
1860.9046484268183 2780.5499312919505
1861.599591848917 3110.7961090021154
1862.294367683151 2694.375859430114
1862.988975971528 2751.9759119326936
1863.6834167560355 3004.50699538563
1864.3776900786452 3036.235731630965
1865.0717959813119 2725.6105071065567
1865.7657345059724 2697.059987564248
1866.4595056945564 2855.2521465432055
1867.1531095889586 2939.5620989786703
1867.846546231076 2661.4381069990677
1868.5398156627743 3101.8956096682973
1869.2329179259123 2815.6838820770645
1869.9258530623283 3000.3499662083805
1870.618621113843 2652.9923073761925
1871.3112221222636 2636.714987525832
1872.0036561293764 2658.9737691223286
1872.695923176956 2826.233353097445
1873.3880233067594 2964.689562025651
1874.0799565605212 2620.0931055510937
1874.7717229799673 2882.8716133197836
1875.4633226068036 3064.120787857481
1876.1547554827175 2951.891646515894
1876.8460216493859 2732.642642117154
1877.5371211484617 2795.852276012957
1878.2280540215852 2914.866926709874
1878.9188203103804 2589.6479045347346
1879.6094200564548 2856.5634490136667
1880.299853301396 2666.372066692292
1880.9901200867826 2968.2877933229806
1881.6802204541673 2806.2386496502645
1882.3701544450942 2938.9121705037037
1883.059922101087 2607.562886164639
1883.7495234636517 3061.4253488101044
1884.4389585742792 2719.807524616846
1885.1282274744517 2539.8600415786887
1885.8173302056166 3261.10060006707
1886.506266809225 2903.7092230979597
1887.195037326701 2485.1570905540834
1887.8836417994517 2708.470045090503
1888.5720802688702 3002.7974803411034
1889.260352776333 2958.5089716016623
1889.9484593632042 3041.3790990992193
1890.63640007082 2686.2176106193097
1891.3241749405151 2524.2648965929707
1892.0117840135954 2860.273205365438
1892.6992273313572 2751.2589058376166
1893.3865049350788 2580.9030076021577
1894.0736168660223 3111.205549960675
1894.7605631654333 2829.034620083436
1895.4473438745408 2486.82682507925
1896.133959034556 3128.7917680380556
1896.820408686679 2832.966009020189
1897.506692872088 3196.7147739121847
1898.192811631945 2799.23293395439
1898.8787650073991 2653.525907643517
1899.5645530395832 2949.1369597846906
1900.2501757696118 2928.492750580097
1900.9356332385796 2678.856967373923
1901.620925487574 3176.035898360026
1902.3060525576602 2916.671385752963
1902.9910144898859 2883.1792261253117
1903.6758113252872 2635.2223549770342
1904.3604431048789 2818.2703861249975
1905.0449098696663 2895.179235120546
1905.7292116606295 2706.833656475196
1906.4133485187394 2772.837993178802
1907.0973204849488 2452.2384936092276
1907.7811276001976 2564.6802063353066
1908.4647699053967 2790.8680509002515
1909.1482474414588 2216.8417681798865
1909.8315602492694 2606.2944381367715
1910.5147083696957 2869.53470997123
1911.1976918436012 2716.548059521862
1911.880510711815 2473.9157360526506
1912.5631650151681 2967.5210485654216
1913.2456547944657 2623.152979142136
1913.927980090495 2703.3945546492955
1914.6101409440362 2668.39469539195
1915.2921373958416 2781.1344127318816
1915.9739694866603 2752.680982943958
1916.655637257214 3085.864551507123
1917.3371407482136 2776.2797026361013
1918.0184800003572 2946.0255934134857
1918.6996550543154 2899.96348170677
1919.3806659507554 2729.4129536497658
1920.0615127303208 2833.2387593979684
1920.7421954336423 2982.5556555941066
1921.4227141013343 2947.008895545138
1922.103068773993 2763.548412666746
1922.783259492202 2948.2969442468993
1923.4632862965227 2690.3126540228586
1924.1431492275078 2624.00629200734
1924.8228483256917 2609.008677397928
1925.5023836315922 2663.1341715776807
1926.1817551857057 2312.3655068725056
1926.8609630285227 3023.236858567324
1927.5400072005123 2826.6732794373943
1928.218887742125 2683.252320488832
1928.8976046938005 2543.4776846206423
1929.5761580959588 2883.668131649186
1930.2545479890086 2732.912267917722
1930.9327744133352 2418.4316086335675
1931.6108374093164 2573.7150277746896
1932.2887370173066 2443.4727395102645
1932.9664732776473 2312.8668079754834
1933.6440462306673 2735.6223137736724
1934.3214559166754 2574.141261945682
1934.9987023759659 3064.149851979507
1935.675785648813 2816.3412082459245
1936.3527057754836 2896.5460197345046
1937.029462796223 2976.9501205021033
1937.70605675126 2588.685586817199
1938.3824876808085 2510.6892272042846
1939.058755625072 2711.5953832793157
1939.7348606242267 2589.804637786205
1940.4108027184448 2628.106086243893
1941.0865819478713 2885.320453199357
1941.7621983526478 2656.160548545387
1942.4376519728921 2562.452069910783
1943.1129428487038 2737.9226546703494
1943.7880710201734 2901.2429104637995
1944.4630365273733 2827.485036857148
1945.1378394103576 2373.511861737753
1945.8124797091714 2394.202386626489
1946.4869574638324 2414.850259119077
1947.161272714353 2616.8404502271046
1947.8354255007234 2759.272945591599
1948.5094158629272 2553.0028158173836
1949.1832438409183 2681.05605630465
1949.8569094746435 2874.20469079987
1950.530412804037 3074.4749873298065
1951.2037538690092 2815.320869144986
1951.8769327094578 2595.4738841542894
1952.5499493652678 2692.913096081581
1953.222803876306 2984.893616240627
1953.895496282421 2736.097687216652
1954.5680266234522 2720.524072101622
1955.2403949392155 2763.284294588663
1955.9126012695142 2484.2071932828208
1956.5846456541403 2651.6683729862843
1957.2565281328643 2561.6005384636765
1957.9282487454457 2842.7885891000183
1958.5998075316202 2782.26009704992
1959.27120453112 2545.619327979712
1959.9424397836501 2701.3977940590603
1960.613513328908 2798.6554029446866
1961.2844252065697 2962.7489624874806
1961.9551754563017 2418.2578695029915
1962.6257641177453 2644.9931036320154
1963.29619123054 2388.259836827841
1963.966456834296 2478.302339549662
1964.6365609686181 2502.4149261298867
1965.306503673086 2717.520684016251
1965.976284987275 2451.946647661447
1966.645904950734 2641.4828697314197
1967.315363603002 2218.6205667860772
1967.9846609836077 2588.597839427778
1968.6537971320486 2557.986204194188
1969.3227720878222 2753.3607478274653
1969.9915858904042 2553.7186435568956
1970.660238579252 2854.944204293101
1971.3287301938108 2599.077966183579
1971.997060773514 2453.0058074987032
1972.665230357772 2438.679902016694
1973.3332389859843 2525.622080903975
1974.0010866975335 2459.307172017087
1974.6687735317864 2714.3907007330763
1975.3362995280932 2729.6575806949477
1976.003664725793 2790.537340755773
1976.6708691642052 2330.2650467196386
1977.3379128826364 2556.7265706935536
1978.004795920373 2817.164680164543
1978.6715183166925 2942.3096727015127
1979.3380801108524 2300.052906226687
1980.0044813420973 2653.509394317348
1980.6707220496555 2225.0899964359005
1981.3368022727373 2549.3266306651863
1982.0027220505417 2779.315732450349
1982.66848142225 2214.52412344308
1983.3340804270283 2383.8911635053255
1983.999519104027 2714.0753485094833
1984.6647974923835 2721.8425967382645
1985.329915631215 2778.8154254603005
1985.99487355963 2519.0977272814102
1986.6596713167146 2795.1797152178233
1987.3243089415428 2536.7773384529332
1987.9887864731754 2794.02653147114
1988.6531039506553 2472.5067370161355
1989.3172614130071 2475.6297665427473
1989.9812588992481 2478.797152295214
1990.645096448372 2230.1127767265675
1991.3087740993633 2544.0049238836177
1991.9722918911848 2614.2522868669566
1992.635649862792 2579.1583261933624
1993.2988480531185 2674.0226467372713
1993.9618865010852 3105.594745385518
1994.6247652455968 2534.9558859183326
1995.287484325545 2427.7059534883088
1995.9500437798033 2489.611576059403
1996.6124436472292 2470.0853765766665
1997.2746839666706 2760.282851928717
1997.936764776954 2700.180335173789
1998.598686116895 2400.136491908041
1999.2604480252903 2820.4860356370796
1999.9220505409212 2741.5471713047295
2000.5834937025593 2415.527797621441
2001.2447775489582 2639.2677289488797
2001.9059021188514 2514.0161037959074
2002.5668674509616 2297.5883069786823
2003.2276735839987 2465.4854383892466
2003.8883205566508 2862.7061549100595
2004.5488084075987 2451.3427405387865
2005.2091371755014 2465.431814533434
2005.8693068990033 2332.716892702825
2006.5293176167397 2307.672684882388
2007.1891693673224 2282.7941321056956
2007.848862189354 2290.237381678085
2008.5083961214223 2406.950569501166
2009.1677712020955 2460.6680516494303
2009.8269874699254 2343.9381436956073
2010.4860449634598 2323.4827598970924
2011.1449437212177 2303.1107248316334
2011.8036837817108 2841.50406133856
2012.4622651834325 2770.2537141488056
2013.1206879648653 2543.7514582495787
2013.7789521644736 2351.8033344772693
2014.4370578207036 2712.924130775044
2015.0950049719922 2561.703771981254
2015.7527936567585 2832.376380919092
2016.4104239134067 2595.694063892012
2017.067895780323 2902.9868701438204
2017.725209295886 2891.1699405814416
2018.3823644984514 2879.2497284386
2019.0393614263648 2637.814523258408
2019.6962001179545 2436.1056913621624
2020.3528806115355 2796.183141022813
2021.0094029454067 2528.0276792145505
2021.6657671578487 2448.2090909705757
2022.321973287133 2559.6843563927578
2022.9780213715148 2297.8088048648256
2023.6339114492293 2458.9778652334617
2024.2896435585026 2434.932102414784
2024.9452177375442 2590.6427415398425
2025.600634024544 2831.0602177040087
2026.2558924576842 2544.3588517149033
2026.9109930751292 2808.3272656913764
2027.565935915025 2463.205697502305
2028.2207210155066 2871.169724197106
2028.8753484146964 2932.558708022823
2029.529818150695 2765.3532548388353
2030.1841302615903 2597.4267714334287
2030.8382847854573 2444.0504461943324
2031.4922817603601 2587.501138771044
2032.1461212243357 2482.400735165649
2032.7998032154192 2236.3670663791586
2033.4533277716218 2427.4956491499997
2034.1066949309443 2389.096486805567
2034.7599047313688 2348.2175327677996
2035.4129572108704 2651.5863968594463
2036.0658524074006 2543.453134687933
2036.7185903589016 2586.179725079505
2037.3711711032956 2701.8945443183015
2038.023594678496 2452.5734956063957
2038.675861122394 2337.8559478561083
2039.3279704728757 2370.835451391931
2039.9799227678031 2404.108317350575
2040.6317180450278 2352.778084517209
2041.2833563423865 2554.577497921445
2041.9348376977014 2752.42347197557
2042.5861621487784 2596.632777673175
2043.2373297334088 2538.3663466531366
2043.8883404893695 2548.9253201452816
2044.5391944544208 2643.0252207812982
2045.1898916663158 2704.6156109941194
2045.8404321627804 2827.581863435299
2046.4908159815368 2324.6543780234842
2047.1410431602853 2438.1222359548383
2047.7911137367173 2334.1130964274207
2048.441027748504 2698.625856266549
2049.090785233302 2306.0804561134346
2049.7403862287592 2339.6621057459147
2050.389830772503 2283.458452185302
2051.0391189021466 2227.2663378815637
2051.688250655294 2500.4882512651143
2052.337226069527 2202.7986374104394
2052.986045182417 2630.876940602203
2053.634708031521 2136.1427833839853
2054.283214654375 2717.367285638356
2054.931565088511 2151.0647211972228
2055.579759371436 2291.846170857865
2056.2277975406523 2606.810553461187
2056.8756796336384 2855.2993250751315
2057.5234056878617 2166.665710860073
2058.1709757407752 2443.952669918065
2058.8183898298194 2776.6184559778803
2059.465647992416 2644.6673998379047
2060.1127502659747 2708.48478212861
2060.759696687888 2238.5011633777635
2061.4064872955405 2607.0756996014993
2062.053122126292 2273.6674402849812
2062.699601217497 2500.8929899023615
2063.345924606485 2260.606157714819
2063.992092330587 2532.4891030920803
2064.638104427102 2284.921825607165
2065.283960933324 2717.260553371118
2065.92966188653 2521.9115148465694
2066.5752073239855 2657.069696108752
2067.2205972829397 2235.353438587374
2067.86583180062 2616.1846368466095
2068.5109109142522 2417.124664037196
2069.15583466104 2444.4285382848334
2069.8006030781708 2304.352235308652
2070.445216202821 2332.760132494181
2071.089674072153 2497.958669413209
2071.7339767233116 2669.010731127727
2072.3781241934303 2451.1882625206936
2073.0221165196253 2621.310247176005
2073.6659537390024 2297.181997183518
2074.3096358886505 2573.8511779111145
2074.953163005637 2268.9622353274012
2075.596535127028 2145.6705617382563
2076.2397522898664 2302.7408269617226
2076.882814531182 2552.8114882390646
2077.5257218879924 2523.5016648920764
2078.1684743973 2267.0239476492247
2078.8110720960885 2232.850365961697
2079.453515021336 2353.048440343674
2080.095803209997 2473.32143064938
2080.7379366990135 2442.4601895173955
2081.37991552532 2586.3463888701294
2082.0217397258275 2600.298102247938
2082.6634093374414 2350.61513935692
2083.3049243970418 2384.1758535876475
2083.9462849415067 2687.693660742929
2084.587491007689 2510.769409674176
2085.2285426324324 2385.7298477482223
2085.869439852564 2535.628900956408
2086.510182704902 2197.8257477250345
2087.1507712262483 2516.8986129239483
2087.791205453381 2219.0029343741853
2088.4314854230743 2582.599153334266
2089.0716111720867 2494.203898717687
2089.7115827371617 2102.570836115933
2090.351400155023 2172.3835764056953
2090.991063462385 2242.430817041887
2091.6305726959527 2071.0930206830917
2092.2699278924047 2185.7064820892256
2092.9091290884153 2300.6436900465255
2093.548176320641 2273.9378340308144
2094.187069625721 2643.6660059276032
2094.8258090402887 2166.530630286807
2095.464394600951 2561.5695299069093
2096.102826344313 2432.974115407739
2096.741104306955 2614.2316272375733
2097.379228525453 2239.6438356697304
2098.017199036358 2519.394727067628
2098.6550158762147 2290.5746178771833
2099.2926790815527 2603.3956869908907
2099.9301886888825 2431.387711476775
2100.5675447347076 2332.2884531511336
2101.2047472555114 2751.4208406374696
2101.841796287761 2413.0799125229223
2102.47869186792 2569.8668615742868
2103.1154340324265 2333.9569312613285
2103.752022817709 2445.868860702314
2104.388458260184 2424.7517787453567
2105.024740396251 2421.4858213344587
2105.660869262292 2369.3415014161033
2106.296844894685 2659.8326626876747
2106.93266732978 2408.2951220424648
2107.5683366039284 2295.0686626326064
2108.2038527534532 2386.550986375868
2108.8392158146726 2447.1087639604466
2109.4744258238843 2340.8693503888126
2110.1094828173755 2385.963331738583
2110.744386831422 2708.2491239566652
2111.3791379022787 2397.0197427027756
2112.01373606619 2699.70289972424
2112.648181359389 2455.371124759234
2113.28247381809 2462.2065714628793
2113.916613478492 2405.922759011167
2114.550600376786 2452.555800884817
2115.1844345491445 2528.327917595253
2115.818116031729 2183.167594184186
2116.451644860679 2390.0621075917625
2117.085021072133 2149.835347667472
2117.718244702204 2367.853772798473
2118.3513157869984 2328.446898223083
2118.984234362604 2169.067540896174
2119.617000465092 2260.132486445159
2120.249614130529 2665.9485190133432
2120.8820753949585 2348.2463790457673
2121.5143842944162 2313.391188489316
2122.14654086492 2310.5437869229413
2122.7785451424734 2553.643753154716
2123.4103971630702 2098.9103168964293
2124.042096962681 2647.017292374257
2124.6736445772767 2518.5416510741948
2125.305040042802 2234.2653640030953
2125.936283395191 2517.9831599901167
2126.567374670365 2471.7600725189745
2127.198313904233 2278.9218769048666
2127.8291011326855 2242.968823335737
2128.4597363916037 2206.6740063833868
2129.0902197168507 2336.6619909558426
2129.720551144279 2169.272032482686
2130.3507307097225 2604.1125021023877
2130.980758449008 2654.375373135437
2131.6106343979427 2112.392650786599
2132.2403585923203 2581.277104533214
2132.8699310679276 2703.622403219343
2133.499351860526 2641.2535963586265
2134.1286210058715 2328.99562521348
2134.7577385397053 2060.2332067827583
2135.3867044977487 2582.8502866336366
2136.0155189157176 2744.6209459490956
2136.644181829308 2677.6401669596203
2137.2726932742025 2226.028750171786
2137.901053286074 2183.29659078603
2138.5292619005777 2140.5872027269347
2139.1573191533535 2210.3039617100308
2139.7852250800315 2424.7945546356227
2140.4129797162295 2527.7126736368327
2141.0405830975433 2076.583002487212
2141.6680352595613 2132.1480320165406
2142.2953362378576 2187.8437847965865
2142.9224860679915 2210.1885650095473
2143.549484785508 2235.113910140338
2144.1763324259373 2462.6075675006823
2144.803029024799 2302.7547645978984
2145.429574617594 2197.0240994234373
2146.0559692398165 2558.0340217297357
2146.682212926942 2194.1367085953025
2147.308305714432 2325.247006169113
2147.9342476377333 2563.217749221296
2148.5600387322847 2722.5096204799916
2149.185679033506 2498.781674304065
2149.8111685768017 2246.8909785292585
2150.4365073975678 2126.1808760486037
2151.061695531187 2284.997681574381
2151.686733013021 2643.606532189007
2152.311619878423 2549.1419641114107
2152.9363561627342 2399.470845364097
2153.560941901278 2444.812610117465
2154.1853771293663 2490.0270546507572
2154.809661882293 2249.419419522694
2155.433796195348 2699.192403488497
2156.0577801037944 2613.905833905285
2156.681613642895 2528.2713660145114
2157.3052968478896 2203.8231921431425
2157.928829754006 2458.1065328806735
2158.552212396462 2585.234102106843
2159.1754448104566 2259.3532135990686
2159.7985270311783 2157.558152016135
2160.4214590938027 1791.5325513451157
2161.0442410334927 1831.6273305712518
2161.6668728853874 1965.5692050582827
2162.289354684628 2099.8346597621253
2162.911686466332 2301.004147628826
2163.533868265602 2497.3170015697087
2164.1559001175337 2769.0570026877685
2164.7777820572046 2507.998130852141
2165.399514119681 2352.8865211706957
2166.021096340013 2155.9324411954885
2166.6425287532384 2074.4331497786366
2167.263811394385 1992.9188392273668
2167.8849442984574 2570.5166007612843
2168.505927500455 2275.9000418421383
2169.126761035366 2364.678314166914
2169.7474449381552 2260.459387145148
2170.367979243778 1942.804520258375
2170.9883639871823 2565.3686359897874
2171.608599203293 2043.9577513970848
2172.2286849270276 2957.473269831
2172.8486211932886 2979.8333587235043
2173.4684080369625 2394.709640251157
2174.0880454929265 1887.1633357101025
2174.7075335960417 1944.99182765179
2175.3268723811543 1987.7565729456364
2175.9460618831 2030.6577859436875
2176.565102136701 2185.757642486752
2177.1839931767627 2185.3071752771452
2177.802735038078 2184.886904314989
2178.421327755432 2062.653453299882
2179.0397713635866 2230.6454009898443
2179.658065897298 2253.5109590771094
2180.276211391305 2327.1023332176414
2180.8942078803357 2327.167241818075
2181.5120553991 2502.594991006613
2182.129753982299 2479.23448363158
2182.7473036646206 2455.83343227961
2183.3647044807367 2291.999922057966
2183.9819564653044 2096.9243111059827
2184.599059652968 2381.04551603442
2185.216014078367 2568.7776244673823
2185.832819776113 2590.802932378587
2186.4494767808137 2612.732283159507
2187.065985127063 2168.884039250479
2187.682344849436 2202.164874342997
2188.298555982501 2681.4446768143234
2188.9146185608097 2288.7355255329467
2189.530532618901 2448.1312446283746
2190.1462981912937 2348.1599698596438
2190.761915312507 2409.995190760538
2191.377384017036 2369.913783099498
2191.9927043393654 2306.6994938576563
2192.6078763139667 2568.154304777864
2193.2228999753006 1998.5225846015096
2193.837775357808 2217.916705976248
2194.452502495922 2023.1286271559893
2195.0670814240602 2318.3287755223473
2195.6815121766285 2013.521443112781
2196.2957947880186 2009.3716354393077
2196.9099292926057 2005.220444195757
2197.523915724758 2297.4885392274678
2198.137754118825 2198.041574755138
2198.7514445091456 2534.0275189758686
2199.3649869300443 2738.401080939032
2199.9783814158327 2943.3669863813075
2200.5916280008096 2692.444047607392
2201.2047267192593 2637.6306100166266
2201.8176776054515 2230.4823661041546
2202.430480693649 2102.805606050935
2203.0431360180955 2512.875953587597
2203.6556436130195 2549.5942642800746
2204.268003512645 1874.1570628821398
2204.8802157511727 2179.700647859298
2205.492280362796 2603.638769962241
2206.1041973816937 2380.6632996953304
2206.715966842032 2232.7346098223325
2207.3275887779655 2422.647610867964
2207.93906322363 2386.4865883672055
2208.550390213153 2462.501499993078
2209.1615697806465 2481.9018223306366
2209.7726019602105 2113.144471265433
2210.3834867859277 2028.5259672161003
2210.9942242918787 2132.7318751156563
2211.6048145121167 2221.297771124085
2212.2152574806914 2968.407767880486
2212.825553231638 2207.6195763934156
2213.435701798975 3123.912442355031
2214.045703216707 2316.1929218045893
2214.655557518832 1822.1535864074085
2215.2652647393297 1968.3861833818423
2215.874824912169 1821.4180460524854
2216.4842380713 2336.441194376942
2217.09350425067 1899.7547092434766
2217.7026234842033 2554.5329040387883
2218.311595805819 2452.209646115428
2218.9204212494133 2098.1974843915464
2219.52909984888 2655.242544710775
2220.137631638092 1919.6544019543203
2220.7460166509154 2513.1944087344473
2221.354254921198 2152.8360089369826
2221.9623464827764 2088.825223451154
2222.5702913694713 2181.2618894109046
2223.178089615096 2086.955144175098
2223.7857412534486 1992.4733884422294
2224.39324631831 1955.4238364809103
2225.000604843457 2166.2521452587675
2225.607816862641 2624.122070117206
2226.214882409611 2405.2603750261474
2226.8218015180973 2566.0088964237534
2227.4285742218217 2100.5628498273695
2228.0352005544864 2185.746075931816
2228.6416805497847 1830.7662764748432
2229.248014241399 1979.4905579126298
2229.8542016629945 1986.3328875080588
2230.460242848223 2468.8864575597713
2231.0661378307304 2191.711325092016
2231.671886644139 1914.2700198850428
2232.277489322065 1934.3555458231767
2232.8829458981127 1687.000054871729
2233.48825640587 2011.0328089443387
2234.0934208789095 2206.675381051906
2234.6984393507955 2402.613785546968
2235.3033118550793 2219.166529523204
2235.9080384252975 2166.816608097901
2236.5126190949723 1845.8603043718444
2237.1170538976166 2063.562158993672
2237.721342866729 1731.868937906229
2238.32548603579 2006.9400756127386
2238.9294834382763 2254.6086959102636
2239.533335107646 2193.37351812635
2240.1370410773434 2231.7661999864913
2240.740601380803 1975.1378954999448
2241.3440160514474 2276.4172157939993
2241.9472851226783 2510.5830631454933
2242.550408627896 2356.674282638025
2243.1533866004793 2530.991237842408
2243.756219073799 2161.700118627662
2244.3589060812064 2024.9078630609129
2244.961447656049 1877.5698671569673
2245.5638438316564 2318.2856923863733
2246.166094641343 2321.9582642980113
2246.7682001184166 1845.877800323377
2247.3701602961664 2247.9471145372577
2247.971975207871 2260.5598744174677
2248.5736448867974 2147.6448620035944
2249.175169366197 2034.4258067374608
2249.7765486793123 2223.689127515231
2250.3777828593684 2325.257705353985
2250.9788719395783 2219.6788598621238
2251.579815953146 2189.8803124560072
2252.1806149332606 2115.1756204707426
2252.781268913097 2325.515700689414
2253.381777925817 1898.121026029207
2253.9821420045737 2148.933265552259
2254.5823611825035 2506.3023251739405
2255.1824354927303 2301.35222022975
2255.782364968365 2063.9948638408478
2256.38214964251 2378.7352939770612
2256.9817895482483 2045.237743939866
2257.5812847186553 2260.0006855957117
2258.180635186791 1829.1313029738747
2258.779840985704 2235.1777253775454
2259.37890214843 2185.957278719367
2259.97781870799 2332.512123402364
2260.5765906973957 2479.3481709144553
2261.175218149645 2142.0262280771485
2261.773701097718 2013.2593497908406
2262.3720395745895 1884.2163282145314
2262.970233613216 2070.335038655497
2263.568283246548 2158.2546816788677
2264.1661885075137 1962.8736215063368
2264.763949429038 2067.3740894814737
2265.3615660440246 2522.4938875175158
2265.959038385374 2029.2548118347174
2266.5563664859637 2510.8882422320153
2267.153550378669 2042.938106201707
2267.7505900963424 2397.7458286236806
2268.3474856718312 2052.6073546788607
2268.9442371379664 2156.7788683995414
2269.5408445275643 1952.937430377006
2270.1373078734377 1954.2478080981887
2270.7336272083758 1955.5660985625323
2271.32980256516 2028.0746259573893
2271.925833976562 2165.063020855164
2272.5217214753357 2049.8711817530807
2273.117465094223 1934.4075236426984
2273.7130648659586 2066.988676675949
2274.308520823257 2033.6125487505392
2274.903832998827 2382.1943108801192
2275.4990014253563 2034.4809566059034
2276.094026135528 2266.3789833475653
2276.6889071620117 1965.6728281899832
2277.2836445374614 2029.2322934680683
2277.878238294519 2170.158755679558
2278.472688465812 2079.6913807840347
2279.066995083962 1989.01740060488
2279.6611581815705 2091.2787297135496
2280.255177791232 1897.2882648808616
2280.8490539455233 2636.602417641401
2281.442786677013 2503.6035373727955
2282.0363760182554 2361.202551439251
2282.6298220017943 1947.6704583471335
2283.223124660155 2542.2380816160758
2283.816284025859 1992.480667625455
2284.4093001314086 2587.070624637158
2285.002173009292 1942.3660674992436
2285.5949026919952 2290.837626894126
2286.1874892119777 2089.6106218282534
2286.7799326016993 2390.2394212090394
2287.3722328936 1971.5481920754107
2287.964390120109 1617.9416310701142
2288.556404313642 2265.0166502301927
2289.1482755066027 2709.786503729642
2289.7400037313873 2271.9190821238726
2290.3315890203703 1970.6352442194875
2290.9230314059205 2335.5399890963226
2291.5143309203904 2002.2890715051897
2292.1054875961236 2038.8537872284637
2292.6965014654506 2587.206047018467
2293.287372560684 2206.0980978982157
2293.878100914131 2132.232658246439
2294.468686558086 2058.27813004853
2295.059129524827 2009.6485327582893
2295.649429846617 2406.7554118796334
2296.239587555716 2042.691355740848
2296.8296026843636 2084.6593028954126
2297.419475264791 2017.983219065723
2298.0092053292137 1951.0577229283335
2298.598792909839 2495.0883999290945
2299.1882380388597 2122.327303268268
2299.777540748455 2691.0583407481304
2300.3667010707904 2384.9350666081464
2300.9557190380256 2423.2312441366084
2301.544594682302 2647.675283261649
2302.1333280357503 2461.1708237498115
2302.721919130485 2274.5092626152355
2303.3103679986198 2600.691074796193
2303.898674672242 2359.556919070992
2304.486839183437 1926.701379859943
2305.0748615642697 2246.060011220451
2305.6627418468015 2324.2373622611144
2306.2504800630704 2126.5162842625996
2306.8380762451143 2085.2817326025474
2307.425530424949 2252.0150994452124
2308.012842634582 2419.113618551247
2308.6000129060103 2509.491663602738
2309.187041271214 2985.114553185762
2309.773927762164 2775.505229883588
2310.3606724108213 2565.475900650063
2310.9472752491274 1960.4495206909974
2311.5337363090184 2305.6776319505407
2312.120055622414 2199.039537993808
2312.706233221221 2162.50927342339
2313.2922691373424 1719.5131111712958
2313.8781634026564 1937.3530552047432
2314.463916049037 2155.695522638658
2315.049527108342 2327.663906242993
2315.6349966124235 2597.134312741618
2316.2203245931123 2580.3737894956867
2316.8055110822315 1895.1708763153729
2317.3905561115935 2004.6784001993049
2317.9754597129977 1853.0979324288862
2318.560221918229 1860.973983826493
2319.1448427590603 1868.9084823332428
2319.729322267256 1846.230509596245
2320.313660474563 1956.52646555957
2320.8978574127195 2127.942194221735
2321.481913113452 2299.9176988308577
2322.0658276084705 2072.8763334767814
2322.6496009294806 2271.2903515919766
2323.233233108165 2242.7337541507322
2323.8167241762058 2182.2202634540135
2324.4000741652617 2200.303618869732
2324.983283106987 2283.7993929164404
2325.5663510330232 2454.751692608879
2326.1492779749933 2081.935940234608
2326.7320639645204 2431.1442547121933
2327.3147090332004 1901.8174561093717
2327.897213212629 2016.3004463690263
2328.4795765343843 2130.787547195766
2329.0617990300307 1848.1436885288585
2329.643880731124 2444.6343903107954
2330.22582166921 2053.6523068889824
2330.807621875816 1801.9874961117632
2331.3892813824623 1550.0752204824487
2331.9708002206517 1836.530422640542
2332.5521784218818 1967.4073996090817
2333.133416017634 2098.637308403364
2333.7145130393765 1945.983788454111
2334.295469518571 2430.2315032453744
2334.876285486658 2405.595359387063
2335.456960975076 2403.9914645595727
2336.037496015242 2402.425623597423
2336.6178906385667 2311.057294906549
2337.198144876451 2301.7634584956395
2337.778258760278 2148.3716173009925
2338.3582323214214 1645.9870554393808
2338.938065591243 2167.1197061368593
2339.517758601087 2603.304364796694
2340.0973113822965 2292.509052216862
2340.676723966193 2156.913444595709
2341.255996384094 2160.848355323462
2341.835128667295 2430.9567216229107
2342.4141208470883 2250.0251911064706
2342.992972954751 2262.7141140939248
2343.5716850215467 2265.0036946463124
2344.1502570787306 1267.622712348031
2344.7286891575386 1770.8143676512295
2345.3069812892045 2625.9864026286873
2345.885133504944 2427.9827254446254
2346.4631458359618 1888.2254968047896
2347.04101831345 1920.8391351679752
2347.6187509685915 1841.8384141182032
2348.196343832553 1933.6661678652758
2348.7737969364935 2151.2899048602007
2349.351110311558 1789.337692814972
2349.9282839888765 1881.4017148874868
2350.5053179995757 1760.2952199314227
2351.0822123747585 1770.3772117384178
2351.658967145526 1805.972233700514
2352.2355823429643 1841.7326782185032
2352.812057998144 2257.598858796907
2353.3883941421263 1922.5335356998912
2353.9645908059647 2142.549289396481
2354.540648020693 2004.0061463788775
2355.116565817336 2258.1908676942985
2355.6923442269126 1951.9520657175758
2356.2679832804224 2305.552893009865
2356.8434830088518 2143.6013460654494
2357.41884344318 2023.6970245560024
2357.994064614377 2199.3141446999794
