#exp_cfg={"servo_angle": 0.0, "laser_lim": 100.0, "servo_angle_to": 18.0, "laser_wup": 0.0, "bt_dev": "EnSpectr-25AE3", "laser_wdn_max": 0.0, "frames": 10.0, "servo_used": 0, "servo_calib_use": 0, "laser_wdn_min": 0.0, "servo_pix_from": 90.0, "cooler_tout": 300.0, "servo_angle_from": 0.0, "servo_calib": "[-1.9174921013161362e-09, 3.9322238269163779e-05, -0.27385609119055809, 653.59552119713567]", "laser_autoctl": 0, "servo_pix_to": 3682.0, "laser_pw": 100.0, "cooler_on": 0, "laser_volt": 4.0, "cooler_autoctl": 0, "cooler_curr": 70.0, "cooler_startup": 10.0, "laser_fixed_pw": 0, "gain": 1.3, "offset": 2.53059635486, "servo_calib_degree": 3.0, "laser_curr": 55.0, "shutter": 8200.0, "servo_calib_step": 1.0, "laser_fixed_curr": 0, "exp": 2000.0, "ccd_volt": 4.7, "bt_addr": "00:06:66:62:5A:E3", "servo_delay": 500.0, "laser_autooff": 1}
#proc_cfg={"flat_auto_wnd": 200.0, "flat_auto_fr": 200.0, "flat_auto_shift": 5.0, "yconv": 1, "flatten": 1, "flatten_strength": 100.0, "xfrom": 300.0, "auto_max_frame": 2000.0, "auto_signal": 48000.0, "flat_auto_tol": 0.1, "autoclip": 1, "xrel_range": 0.0, "flat_auto_to": 4000.0, "intensity_adj": 1.0, "xrel": 7852.0, "rmhot": 1, "flat_auto_slit": 4.999999999999997, "auto_ini_exp": 300.0, "auto_off": 0, "xto": 2860.0, "flat_auto_ref": "", "flat_auto_rank": 1, "autobackg": 0, "xrel_adj": 0.0, "auto_black_lvl": 1, "base_wnd": 100.0, "sub_baseline": 0, "xconv": 2, "auto_max_exp": 1000.0, "auto_total_exp": 10000.0, "auto_exp": 0, "rmripple": 0, "black_lvl": 8282.5125, "shutter_clip_adj": 0.0, "auto_bckg": 0, "flat_auto_thr": 0.9, "subbackg": 1}
316.8218498245369 23491.908733500608
317.89969571804795 23334.31721633085
318.977263876126 23279.529377117884
320.05455438786703 23059.73641743874
321.1315673423287 22985.739843959273
322.2083028285215 23088.782817173727
323.2847609354267 22882.700589221877
324.3609417519747 22888.178970778976
325.43684536705587 22690.739481468052
326.5124718695279 22852.568296451824
327.58782134820103 22685.479949239994
328.66289389184385 22750.027421939718
329.7376895891921 22503.471938819326
330.8122085289342 22344.620385167473
331.88645079971866 22390.760427211855
332.9604164901575 22336.67777105749
334.03410568881554 22261.00959704595
335.1075184842266 22384.468356039677
336.18065496487543 22208.625285381313
337.2535152192122 22196.96393980549
338.32609933564163 22196.499509721158
339.39840740253203 22157.953864696636
340.4704395082099 22041.70090882238
341.5421957409617 21882.449320033713
342.6136761890357 21972.800574993395
343.6848809406365 21737.704951593827
344.75581008392874 21751.479634154384
345.82646370703696 21665.65318698213
346.8968418980512 21644.977708471888
347.96694474501055 21680.0692992278
349.0367723359268 21621.421383433775
350.106324758759 21461.26827462099
351.1756021014353 21437.538753698995
352.2446044518383 21329.509737873752
353.31333189781435 21542.84249175624
354.38178452716966 21276.137528775107
355.449962427665 21327.7631506438
356.51786568702846 21246.712728236234
357.58549439294256 21394.860546819582
358.6528486330535 21441.061301595342
359.71992849496564 21208.770640174163
360.7867340662433 21209.835102496
361.8532654344144 21259.14802086068
362.9195226869597 21266.654774766303
363.9855059113288 21205.65972825737
365.05121519492604 21024.182832840983
366.11665062511565 21181.005344511366
367.1818122892273 21129.593574415965
368.2467002745434 21115.394504578428
369.31131466831175 21094.526948467545
370.375655557742 21076.755264882777
371.4397230299983 21066.19490252543
372.5035171722102 21007.341437074974
373.5670380714637 20990.785463512475
374.6302858148101 21128.990736669097
375.6932604892554 21047.24234972541
376.7559621817709 21041.637142285548
377.81839097928605 20800.01475255611
378.8805469686886 20843.57570883154
379.94243023683157 20996.94776449159
381.0040408705263 20817.562335624007
382.0653789565458 20710.897354201203
383.1264445816196 20802.552281089098
384.1872378324406 20787.6299590708
385.2477587956637 20736.302864086
386.3080075579037 20606.774890047105
387.3679842057336 20419.205961162028
388.4276888256918 20564.39489650544
389.48712150426945 20454.301748855996
390.54628232792857 20401.59274488831
391.6051713830857 20315.914730606466
392.66378875611736 20313.651025708077
393.7221345333637 20273.23658247916
394.7802088011249 20245.13974093992
395.838011645661 20156.459451045455
396.89554315319765 20087.991003712486
397.9528034099112 20015.21775233337
399.00979250194723 19871.331561407926
400.06651051541485 19959.10680904448
401.1229575363741 19876.66111206836
402.17913365085224 19801.62339206195
403.23503894483656 19918.09689442128
404.2906735042761 19727.79123039274
405.3460374150818 19559.51073954649
406.401130763119 19696.182740393313
407.455953634224 19644.761933768044
408.5105061141876 19531.555350485432
409.56478828876243 19416.477038477013
410.6188002436629 19334.15810360267
411.6725420645689 19285.226696347294
412.72601383711117 19338.56672893696
413.77921564689314 19474.276925031536
414.8321475794728 19305.3523949345
415.88480972036814 19192.702557266217
416.93720215506437 19152.977436988862
417.9893249690049 19081.07516482861
419.04117824759123 18985.83126134537
420.09276207619223 18928.001701618057
421.144076540133 19087.401657911705
422.1951217247042 18893.289274291303
423.24589771515275 18869.025579902504
424.2964045966928 18772.47377083665
425.34664245449494 18854.35182255124
426.3966113736933 18776.600530411095
427.4463114393875 18708.599107651793
428.49574273662984 18669.56194573961
429.5449053504417 18494.23081828476
430.5937993658026 18673.001677155065
431.6424248676558 18581.17137231954
432.6907819409007 18479.302141912318
433.73887067040596 18454.488002081875
434.7866911409965 18488.725862524585
435.8342434374608 18562.41850372262
436.88152764455117 18408.769051837688
437.9285438469724 18400.169439790603
438.9752921294057 18233.620907702243
440.02177257648145 18390.272574989787
441.06798527279716 18211.456674859535
442.1139303029122 18382.208511120945
443.1596077513459 18226.21470886044
444.2050177025794 18197.813651432745
445.25016024105753 18258.109602033168
446.2950354511886 18179.154875254368
447.33964341733736 18186.679653910487
448.383984223834 18099.724291229653
449.4280579549686 17946.420134247175
450.471864694995 17979.360469406904
451.5154045281306 17999.588420861954
452.5586775385509 17959.244005071472
453.60168381039693 17901.41272898221
454.64442342776783 18040.521390265418
455.6868964747264 17896.44107100868
456.7291030353008 17791.20776609274
457.77104319347563 17996.536088065153
458.8127170332027 17864.61490748947
459.854124638392 17921.76355583692
460.895266092919 18038.292933014345
461.93614148061897 17881.846975249537
462.97675088529104 18039.96472542712
464.01709439069236 17954.263760050573
465.0571720805492 18031.784931851995
466.0969840385442 17905.1068947198
467.1365303483253 18040.813083361976
468.17581109350067 17913.063454835865
469.2148263576437 17838.082991589403
470.2535762242878 17910.962297565147
471.29206077693016 17988.204450284833
472.33028009902773 17922.928097202413
473.3682342740012 17887.58570547292
474.40592338523857 17924.82842759925
475.4433475160804 18019.416362718315
476.4805067498364 17947.22060231184
477.51740116978 18049.550877230646
478.5540308591426 18052.023391911996
479.59039590112116 18229.09812097101
480.6264963788726 18051.068602597566
481.6623323755193 18194.83031955603
482.6979039741436 18250.070794396022
483.7332112577915 18507.313201806883
484.76825430947247 18618.329579680558
485.80303321215797 18520.653538821476
486.837548048783 18628.034769529324
487.8717989022425 18773.12313214859
488.90578585539697 18810.060557892277
489.9395089910686 19043.061182914033
490.97296839203955 18757.04977606591
492.00616414106116 18760.011216305902
493.0390963208429 18694.04512933291
494.0717650140559 18649.336704760935
495.10417030333883 18480.15709576969
496.1363122712901 18384.378523959433
497.16819100046814 18269.24920090374
498.1998065734024 18075.755304202547
499.2311590725767 17970.549954978225
500.26224858044407 17955.483320393236
501.2930751794156 17783.605491882852
502.3236389518679 17757.723372114066
503.35393998014115 17515.433965203367
504.38397834653733 17535.066612871375
505.4137541333221 17448.378648490827
506.4432674227228 17363.6070430266
507.4725182969323 17295.021002834263
508.5015068381035 17154.227737795904
509.53023312835467 17134.14068230559
510.55869724976765 17111.638333924704
511.58689928438434 16974.66316996416
512.6148393142121 16874.856860713648
513.6425174212218 16962.74495572241
514.6699336873462 16948.1020242825
515.6970881944835 16910.975699009563
516.7239810244901 16718.071629133057
517.7506122591931 16735.971065000493
518.7769819803761 16662.74823997655
519.8030902697901 16811.155357542466
520.8289372091476 16744.553690118337
521.8545228801249 16822.17394836276
522.8798473643619 16792.060356229857
523.9049107434621 16705.524044211277
524.9297130989908 16777.15584728607
525.9542545124805 16649.70139791779
526.9785350654201 16581.840105010604
528.0025548392696 16553.83644671707
529.0263139154504 16472.744719174414
530.0498123753423 16530.014539614058
531.073050300296 16501.33384249013
532.0960277716204 16351.136845057728
533.1187448705896 16378.367690477433
534.1412016784416 16377.3017230377
535.1633982763833 16274.00744859626
536.1853347455726 16211.345938443916
537.2070111671401 16187.77214278905
538.2284276221817 16147.759996437448
539.2495841917516 16000.06474730144
540.2704809568677 15869.05098820141
541.2911179985167 15900.405194229583
542.3114953976419 15868.281227516767
543.3316132351592 15752.074509889566
544.3514715919409 15705.132232329895
545.3710705488247 15666.997213922728
546.3904101866156 15628.206037347196
547.4094905860784 15736.393387227936
548.4283118279418 15555.052203977772
549.4468739929034 15630.664536818274
550.4651771616191 15522.278920311539
551.4832214147063 15450.126993819498
552.501006832761 15594.329448777891
553.5185334963226 15488.514631197391
554.5358014859103 15522.142113006461
555.5528108820035 15481.613150454185
556.5695617650363 15418.504352885075
557.5860542154242 15516.792085523175
558.6022883135283 15425.909481043516
559.6182641396881 15358.015949836286
560.6339817741991 15376.838767921592
561.6494412973225 15416.316488668894
562.6646427892883 15456.058523133755
563.6795863302796 15231.831034596009
564.694272000459 15317.601220106264
565.7086998799423 15458.547308149044
566.7228700488104 15305.408134808793
567.7367825871115 15248.87752162106
568.7504375748576 15204.903756868593
569.7638350920224 15305.109381404738
570.7769752185486 15253.135128752654
571.7898580343353 15194.861654198283
572.802483619258 15079.505271871982
573.8148520531431 15365.301863634788
574.8269634157932 15247.493740542603
575.8388177869692 15138.673431684798
576.8504152463938 15162.321234832378
577.8617558737587 15244.55193792336
578.8728397487175 15238.515598397446
579.883666950891 15273.941988741397
580.8942375598654 15414.59724596458
581.9045516551851 15450.352194993571
582.9146093163617 15633.439216344419
583.924410622878 15459.76771784048
584.9339556541727 15464.260803784491
585.9432444896538 15696.212783735387
586.9522772086875 15486.26662651728
587.9610538906127 15626.821443913243
588.9695746147318 15565.886889477328
589.9778394603054 15542.236207972252
590.985848506567 15411.591176174556
591.9936018327098 15391.47730947279
593.0010995178891 15147.84212277027
594.0083416412344 15314.572065297349
595.0153282818283 15047.775840913519
596.0220595187293 14968.417192899811
597.0285354309508 14973.95877654161
598.0347560974806 14944.077710560425
599.0407215972609 14852.797590396061
600.0464320092051 14836.429741863249
601.0518874121954 14869.353993613253
602.0570878850685 14730.685748826701
603.062033506636 14730.298846636922
604.0667243556636 14806.412005581067
605.0711605108936 14596.72952839993
606.0753420510264 14899.336104505273
607.0792690547278 14771.797194713194
608.082941600629 14691.285878640967
609.0863597673306 14636.935008846482
610.0895236333909 14763.132431602236
611.0924332773357 14948.79818057477
612.0950887776617 14865.544104156103
613.0974902128219 14822.00182993955
614.0996376612384 15020.417412697867
615.1015312013005 14964.488606362898
616.1031709113595 15187.127019993433
617.1045568697336 15042.455251259144
618.1056891547069 15211.625197509089
619.1065678445229 15246.094343853027
620.1071930173985 15632.26024627531
621.1075647515099 15615.704029833458
622.1076831250048 15715.400931018565
623.1075482159849 15781.014664949183
624.1071601025305 15883.306647171568
625.1065188626781 15995.911749453331
626.105624574433 16351.835192755525
627.1044773157682 16398.304714794027
628.1030771646128 16462.519097938028
629.1014241988742 16665.583940050965
630.0995184964158 16840.80119897934
631.0973601350688 16887.05655692398
632.0949491926294 17120.798087080504
633.0922857468631 16844.615393060772
634.089369875499 16981.336779495443
635.0862016562278 17023.687200426364
636.0827811667077 16803.676998503703
637.0791084845641 16679.75808260862
638.0751836873878 16541.048320703252
639.0710068527369 16430.310192346707
640.0665780581294 16304.6502786414
641.0618973810506 16120.186356605185
642.0569648989604 16064.72209403729
643.0517806892676 15719.260789889304
644.0463448293649 15713.637670464968
645.040657396592 15555.72306184928
646.0347184682723 15348.472194315986
647.0285281216875 15102.30369503829
648.0220864340772 15126.325744272875
649.0153934826558 14953.231115870858
650.0084493446047 14899.692754629763
651.0012540970674 14829.37674360524
651.9938078171526 14778.271100767151
652.9861105819346 14614.854707204766
653.9781624684565 14695.948613796985
654.9699635537254 14440.41458792426
655.9615139147136 14446.939692455078
656.9528136283589 14277.145844090057
657.9438627715699 14451.400754213397
658.9346614212154 14344.179522415356
659.925209654135 14023.377134441815
660.9155075471263 14101.24638451162
661.9055551769616 14072.586026237786
662.895352620375 14143.03995613622
663.8848999540678 14011.36553292232
664.8741972547068 13803.713330925864
665.863244598926 13849.916329769423
666.8520420633213 13911.375597278015
667.8405897244611 13699.246886505885
668.8288876588758 13655.058940596384
669.8169359430613 13723.808035440428
670.8047346534822 13680.388745868322
671.7922838665672 13573.699424824901
672.7795836587156 13684.806654728742
673.766634106285 13835.171288284215
674.7534352856092 13538.538719117892
675.7399872729766 13538.747667470621
676.7262901446538 13505.608887887473
677.712343976862 13564.874501746051
678.6981488457986 13620.404087002727
679.6837048276229 13354.056175164747
680.6690119984596 13515.325782869855
681.6540704344043 13359.581387343535
682.6388802115107 13322.156613357878
683.6234414058108 13321.823235168278
684.6077540932874 13307.098564556925
685.591818349907 13332.061643597
686.575634251587 13312.4660584255
687.5592018742263 13120.197084023312
688.5425212936734 13075.895370370523
689.5255925857564 13144.816612528628
690.5084158262707 13169.418682878288
691.4909910909646 12939.12261796714
692.4733184555644 12954.09337327277
693.4553979957618 13080.408372607473
694.4372297872123 13082.530341042215
695.4188139055404 12906.00809776869
696.4001504263324 12776.8623650229
697.3812394251509 12902.467397649807
698.3620809775111 12802.658061853452
699.3426751589104 12798.532928220946
700.3230220448004 12767.688632692485
701.3031217106054 12815.877454594094
702.2829742317172 12913.342273155207
703.2625796834873 12629.7801648321
704.2419381412474 12571.470319247526
705.22104968028 12667.895509276954
706.1999143758458 12618.340908172973
707.178532303169 12556.915774037021
708.1569035374378 12674.006881382571
709.1350281538107 12641.881367046199
710.1129062274158 12689.964953410592
711.0905378333373 12738.59913034881
712.0679230466376 12781.909716980199
713.0450619423427 12852.630357192658
714.0219545954424 12974.912187205975
714.9986010808989 12761.592970229549
715.9750014736292 12894.681620891144
716.9511558485392 13103.280576103958
717.9270642804786 13180.458068101823
718.9027268442787 13214.581134431875
719.8781436147328 13112.356406708719
720.8533146666014 13148.313490666824
721.828240074612 13179.089431307224
722.8029199134635 13114.83411640037
723.7773542578125 13071.512525225024
724.751543182294 13009.744854342203
725.7254867615029 13074.577940502755
726.6991850700015 12848.329177135
727.6726381823228 12868.89216395921
728.6458461729599 12780.386722954998
729.6188091163858 12729.011044638128
730.5915270870246 12770.216761771631
731.5640001592856 12578.401696319846
732.536228407529 12657.694044691903
733.5082119060917 12744.189026694743
734.4799507292755 12655.259669804744
735.4514449513481 12621.53001895668
736.4226946465496 12740.043868176985
737.3936998890786 12772.815573780137
738.3644607531078 12655.89722300547
739.3349773127793 12576.813946150583
740.3052496421951 12646.705013058541
741.27527781543 12407.77013149283
742.2450619065221 12278.247899763806
743.2146019894826 12363.84951878755
744.183898138288 12337.45846602737
745.1529504268801 12272.980432635606
746.1217589291682 11996.819784946676
747.0903237190341 12016.78209464316
748.058644870318 12009.79172537801
749.0267224568397 11954.490375511014
749.994556552374 11912.6079730425
750.9621472306771 11903.303591797496
751.9294945654583 11898.881768682937
752.8965986304011 11868.929863239342
753.8634594991636 11732.802509441226
754.8300772453586 11889.905236154238
755.7964519425768 11805.027411902654
756.762583664371 11870.903826353653
757.7284724842611 11874.16153255916
758.6941184757416 11810.063772205958
759.6595217122667 11813.720558565217
760.6246822672638 11758.347301939688
761.5896002141235 11688.975014817775
762.5542756262093 11748.907283084272
763.5187085768503 11783.013133991137
764.4828991393406 11665.453736285217
765.4468473869474 11690.352927824806
766.4105533929032 11821.794635488284
767.3740172304078 11657.691457890794
768.3372389726283 11785.855604647008
769.3002186926988 11539.540742186482
770.2629564637282 11522.843546115273
771.2254523587872 11582.960171937468
772.1877064509154 11514.414761661861
773.1497188131179 11283.371987611554
774.1114895183728 11320.822323470855
775.0730186396268 11314.086270246138
776.0343062497905 11232.3259256419
776.9953524217381 11120.693803281738
777.9561572283274 11279.633661495627
778.9167207423689 11237.479655108104
779.8770430366476 11018.78635042685
780.8371241839159 11108.093266610666
781.7969642568951 11079.1265625556
782.7565633282757 11384.198179851195
783.7159214707099 10989.376859197908
784.6750387568281 11159.283121270117
785.6339152592227 11109.405748825122
786.5925510504512 10973.38992721668
787.5509462030477 11126.184836466326
788.5091007895098 10992.17944222307
789.4670148823006 10982.014036856119
790.4246885538596 11071.798047549215
791.3821218765861 11075.391298871096
792.3393149228505 11002.676835376053
793.2962677649975 11099.236564320845
794.2529804753303 11100.676482181136
795.20945312613 11142.89463258137
796.1656857896378 10960.531752505238
797.1216785380675 10952.40387439675
798.0774314435985 11099.249434794809
799.0329445783846 11211.38423082086
799.9882180145414 11214.945070697844
800.9432518241574 11174.142519201905
801.89804607929 11355.773549095367
802.852600851962 11389.767282671912
803.8069162141637 11351.160512578343
804.760992237856 11427.014813445676
805.714828994971 11499.70467874482
806.6684265574077 11505.958978833201
807.6217849970271 11489.613810577863
808.574904385674 11393.08654629652
809.527784795142 11537.589825175257
810.4804262972102 11554.86218644943
811.4328289636178 11336.343792008542
812.3849928660748 11246.974878040426
813.3369180762638 11224.1296245291
814.2886046658241 11245.01318182112
815.2400527063783 11068.228968322119
816.1912622695108 11002.10794437845
817.1422334267718 11083.24362741699
818.0929662496856 10933.065523412584
819.0434608097457 10703.29279852056
819.9937171784059 10762.872232906691
820.9437354271013 10719.630102098912
821.8935156272255 10755.951786510177
822.8430578501484 10528.386660225122
823.7923621672016 10467.861663161417
824.7414286496896 10519.02962476155
825.6902573688876 10524.83312732894
826.6388483960363 10497.715003786523
827.5872018023492 10364.162773291315
828.5353176590033 10541.528377298973
829.4831960371503 10335.681332244789
830.4308370079016 10283.19690381973
831.3782406423525 10267.710439669545
832.3254070115545 10443.52339717287
833.2723361865319 10197.44741994678
834.2190282382799 10267.313765460603
835.1654832377644 10296.96548593119
836.1117012559116 10318.224160494488
837.0576823636256 10346.104209180075
838.003426631778 10186.20167798297
838.9489341312074 10175.101883400836
839.8942049327197 10291.64099325921
840.8392391070975 10332.763367893025
841.7840367250865 10240.246523716114
842.7285978573982 10101.46206479962
843.672922574724 10231.038858313548
844.6170109477152 10106.325895316957
845.560863046996 10139.068895576034
846.5044789431595 10117.494221004412
847.4478587067697 10098.147567963071
848.3910024083561 10282.290183423069
849.333910118421 10093.939381143831
850.2765819074339 10040.961945026385
851.2190178458332 10157.333872555679
852.161218004032 10129.331251099426
853.1031824524016 10099.62558635014
854.0449112612987 10058.293639749918
854.9864045010327 10170.665055607971
855.9276622418947 10061.017939279684
856.8686845541379 10019.584013855685
857.8094715079915 10039.428642619883
858.7500231736467 10198.296684138522
859.690339621271 10061.18860933807
860.6304209209939 10076.827537185633
861.5702671429244 9919.699478085367
862.5098783571284 10073.061001899367
863.4492546336569 10089.983090586145
864.3883960425155 9964.553158241495
865.3273026536863 9956.329908668285
866.2659745371238 9998.320400144095
867.2044117627465 10142.119964570738
868.1426144004472 9969.099823732611
869.0805825200823 10124.046989500453
870.0183161914847 10092.59502309811
870.9558154844526 10217.127660436578
871.8930804687552 10153.276452473012
872.8301112141307 9996.388324078116
873.7669077902865 10194.753273802096
874.7034702669062 10379.27559209105
875.6397987136315 10206.324511305664
876.5758932000863 10347.685097681413
877.5117537958522 10428.970107142208
878.4473805704911 10292.761195977533
879.3827735935283 10291.721292737577
880.3179329344603 10460.295666231988
881.2528586627541 10539.822363237214
882.1875508478479 10526.485195696627
883.1220095591489 10352.356388314269
884.0562348660296 10452.8300329196
884.9902268378391 10475.351309503447
885.9239855438955 10365.40679197475
886.8575110534839 10220.982926192548
887.7908034358588 10286.831398778428
888.7238627602474 10274.61486452472
889.6566890958475 10322.472412898764
890.5892825118208 10148.717143111435
891.5216430773125 10179.591315113566
892.4537708614189 10197.294878410272
893.3856659332196 9991.462826473595
894.3173283617652 9919.817212993577
895.2487582160684 9957.973219757703
896.179955565116 9958.431399723375
897.110920477864 9794.236030911976
898.0416530232451 9780.772863277896
898.9721532701478 9758.924100596287
899.9024212874428 9877.328728488857
900.8324571439662 9675.426449373208
901.7622609085302 9615.453306120839
902.6918326499072 9512.358849406362
903.6211724368477 9559.705109874816
904.5502803380696 9703.16983261223
905.4791564222614 9772.695888324517
906.4078007580792 9530.247635683269
907.3362134141571 9563.531653778997
908.2643944590909 9669.877148568037
909.1923439614493 9525.789228945283
910.1200619897754 9473.085912732331
911.0475486125779 9703.983566057708
911.9748038983344 9555.034449545818
912.9018279155007 9499.93898389279
913.8286207324982 9369.736893229889
914.7551824177117 9532.026096549187
915.6815130395116 9402.860922032069
916.6076126662283 9327.421279139891
917.533481366163 9416.925288642582
918.4591192075914 9476.449678997153
919.3845262587565 9426.031581389745
920.3097025878706 9321.267303535144
921.2346482631237 9328.578667676553
922.1593633526682 9285.683684814821
923.0838479246304 9384.53193515821
924.0081020471061 9498.839293011424
924.9321257881656 9167.955881717946
925.8559192158464 9290.240692087693
926.7794823981512 9296.234802377949
927.7028154030686 9212.85947998732
928.6259182985414 9097.382425106589
929.5487911524906 9398.723836808638
930.4714340328119 9364.032417709026
931.3938470073608 9122.948056680598
932.3160301439748 9118.663950106766
933.2379835104548 9195.807125999821
934.1597071745709 9266.93956937917
935.0812012040769 9206.3587953526
936.002465666681 9267.56366362798
936.9235006300696 9338.76530919426
937.8443061619055 9239.893067747109
938.7648823298077 9118.16018820604
939.6852292013809 9071.217883505367
940.6053468441951 9216.534353685942
941.5252353257874 9029.760099368159
942.4448947136698 9133.918338655802
943.364325075323 9128.182689175894
944.2835264782043 9168.606689429016
945.2024989897309 9150.093294386854
946.1212426773054 9108.76768672421
947.0397576082851 9193.3283540782
947.9580438500125 9386.127726745495
948.8761014697939 9299.401884141253
949.7939305349064 9225.695597128135
950.7115311125999 9119.883749937037
951.6289032700952 9122.643901983874
952.5460470745875 9210.666383332824
953.4629625932339 9099.926829340166
954.3796498931715 9195.552841137875
955.2961090415029 9216.975418897258
956.2123401053068 9115.250096329779
957.1283431516276 9094.718351044019
958.0441182474842 8985.486029022619
958.9596654598663 9229.417546234054
959.8749848557309 9060.320524543704
960.7900765020167 9048.397852030508
961.7049404656209 8969.90848669018
962.6195768134185 9108.804419823822
963.5339856122537 9079.188554602017
964.4481669289453 9175.45760659564
965.3621208302793 9025.095268147154
966.2758473830145 8957.751876326143
967.1893466538822 9227.885607673765
968.1026187095813 9032.894431542478
969.0156636167867 8945.277356481129
969.9284814421426 9053.33315316407
970.8410722522622 9008.769127352909
971.753436113735 8903.293461760968
972.6655730931161 8936.530201558
973.5774832569368 9006.476568637536
974.4891666716958 8857.253118806022
975.4006234038698 8872.197971433397
976.3118535198955 8866.61487967343
977.2228570861935 9083.025358525098
978.1336341691494 8995.047054458675
979.0441848351202 8845.29858383268
979.9545091504333 8979.842109459316
980.864607181391 9015.6562147646
981.7744789942699 8953.538784878276
982.6841246553086 8988.076497647084
983.5935442307236 8964.296344495047
984.5027377867027 8957.417619635238
985.4117053894024 9011.527444955434
986.3204471049557 8877.800900608885
987.2289629994648 8965.940710441027
988.1372531390007 9052.958470300167
989.0453175896091 9054.39203133389
989.9531564173067 8920.20611089811
990.860769688079 8814.375417213578
991.7681574678918 8926.958323109637
992.6753198226706 8957.302562074647
993.582256818323 8807.10833612031
994.4889685207218 8918.348498780138
995.3954549957143 9132.683924853784
996.301716309119 9098.073609286197
997.2077525267232 8969.576605776438
998.1135637142943 8960.285280722437
999.0191499375615 9117.35432262207
999.924511262232 9022.663045390787
1000.8296477539861 9081.372051548182
1001.7345594784656 8879.925489748974
1002.6392465012996 8913.87122498525
1003.5437088880753 9148.42051725724
1004.4479467043584 9022.668639118518
1005.3519600156869 8809.155449938231
1006.2557488875718 9022.937861850616
1007.1593133854858 8917.735122559361
1008.0626535748888 8872.152350159357
1008.9657695212009 8791.71402887655
1009.8686612898182 9077.185680981624
1010.7713289461135 9061.452532514373
1011.6737725554212 8959.90646072081
1012.5759921830577 8925.078177670115
1013.4779878943027 8905.920074142556
1014.379759754418 9008.09545973803
1015.2813078286254 8839.205855170632
1016.18263218213 8727.23885892558
1017.0837328801026 8740.51208424825
1017.9846099876886 8790.89140406267
1018.8852635700023 8647.794203871104
1019.7856936921362 8610.491662575594
1020.6859004191447 8831.000500466029
1021.5858838160675 8609.25652197209
1022.4856439479063 8533.608602544
1023.3851808796389 8525.550667820275
1024.2844946762143 8705.939297801495
1025.183585402554 8577.601975438836
1026.082453123554 8429.381960199573
1026.9810979040776 8548.374322055877
1027.8795198089647 8386.740147779292
1028.777718903024 8605.150361915192
1029.6756952510368 8422.87928040524
1030.5734489177648 8350.947031024469
1031.4709799679313 8477.610529369122
1032.3682884662358 8584.69268361016
1033.2653744773506 8313.187451095828
1034.1622380659192 8328.440487888325
1035.058879296559 8415.23070253951
1035.9552982338591 8523.520247505192
1036.8514949423825 8387.915009547396
1037.7474694866614 8439.176684880129
1038.6432219312028 8359.573952030403
1039.5387523404825 8523.482868383477
1040.4340607789582 8534.81251413331
1041.3291473110476 8538.704661313946
1042.2240120011465 8743.032465437676
1043.1186549136273 8710.359124547094
1044.0130761128294 8645.454149464098
1044.9072756630649 8768.770439717058
1045.8012536286205 8899.714141933788
1046.6950100737577 8945.801367356518
1047.588545062701 9046.222139982918
1048.481858659663 9021.595167412366
1049.3749509288118 9162.543908392025
1050.2678219343034 9007.117941823133
1051.1604717402515 9081.895317623583
1052.0529004107575 9019.394350335679
1052.9451080098825 9152.300596895275
1053.8370946016694 9019.100099404592
1054.7288602501267 9094.973479267119
1055.6204050192446 8996.843389766464
1056.511728972977 9118.4601568353
1057.402832175254 8896.206763689252
1058.2937146899785 8818.927927972434
1059.1843765810263 8814.773183736623
1060.0748179122456 8952.27303034608
1060.9650387474576 8790.736425703855
1061.855039150456 8843.316906417078
1062.7448191850071 8752.404801651674
1063.6343789148505 8743.671152888972
1064.5237184037014 8738.969746116369
1065.412837715241 8679.722931985958
1066.3017369131267 8484.368303401801
1067.190416060992 8494.447429987065
1068.0788752224398 8414.120747964682
1068.9671144610438 8403.15249544593
1069.8551338403558 8518.035345185646
1070.7429334239023 8500.832796970393
1071.6305132751695 8318.300620500011
1072.517873457633 8443.380909228395
1073.4050140347335 8345.842072216297
1074.2919350698776 8275.858276036393
1075.1786366264623 8314.932598966308
1076.0651187678395 8278.932762208273
1076.95138155735 8103.134384151812
1077.8374250582929 8181.7680410584235
1078.7232493339507 8224.881086823621
1079.608854447577 8100.827413323527
1080.4942404623907 8050.94999019729
1081.3794074415982 8119.512944839837
1082.2643554483657 8195.092515497996
1083.149084545841 7981.650167143658
1084.033594797138 8071.737887777985
1084.9178862653516 7980.9476814671125
1085.8019590135427 8129.945443604995
1086.6858131047484 7924.966928075228
1087.5694486019802 8032.402596380224
1088.4528655682225 8018.226602440775
1089.3360640664287 8122.814770673234
1090.2190441595321 8031.371894550854
1091.1018059104317 7953.434026733502
1091.98434938201 8070.051572762228
1092.866674637111 8092.363659690496
1093.748781738559 7944.225165831293
1094.6306707491512 7790.998218725608
1095.5123417316554 8046.175360960333
1096.3937947488157 7908.5843217731945
1097.2750298633455 7852.719582370392
1098.156047137938 7881.9785951248605
1099.0368466352556 7899.582235957489
1099.9174284179317 7974.380771229422
1100.7977925485757 7720.72943741528
1101.6779390897755 7733.636112649981
1102.5578681040806 7900.541046820984
1103.4375796540226 7844.367370708603
1104.3170738021054 7727.7455742111415
1105.1963506108077 7698.940170339961
1106.0754101425773 7665.17279351841
1106.9542524598382 7778.854561725435
1107.8328776249855 7613.224204970358
1108.7112857003904 7555.844099628918
1109.5894767483987 7657.676392324222
1110.4674508313292 7837.720215353191
1111.3452080114657 7544.4729870306255
1112.2227483510815 7745.636419863278
1113.1000719124077 7799.551614028952
1113.9771787576592 7871.188438376674
1114.854068949022 7697.107541346721
1115.7307425486542 7851.733943785874
1116.6071996186893 7883.686015026263
1117.483440221229 7974.582389061926
1118.3594644183577 7793.95309248465
1119.235272272128 7882.533238408971
1120.1108638445658 8073.582694541872
1120.9862391976712 8224.383369332449
1121.8613983934229 8125.269459288708
1122.7363414937627 8204.93856581496
1123.6110685606182 8195.850904632876
1124.485579655884 8320.943522384327
1125.359874841426 8322.485115472657
1126.2339541790916 8324.017841444176
1127.1078177306936 8615.127238454566
1127.9814655580267 8376.82244734761
1128.854897722851 8406.347554362448
1129.7281142869106 8392.237962435907
1130.6011153119125 8426.500562538464
1131.473900859548 8678.787952996714
1132.3464709914697 8529.137436577046
1133.2188257693178 8433.309249210108
1134.0909652546961 8365.88918952217
1134.96288950919 8292.248269375948
1135.8345985943506 8470.800075673298
1136.7060925717087 8219.212516178548
1137.57737150277 8270.570501009299
1138.4484354490069 8355.119431107978
1139.3192844718778 8103.126968012102
1140.1899186327992 7879.3334009648825
1141.060337993178 8150.149280644077
1141.930542614382 8009.066954413293
1142.8005325577597 7800.511048030567
1143.670307884635 7724.665060674859
1144.5398686563003 7886.973802049331
1145.409214934025 7761.239153131561
1146.2783467790541 7387.705999164003
1147.1472642526023 7618.713965018581
1148.0159674158622 7613.5340322444445
1148.8844563300026 7476.153219480283
1149.7527310561618 7399.359439134561
1150.6207916554504 7312.218726517327
1151.4886381889592 7262.131252400221
1152.3562707177498 7323.778456566726
1153.2236893028585 7254.024959187535
1154.090894005296 7166.81511685599
1154.9578848860474 7218.900509480673
1155.8246620060709 7178.240820597271
1156.6912254262988 7075.404740956374
1157.5575752076438 7110.23674130678
1158.42371141098 7232.450390735581
1159.2896340971656 7149.372293706547
1160.1553433270346 7095.90897921856
1161.0208391613887 7119.8848828705595
1161.8861216610057 7113.197964501074
1162.75119088664 7064.6807985074975
1163.6160468990201 6995.584523443246
1164.4806897588442 6952.397556903257
1165.3451195267917 7081.93352335332
1166.2093362635114 7061.898889403785
1167.0733400296285 7011.815931135828
1167.9371308857444 6965.372330627945
1168.8007088924278 6913.864278375627
1169.6640741102328 7078.720028531269
1170.5272265996773 6957.203320096101
1171.390166421259 6782.625027897538
1172.252893635452 7040.106255652967
1173.1154083026995 7120.269362130271
1173.977710483421 6986.6076129427265
1174.8398002380145 6788.295248760561
1175.7016776268483 6982.490156176068
1176.563342710264 6892.0487627492275
1177.4247955485826 6881.425751799466
1178.2860362020947 6997.966991131865
1179.147064731069 6820.465673914364
1180.0078811957483 6944.113282792256
1180.8684856563486 6884.855866121082
1181.7288781730604 6974.214203917327
1182.589058806052 6992.923977758137
1183.4490276154593 7126.39990947609
1184.3087846614017 6939.550310262754
1185.1683300039676 6987.6353638334285
1186.027663703222 7120.716200004565
1186.8867858192025 6992.037222932289
1187.7456964119228 7081.642057900781
1188.6043955413716 7083.305362146688
1189.4628832675116 7225.849886349216
1190.3211596502842 7253.911160663936
1191.179224749596 7232.360503596741
1192.0370786253388 7054.371778186478
1192.8947213373758 7339.889676259819
1193.7521529455407 7362.53448832077
1194.6093735096438 7204.842763102786
1195.466383089477 7235.502841276466
1196.3231817447977 7251.980274539686
1197.1797695353398 7425.029994161785
1198.0361465208189 7148.741251656253
1198.8923127609214 7213.7912744330515
1199.7482683153048 7398.257954809173
1200.6040132436028 7449.454896837977
1201.459547605431 7285.049250169701
1202.3148714603722 7358.555423577911
1203.1699848679855 7438.459338768174
1204.0248878878065 7364.630276729682
1204.8795805793507 7079.275106600931
1205.7340630020935 7230.409269597898
1206.5883352155033 7372.200509974534
1207.4423972790064 7338.515674376004
1208.2962492520237 7152.272672653155
1209.1498911939307 7156.975791543843
1210.0033231640937 7219.734528902525
1210.8565452218427 7278.088973406833
1211.7095574264913 6898.205029988674
1212.5623598373222 6880.674603805867
1213.4149525135963 6866.60339263328
1214.2673355145507 7012.711702190283
1215.1195088993936 6815.058882553053
1215.9714727273113 6785.137604792052
1216.8232270574663 6974.615209396807
1217.6747719489904 6713.48239821467
1218.5261074609934 6676.714862454586
1219.3772336525653 6773.02023129852
1220.2281505827668 6842.785818791008
1221.0788583106296 6923.332070031666
1221.9293568951707 6596.395170493951
1222.7796463953746 6541.513037361845
1223.629726870202 6783.212806146114
1224.4795983785934 6723.438717929232
1225.3292609794553 6719.94570977345
1226.1787147316809 6522.07455419754
1227.0279596941327 6659.994453199479
1227.8769959256424 6492.193403098718
1228.7258234850306 6591.076272893333
1229.5744424310833 6391.062557649615
1230.422852822563 6619.329288037543
1231.2710547182105 6699.945069735977
1232.119048176739 6564.522971910063
1232.9668332568417 6410.680172389023
1233.8144100171812 6532.34588612235
1234.6617785163999 6498.076316313478
1235.508938813111 6264.439237686939
1236.3558909659114 6300.47710896556
1237.2026350333617 6548.314897810928
1238.049171074008 6579.528340836948
1238.8954991463652 6402.839315321093
1239.741619308932 6369.595060928658
1240.587531620169 5259.718874638032
1241.4332361385277 6486.832349522463
1242.2787329224248 6359.151470739925
1243.1240220302534 6331.21993567547
1243.9691035203869 6262.31677383261
1244.813977451171 6522.327343127586
1245.6586438809263 6388.292572995959
1246.5031028679496 6155.218730873549
1247.3473544705157 6409.2660976042725
1248.1913987468706 6364.10935303261
1249.0352357552383 6175.643317905273
1249.8788655538228 6217.801641328797
1250.7222882007918 6455.192006455258
1251.565503754302 6330.336466050641
1252.4085122724755 6081.467948033864
1253.2513138134182 6338.2198626960735
1254.0939084352049 6239.512957709852
1254.9362961958905 6274.802105785329
1255.7784771535007 6188.422571542707
1256.6204513660432 6345.646004844951
1257.4622188915 6421.128808761708
1258.3037797878242 6272.918849439273
1259.1451341129468 6091.7996810593995
1259.9862819247755 6320.247258911287
1260.8272232811978 6289.266222521178
1261.6679582400666 6398.1743164476875
1262.5084868592203 6098.441027276074
1263.34880919647 6110.232750915788
1264.1889253095997 6209.910694445583
1265.0288352563712 6268.563228925925
1265.8685390945266 6187.051072831842
1266.7080368817751 6165.602123479249
1267.5473286758115 6466.49723668095
1268.386414534294 6248.9415337305345
1269.2252945148703 6005.050733258587
1270.0639686751547 6096.8382779401645
1270.9024370727402 6088.491713963092
1271.7406997651997 6092.804838526147
1272.5787568100714 5949.46098883234
1273.4166082648808 6078.288758759258
1274.2542541871244 6113.99556732667
1275.091694634275 6342.7553238163055
1275.9289296637817 5918.5466769179275
1276.7659593330663 6208.643650137141
1277.6027836995308 6075.964159229783
1278.4394028205552 6181.258311764626
1279.2758167534867 6058.855113556105
1280.112025555658 6079.584182146764
1280.9480292843746 6107.5425771332475
1281.7838279969128 5849.394639564592
1282.6194217505326 5972.90294862255
1283.4548106024686 5870.354508264242
1284.289994609926 5956.637321340671
1285.1249738300921 6070.452172270549
1285.959748320127 5941.551549781163
1286.7943181371702 5968.329188633988
1287.6286833383328 5931.190944078531
1288.4628439807038 6075.60074549154
1289.2968001213521 5911.14275035884
1290.1305518173194 5846.344411881995
1290.9640991256183 6025.794295619816
1291.7974421032523 5823.710569480235
1292.630580807183 5848.3764697191355
1293.463515294361 6024.145393684531
1294.29624562171 6189.846417170661
1295.12877184613 5960.799029686171
1295.961094024493 5886.318096688949
1296.79321221365 6038.476447227969
1297.6251264704333 6090.026850449349
1298.4568368516466 6229.276008411478
1299.2883434140658 6078.963542199779
1300.1196462144526 5867.887802424264
1300.9507453095375 6134.486190795343
1301.7816407560313 6007.127462984772
1302.6123326106172 5995.935190819448
1303.4428209299622 5880.697615983683
1304.2731057707024 6232.121356415656
1305.1031871894502 5947.265800416148
1305.933065242798 6084.649161331357
1306.7627399873181 5947.364209955727
1307.5922114795467 6432.39381843098
1308.4214797760123 6497.672245231921
1309.2505449332057 6042.338094659328
1310.0794070076026 6169.745432971984
1310.9080660556538 6282.134984309721
1311.736522133786 6402.556706451369
1312.5647752983987 6018.87858524504
1313.3928256058734 5946.856935498765
1314.2206731125661 6248.644036448427
1315.048317874809 6209.817482800814
1315.8757599489109 6098.371157574616
1316.7029993911547 6065.974480961354
1317.5300362578055 6273.866948418554
1318.356870605101 5992.113644911143
1319.183502489257 6116.508352761169
1320.0099319664623 6195.677624111491
1320.836159092889 6203.246370834599
1321.66218392468 6317.943151522786
1322.4880065179532 5962.823379926182
1323.3136269288134 6167.740869914805
1324.1390452133292 6317.276318600239
1324.9642614275563 6368.494101785274
1325.7892756275214 6162.1824481037775
1326.6140878692295 6060.891031634633
1327.4386982086617 6479.002161563564
1328.2631067017755 6168.08942547479
1329.0873134045069 6261.525954475577
1329.911318372764 6116.496729446169
1330.735121662441 6184.309433190592
1331.558723329399 6025.617992029057
1332.3821234294774 6043.247025759651
1333.2053220185007 6086.390838358324
1334.0283191522612 6039.7506700272625
1334.851114886529 6107.532459695815
1335.6737092770582 5948.472244225493
1336.4961023795695 5934.258938833523
1337.3182942497697 5868.776103835517
1338.1402849433325 6052.436848571625
1338.962074515921 5825.582259402976
1339.7836630231632 5819.103198098243
1340.6050505206676 6237.1890832088875
1341.426237064028 6090.782517030933
1342.2472227088037 5845.507927552159
1343.0680075105338 5783.375585685652
1343.888591524741 5956.532949245038
1344.7089748069138 6098.87643970801
1345.5291574125276 5762.126010199788
1346.3491393970307 5712.643746949196
1347.168920815846 5916.317934329504
1347.9885017243778 6020.018600343212
1348.8078821780036 5819.754166047401
1349.6270622320844 5825.076822746579
1350.4460419419447 5717.38482997746
1351.2648213629054 5926.697571787861
1352.0834005502438 5590.024085846049
1352.90177955923 5707.780242841179
1353.7199584451064 5827.886378498447
1354.5379372630887 5827.108269000617
1355.355716068374 5648.743765553677
1356.1732949161305 5679.063165404643
1356.9906738615155 5768.2791256172
1357.8078529596478 5706.887736968152
1358.6248322656375 5775.168266989131
1359.441611834567 5673.5823006517085
1360.2581917214866 5827.92883178244
1361.0745719814367 5689.001942098369
1361.890752669433 5602.990031887073
1362.7067338404577 5604.768398893729
1363.5225155494845 5828.06875727968
1364.3380978514506 5856.6881264224485
1365.1534808012839 5488.1190434063765
1365.9686644538815 5339.939670819053
1366.783648864117 5980.489480570849
1367.5984340868417 5809.90611561428
1368.413020176893 5777.317966240169
1369.2274071890715 5384.548635162891
1370.0415951781652 5780.923366103186
1370.8555841989346 5636.439365246739
1371.6693743061223 5470.261817247988
1372.48296555444 5370.222111989293
1373.2963579985844 5657.093201609569
1374.1095516932255 5562.204407390228
1374.9225466930166 5340.319608316661
1375.7353430525782 5565.231937891259
1376.5479408265164 5434.467011446974
1377.36034006941 5673.151810064539
1378.1725408358216 5596.363518496799
1378.9845431802805 5354.291283541754
1379.796347157304 5741.077278085131
1380.6079528213813 5573.206576807728
1381.4193602269788 5360.131196086928
1382.230569428546 5350.444853346533
1383.0415804805016 5670.008375158999
1383.852393437246 5565.4929529946185
1384.6630083531563 5539.24811221815
1385.4734252825892 5349.617085618853
1386.2836442798798 5397.830015848503
1387.0936653993322 5397.599216872032
1387.9034886952395 5360.138494638003
1388.713114221864 5506.638095689643
1389.5225420334482 5454.968425697805
1390.331772184214 5308.836704973822
1391.1408047283585 5156.019261620526
1391.9496397200564 5346.023909078181
1392.758277213461 5468.667682716636
1393.5667172627054 5534.098344894116
1394.3749599218918 5319.725038915793
1395.1830052451114 5101.8450101123035
1395.9908532864265 5315.559630889582
1396.7985040998774 5427.729819099214
1397.6059577394808 5098.1085234732955
1398.4132142592352 5193.5421442763545
1399.2202737131156 5214.470660776096
1400.027136155073 5372.0980969504035
1400.8338016390353 5171.5953446454805
1401.6402702189134 5159.434134661324
1402.446541948586 5334.941507311986
1403.2526168819204 5152.456692222929
1404.058495072757 5053.84228907209
1404.8641765749107 5142.482632802667
1405.6696614421799 5233.661410308768
1406.4749497283356 5599.144779726918
1407.280041487129 5134.447710059494
1408.084936772295 4928.045404839811
1408.8896356375335 5289.51491747659
1409.6941381365323 5222.139653872395
1410.498444322955 4922.490684752949
1411.3025542504402 5097.520430258739
1412.106467972606 5122.691559566433
1412.9101855430508 5096.42429526253
1413.7137070153458 4864.073223894853
1414.5170324430437 5058.229950464568
1415.320161879672 5132.635796697146
1416.1230953787435 5345.409337259901
1416.925832993742 4936.509232161095
1417.7283747781275 4849.188086865781
1418.5307207853439 5082.170287191337
1419.3328710688093 4917.172067597556
1420.134825681922 4746.987600694052
1420.9365846780584 4894.245132946163
1421.7381481105713 5250.615820864679
1422.539516032788 5058.279336681901
1423.3406884980232 4763.508289379299
1424.1416655595604 4822.74695227225
1424.942447270665 4857.663680220148
1425.7430336845828 5077.796198234353
1426.5434248545298 4770.675338867388
1427.3436208337116 4959.687972205198
1428.143621675301 4924.638113795596
1428.9434274324558 5148.801885641581
1429.7430381583108 4666.935473879178
1430.5424539059713 4798.716012658503
1431.3416747285337 5228.6458611697335
1432.1407006790632 4976.654340811056
1432.9395318106053 5032.706282996343
1433.7381681761835 4760.744276479619
1434.5366098288014 4973.386815101812
1435.3348568214424 4984.641195481457
1436.1329092070573 4835.17332269232
1436.9307670385879 4836.994635299007
1437.7284303689503 5076.155550376045
1438.5258992510335 5132.668247654523
1439.3231737377118 4887.47598238146
1440.1202538818306 4806.74979530123
1440.9171397362225 4901.826870043925
1441.7138313536925 4830.987687653285
1442.5103287870243 4733.864094009592
1443.3066320889775 4653.649435996636
1444.1027413122956 5002.308114466091
1444.8986565096966 4714.3336903216605
1445.694377733882 4726.74416449479
1446.4899050375207 4572.135739053375
1447.2852384732687 4785.905131709646
1448.0803780937622 4795.950662653118
1448.8753239516063 4586.227274430096
1449.6700760993954 4497.341755830099
1450.464634589689 4532.5214469518605
1451.2589994750397 4991.10102253976
1452.0531708079689 4510.50335874405
1452.8471486409799 4453.210603662933
1453.6409330265524 4910.808430333052
1454.4345240171442 4517.338169240983
1455.2279216651987 4621.12452766984
1456.0211260231263 4601.259185585436
1456.8141371433194 4639.901683801841
1457.6069550781594 4750.50846014518
1458.3995798799897 4341.765124985181
1459.1920116011424 4459.958502635729
1459.98425029393 4409.323684341932
1460.7762960106338 4472.474755339574
1461.5681488035225 4557.745883413358
1462.3598087248392 4572.6034500074675
1463.1512758268036 4872.2053987531135
1463.942550161617 4420.29844214066
1464.7336317814625 4372.510522333672
1465.524520738496 4509.662688130179
1466.3152170848552 4413.406668114137
1467.1057208726506 4544.328313389928
1467.8960321539817 4377.700714025486
1468.6861509809169 4277.995906234709
1469.4760774055085 4433.228355417538
1470.265811479785 4474.750575725649
1471.055353255755 4208.43761101251
1471.844702785409 4268.332549119922
1472.6338601207044 4320.651719181617
1473.4228253135934 4528.656424692191
1474.2115984159936 4261.547440418395
1475.0001794798063 4116.627963950399
1475.7885685569145 4466.20512477212
1476.576765699172 4367.028714418047
1477.3647709584238 4205.389269530952
1478.1525843864802 4478.245062494765
1478.9402060351367 4409.9568750911985
1479.7276359561693 4419.195168229498
1480.514874201328 4282.996709025022
1481.3019208223468 4133.445049009626
1482.0887758709323 3942.274782326958
1482.8754393987747 4433.034204678844
1483.6619114575406 4086.278654303508
1484.4481920988783 4188.976247076369
1485.2342813744108 4322.696447170549
1486.0201793357446 4514.160187908489
1486.8058860344572 4174.292395724038
1487.591401522117 4152.625019797723
1488.3767258502594 4133.390024809383
1489.1618590704056 4202.668505573626
1489.9468012340494 3958.867287427672
1490.7315523926754 4327.256560394587
1491.5161125977356 4339.016485526813
1492.3004819006637 4310.209834344446
1493.084660352877 3998.2474678825083
1493.8686480057622 4243.8830410337605
1494.6524449106964 4414.590594198818
1495.4360511190262 4386.100194510774
1496.219466682087 4213.645470331552
1497.0026916511779 4247.743278636965
1497.7857260775945 4192.787143515319
1498.5685700125996 4355.52583562304
1499.3512235074395 4070.1082322273155
1500.133686613337 3988.6344668335623
1500.9159593814966 4100.122178338164
1501.698041863101 4643.6539437716865
1502.4799341093094 3987.2938796665285
1503.2616361712662 3939.166863247448
1504.043148100087 4232.606921416195
1504.8244699468742 4241.649789724319
1505.6056017626997 4038.4371690310118
1506.3865435986281 3983.3261088270506
1507.1672955056893 4204.593391295843
1507.9478575348967 4046.540936341469
1508.7282297372512 4351.255410465443
1509.5084121637192 4123.894667673195
1510.2884048652577 4112.7100853631855
1511.0682078927948 4041.6938684151587
1511.8478212972423 4107.858983694466
1512.6272451294917 4035.818548541846
1513.4064794404076 4049.5234746186775
1514.1855242808433 4171.686914589873
1514.9643797016215 4179.427793623616
1515.743045753552 4240.64178119003
1516.5215224874191 4263.657456268479
1517.2998099539836 3846.1639913332847
1518.077908203999 4047.342498272673
1518.8558172881785 4012.6000414644186
1519.633537257234 4192.7588339775875
1520.4110681618404 4162.8635856240235
1521.1884100526604 4115.385194357526
1521.9655629803365 4014.7339347039365
1522.7425269954856 4271.168283318392
1523.5193021487103 4443.470786404515
1524.2958884905856 4008.1964206017933
1525.0722860716687 3968.255670267356
1525.848494942502 4093.852451074733
1526.624515153595 4030.443013705649
1527.4003467554485 4111.908761498755
1528.175989798534 4222.359038769559
1528.9514443333064 4201.870350717568
1529.726710410203 4389.404462581389
1530.5017880796331 3966.5984822651226
1531.276677391992 4003.682506286791
1532.0513783976457 4355.348248862778
1532.825891146953 4126.497108174601
1533.6002156902414 4099.867165918911
1534.3743520778207 4151.647379674692
1535.1483003599806 4137.963682164161
1535.9220605869923 4195.520894401353
1536.6956328091019 4161.707517571979
1537.4690170765407 4053.130935757884
1538.242213439511 4182.7195640755945
1539.015221948208 4116.621139226824
1539.78804265279 4100.19961364225
1540.560675603405 3909.090136175802
1541.3331208501804 4343.311511584923
1542.1053784432224 4288.669673198977
1542.8774484326168 4080.4721276024766
1543.649330868422 4075.0451520183487
1544.4210258006842 4229.240731443256
1545.1925332794308 4081.019544437656
1545.9638533546604 4140.200543886434
1546.7349860763552 4079.1239549891943
1547.5059314944829 4431.828285080193
1548.27668965898 4124.716532853169
1549.0472606197673 4247.797570287472
1549.817644426752 4023.5200903443197
1550.5878411298072 4304.363366523074
1551.3578507787988 4183.91924869998
1552.1276734235635 4027.338408864104
1552.8973091139233 4162.694869301543
1553.6667578996767 4323.527155010005
1554.436019830604 4082.0668794216144
1555.20509495646 4145.753199072672
1555.9739833269869 4006.459624247669
1556.7426849919011 4034.9592476924017
1557.511200000903 4318.321818628278
1558.2795284036674 4248.944084269788
1559.0476702498509 4093.0988854031866
1559.8156255890954 4294.139452004171
1560.5833944710157 4415.610932377174
1561.3509769452048 4041.504317031207
1562.1183730612447 4142.641750216739
1562.8855828686865 4173.064901717011
1563.6526064170703 4519.736061322632
1564.4194437559127 4317.866738000182
1565.1860949347047 4076.142687681672
1565.9525600029283 4426.124949455506
1566.7188390100328 4511.339214673148
1567.4849320054564 4163.126165222679
1568.250839038612 4139.485966824917
1569.0165601588997 4134.777489645798
1569.7820954156887 4328.768280212548
1570.5474448583373 4119.4385477968135
1571.31260853618 4083.206599761402
1572.0775864985299 3925.9490667221844
1572.8423787946813 4161.192849218985
1573.6069854739108 4015.6114641045474
1574.371406585471 4060.310060545129
1575.1356421785986 4249.408601747862
1575.899692302506 3976.1182080831923
1576.6635570063845 4264.746788930342
1577.4272363394157 4119.2349464067975
1578.190730350747 4079.3001925757453
1578.9540390895163 4203.609638763137
1579.7171626048384 3856.687017556166
1580.480100945806 4002.050081086789
1581.2428541614918 4069.08548315808
1582.0054223009538 4120.703008776741
1582.767805413223 4110.503579296821
1583.5300035473156 4122.6979140875865
1584.292016752228 4303.256907023154
1585.0538450769309 4171.731993916468
1585.8154885703807 3928.680287634478
1586.5769472815136 3885.1276689426245
1587.3382212592405 4099.830203944183
1588.099310552463 4292.58788310562
1588.8602152100484 4164.757355757661
1589.6209352808564 4217.37735045035
1590.3814708137234 3989.5150543390505
1591.14182185746 4146.665837082548
1591.9019884608679 4032.9079040785873
1592.6619706727215 3774.775992091601
1593.4217685417734 4140.840447972908
1594.1813821167616 4432.823073555957
1594.9408114464022 3899.9193719937057
1595.7000565793933 4021.1071323305514
1596.459117564409 4219.723553928279
1597.2179944501113 3971.891851616242
1597.9766872851324 4014.835006301592
1598.735196118092 4173.813370583573
1599.4935209975883 4135.900404203719
1600.2516619721973 4322.184148404638
1601.0096190904787 4027.3800027459765
1601.7673924009723 4002.3749105931265
1602.524981952196 3927.466064619826
1603.2823877926476 3973.3441960205623
1604.0396099708087 3863.3362116720336
1604.7966485351371 3868.8443198761606
1605.5535035340745 3880.1655627468326
1606.3101750160404 4185.483985839966
1607.0666630294363 3815.67474064465
1607.822967622642 3751.1651643521195
1608.5790888440224 4020.5499752431156
1609.3350267419137 4052.055864401377
1610.0907813646445 3984.372831408856
1610.8463527605145 3956.531952671748
1611.601740977805 4097.152458126106
1612.356946064785 3998.0389537712676
1613.1119680696902 3717.3408394140292
1613.8668070407512 3941.661157061757
1614.6214630261748 3825.0598122859055
1615.375936074137 4093.2278714388244
1616.1302262328118 3967.1728341312673
1616.8843335503425 4028.7666557834805
1617.638258074854 3804.383998819257
1618.391999854457 3884.5276452192825
1619.1455589372363 4064.79113051729
1619.8989353712623 3959.92940370679
1620.65212920458 3681.364104676314
1621.4051404852235 3735.102738617975
1622.1579692611976 3838.5556588129666
1622.9106155804966 3633.6707194531928
1623.663079491087 3810.899709009226
1624.4153610409248 4017.703785425036
1625.1674602779385 3798.430206154396
1625.9193772500403 3748.1871781496557
1626.6711120051277 4037.1252132605864
1627.4226645910676 3874.4358006084667
1628.174035055721 3696.8024674780536
1628.9252234469168 3942.2872577758317
1629.676229812474 3811.385801001367
1630.4270542001905 4107.183493912331
1631.1776966578382 3966.854085846924
1631.9281572331747 3743.717735902236
1632.678435973945 4052.8818780119705
1633.4285329278573 3855.115885357791
1634.1784481426203 3565.2403605267887
1634.9281816659113 3736.225816457055
1635.677733545388 3986.5361679401503
1636.4271038286934 3740.425729142633
1637.176292563452 3979.5817557616706
1637.9252997972635 3796.229204775593
1638.674125577716 3938.4220080480454
1639.4227699523672 4285.199950208166
1640.171232968767 3655.4793522629434
1640.9195146744423 3812.9026685665367
1641.6676151168977 4022.783674969008
1642.4155343436178 4044.4912855684706
1643.1632724020765 3739.0543128689596
1643.9108293397167 3779.06477615383
1644.658205203974 3691.924203872338
1645.4054000422566 4408.80111018737
1646.1524139019566 3708.687731801244
1646.8992468304423 3657.030864627953
1647.6458988750728 3730.205566060858
1648.3923700831765 3743.440781404599
1649.1386605020743 3710.6153192870966
1649.8847701790564 4003.6069265018086
1650.6306991614038 3889.9404131960546
1651.3764474963682 3883.7578085461632
1652.1220152311944 3575.8646285751265
1652.867402413096 3925.6202605212247
1653.6126090892776 3776.5380333697767
1654.3576353069184 4087.0952392938757
1655.1024811131829 3944.3477148394463
1655.8471465552066 3755.5271545377136
1656.5916316801213 4040.2495645204826
1657.3359365350298 3931.7773485183657
1658.0800611670165 3833.118514040337
1658.824005623148 3784.8271465404046
1659.5677699504722 3651.1920297303577
1660.3113541960192 3900.0853014270374
1661.054758406799 3715.1319994752994
1661.7979826297997 3625.8972085986834
1662.5410269119966 3689.733900838231
1663.283891300338 4077.013872922935
1664.0265758417645 3734.055115792891
1664.7690805831826 3812.4830860662805
1665.5114055714948 3974.296351835863
1666.2535508535748 4080.9549067575726
1666.9955164762814 3493.8779971171048
1667.7373024864555 3722.3718820553063
1668.478908930916 3871.451373112645
1669.220335856462 3722.1986304450356
1669.9615833098778 3651.4383546708514
1670.7026513379296 3557.0349421202895
1671.44353998736 3770.6357928031844
1672.1842493048916 3775.3346807042626
1672.9247793372379 3548.7155739764976
1673.6651301310812 3822.694860162827
1674.4053017330934 3634.9482145324487
1675.1452941899242 3800.785913930341
1675.885107548207 3276.851689764888
1676.6247418545518 3356.141672708246
1677.3641971555535 3484.2197468225727
1678.1034734977893 3699.8430024881404
1678.8425709278108 3454.604438657243
1679.5814894921605 3756.991645573903
1680.320229237359 3656.889475136467
1681.0587902098978 3779.534333059649
1681.7971724562685 3480.979896626748
1682.5353760229264 3354.1704129242403
1683.2734009563173 3668.4127141221893
1684.0112473028657 3323.6848671750727
1684.7489151089794 3545.975164326011
1685.4864044210462 3663.9105546386622
1686.2237152854377 3179.314627236595
1686.960847748498 3643.2869201632566
1687.6978018565642 3206.8043693989307
1688.434577655944 3276.984343390116
1689.1711751929379 3296.6361146917625
1689.9075945138156 3474.6390172347396
1690.6438356648396 3372.4750619368206
1691.3798986922448 2987.1258062191346
1692.1157836422499 3248.0721155427245
1692.851490561059 3142.8041013011307
1693.587019494853 3333.826271700026
1694.3223704897991 3076.976548792805
1695.0575435920364 3020.325225189463
1695.792538847696 3587.0744867680355
1696.527356302886 3178.9569354852583
1697.2619960036936 2984.5723104517656
1697.9964579961907 3030.6342395221354
1698.730742326432 2852.9217956664243
1699.4648490404488 2855.1694217662625
1700.1987781842563 3049.3814712551043
1700.9325298038548 3284.920290804062
1701.6661039452174 3321.3388414049477
1702.3995006543082 3159.7925162391907
1703.1327199770658 3204.4908815844424
1703.865761959416 2604.2652386036443
1704.598626647261 3267.348512962658
1705.3313140864866 2925.6127168839553
1706.0638243229587 2973.0635805513975
1706.7961574025303 3261.727289127938
1707.528313371029 3085.2603558376404
1708.260292274268 2780.6121485810863
1708.9920941580403 3090.1976335339914
1709.7237190681226 3086.4306241837235
1710.4551670502697 2973.6599023432527
1711.18643815022 2787.3001025813037
1711.9175324136959 3395.6430348882386
1712.6484498863938 2975.0734028919087
1713.379190614005 2768.5260602196586
1714.109754642188 2878.120571067215
1714.8401420165883 2898.960467330792
1715.570352782839 3257.5934572631077
1716.3003869865497 2915.209859466058
1717.0302446733076 2771.1402441307923
1717.7599258886876 2986.875278643124
1718.4894306782444 3252.183347234489
1719.2187590875183 2694.1046458912415
1719.9479111620203 3097.8021858695283
1720.6768869472544 2846.815737517632
1721.4056864887025 3202.675092660561
1722.1343098318284 3206.9453492327357
1722.8627570220742 2957.7130246009424
1723.591028104871 2717.777004992436
1724.3191231256242 2647.1524972427515
1725.0470421297232 2858.2325476125466
1725.7747851625427 2979.1246578081036
1726.5023522694337 3075.0878699406194
1727.2297434957363 2906.525260332271
1727.9569588867635 2635.1403509441852
1728.6839984878152 3102.4738504410675
1729.4108623441734 2511.884570375477
1730.1375505011038 2957.4166999272015
1730.8640630038426 2747.3890526460373
1731.5903998976264 2666.7188609324508
1732.316561227657 2964.753927029953
1733.0425470391274 2677.110502477831
1733.7683573772065 2992.9493600520946
1734.4939922870508 2758.007276317011
1735.2194518137949 2834.278920503991
1735.9447360025606 2886.9651842591898
1736.669844898439 2710.8673572950747
1737.3947785465189 2666.9685422853595
1738.1195369918605 2575.4023442516127
1738.8441202795093 2884.7374375768563
1739.5685284544943 2868.483962488769
1740.292761561821 2943.875108762608
1741.0168196464838 2941.10387167162
1741.7407027534518 2869.299198871612
1742.464410927687 2894.805480726757
1743.187944214118 2797.6620801503695
1743.9113026576688 2823.3868910981123
1744.634486303241 2720.245121836862
1745.3574951957125 2782.4681592874435
1746.0803293799509 2949.65976293804
1746.8029889008048 2859.2256891316765
1747.5254738031017 2896.740945561153
1748.2477841316504 2695.8461324435557
1748.969919931249 2690.8303255136575
1749.6918812466665 2697.3951865478666
1750.4136681226646 2959.4976790658807
1751.1352806039777 2902.840709383042
1751.856718735331 2406.22456199011
1752.5779825614281 2510.601734610236
1753.2990721269507 2803.4798037575288
1754.0199874765676 2821.4645411928395
1754.7407286549314 2528.472083554184
1755.4612957066693 2652.1093419619583
1756.1816886763954 2572.7105208021303
1756.9019076087097 2936.847551382502
1757.6219525481865 2792.7754983585137
1758.3418235393856 2765.584510643678
1759.061520626854 2789.015900994092
1759.7810438551096 2923.5451775388556
1760.5003932686614 2572.113597684407
1761.2195689119999 2949.7132327678687
1761.938570829594 2800.509256336967
1762.657399065898 2873.4857808116108
1763.376053665348 2524.9110519181654
1764.0945346723602 2591.9179120130093
1764.812842131334 2977.8311589311666
1765.5309760866512 2497.6924322484538
1766.2489365826787 2554.3243399014186
1766.9667236637597 2612.762385851015
1767.684337374223 2490.609939748546
1768.401777758383 2490.0329497986922
1769.1190448605284 2524.365977157214
1769.836138724937 2501.818049407309
1770.5530593958665 2703.709447819817
1771.2698069175603 2965.6070915697874
1771.9863813342326 2793.263748629942
1772.702782690094 2594.149683579949
1773.4190110293293 2909.7809643128935
1774.1350663961111 2760.1897212518925
1774.8509488345844 2585.3567595613836
1775.5666583888924 2622.4471603439656
1776.2821951031437 2943.121347979877
1776.9975590214362 2649.2820871651484
1777.7127501878585 2829.563645464369
1778.4277686464684 2760.3721131112734
1779.1426144413108 2857.9246908911264
1779.8572876164162 2780.1661642654935
1780.571788215797 2484.0806225023307
1781.2861162834415 2701.8461460094245
1782.0002718633277 2571.0081900154055
1782.7142549994132 2760.360387803425
1783.4280657356376 2654.197970869142
1784.141704115922 2580.7490124908436
1784.855170184177 2607.9077634548453
1785.5684639842839 2716.5406687078735
1786.2815855601148 2408.0181363486363
1786.9945349555237 2675.1232507546283
1787.707312214343 2464.9824945186892
1788.4199173803918 2458.0837843276754
1789.132350497468 2451.386943986432
1789.8446116093583 2565.061752502876
1790.556700759822 2547.485057939019
1791.2686179926077 2620.293519873483
1791.9803633514493 2569.4903383131405
1792.6919368800554 2339.127053213333
1793.4033386221236 2705.0078963790415
1794.1145686213295 2740.6119492264197
1794.8256269213307 2961.148402982072
1795.536513565774 2766.870488314115
1796.247228598284 2395.9009569364543
1796.9577720624693 2489.491000979614
1797.6681440019165 2622.6750914678023
1798.3783444602013 2666.4077790916785
1799.0883734808776 2698.589480598551
1799.7982311074884 2653.231603325721
1800.5079173835475 2620.8268550009716
1801.2174323525633 2754.9067458986965
1801.9267760580187 2560.3422434538475
1802.635948543386 2675.286394856511
1803.3449498521113 2399.149904116978
1804.0537800276325 2688.5896109646346
1804.7624391133668 2604.967969658979
1805.47092715271 2328.2343318751473
1806.1792441890484 2368.715700628378
1806.8873902657433 2698.008653142307
1807.5953654261448 2599.458909308989
1808.3031697135812 2485.8525561301085
1809.0108031713662 2531.696405150178
1809.71826584279 2560.9099246948567
1810.425557771141 2561.7633708123167
1811.1326789996747 2490.4264149231412
1811.839629571632 2418.8706220596864
1812.5464095302468 2535.9798314294885
1813.2530189187182 2505.429401661483
1813.959457780249 2530.698571533659
1814.6657261580076 2712.091240056858
1815.371824095153 2550.3467735894783
1816.0777516348262 2764.5636324853212
1816.78350882015 2260.052162230581
1817.4890956942272 2303.8574372562503
1818.1945123001533 2374.5635100683603
1818.8997586809928 2583.56145579027
1819.6048348798067 2480.279020363584
1820.3097409396287 2489.170403076901
1821.0144769034796 2834.3168225423906
1821.7190428143622 2622.4694007920853
1822.423438715261 2668.842075457797
1823.1276646491478 2415.308393115349
1823.8317206589727 2687.3277772854512
1824.5356067876692 2488.88143737045
1825.2393230781581 2620.5521718726413
1825.942869573335 2270.5963797906224
1826.646246316086 2267.7216507706785
1827.3494533492758 2607.967210904369
1828.052490715756 2627.099314038988
1828.7553584583547 2562.167944765076
1829.458056619891 2657.1807471791053
1830.1605852431585 2476.211212152537
1830.8629443709433 2263.2170513193146
1831.5651340460063 2394.7717423713016
1832.2671543110919 2301.506453342089
1832.9690052089318 2682.288179671348
1833.6706867822395 2229.9001849568785
1834.3721990737104 2576.059477191548
1835.0735421260233 2628.9455751666223
1835.774715981841 2481.856712699478
1836.4757206838058 2714.5132961915456
1837.1765562745459 2492.924434696627
1837.8772227966747 2294.286210529822
1838.5777202927839 2429.4184682820883
1839.2780488054523 2387.301132641763
1839.9782083772352 2258.0289392267414
1840.6781990506806 2749.3934055547998
1841.378020868313 2420.6017351558785
1842.0776738726418 2431.048331709327
1842.777158106157 2390.581709939051
1843.4764736113375 2279.7655145726103
1844.1756204306403 2560.596947349997
1844.8745986065078 2496.847604903427
1845.5734081813607 2186.0607152489624
1846.2720491976124 2380.1816707516987
1846.970521697649 2477.4358633421098
1847.6688257238511 2437.503283111979
1848.3669613185684 2375.8067779677526
1849.0649285241452 2149.332959021511
1849.7627273829057 2543.422111386316
1850.460357937156 2417.559261003603
1851.1578202291857 2106.197035282065
1851.8551143012664 2388.786059142151
1852.5522401956569 2422.9336054830383
1853.2491979545957 2768.420519527808
1853.9459876203055 2375.5963647680815
1854.6426092349902 2226.7317045712653
1855.3390628408451 2335.7983537934706
1856.0353484800362 2682.482581000481
1856.7314661947203 2562.744281958126
1857.4274160270397 2230.3459085020622
1858.123198019115 2469.052172839053
1858.8188122130487 2231.28608884784
1859.5142586509319 2370.7511095480513
1860.209537374838 2357.8633213392686
1860.9046484268183 2271.195385218133
1861.599591848917 2618.4184219140507
1862.294367683151 2398.837745997268
1862.988975971528 2293.648334442373
1863.6834167560355 2436.2307740703604
1864.3776900786452 2483.2282630282034
1865.0717959813119 2301.154730403018
1865.7657345059724 2226.9612601631616
1866.4595056945564 2460.7115846485913
1867.1531095889586 2479.2237163248064
1867.846546231076 2206.841079384948
1868.5398156627743 2578.6902296190356
1869.2329179259123 2250.8838370994777
1869.9258530623283 2564.734920285005
1870.618621113843 2213.5032807302596
1871.3112221222636 2282.874868024903
1872.0036561293764 2290.804792275089
1872.695923176956 2425.263865192256
1873.3880233067594 2531.753735798492
1874.0799565605212 2173.6269956557253
1874.7717229799673 2310.0853990420906
1875.4633226068036 2630.183492114541
1876.1547554827175 2525.5446754692375
1876.8460216493859 2187.6153534155137
1877.5371211484617 2262.7539787532305
1878.2280540215852 2603.351476712526
1878.9188203103804 2239.82109016139
1879.6094200564548 2323.0791430059003
1880.299853301396 2231.7754184022683
1880.9901200867826 2586.597713896858
1881.6802204541673 2384.306708793758
1882.3701544450942 2477.5742124853305
1883.059922101087 2108.547409388231
1883.7495234636517 2200.342116742474
1884.4389585742792 2292.2271351909853
1885.1282274744517 2194.859647832554
1885.8173302056166 2275.676346218132
1886.506266809225 2356.604477888264
1887.195037326701 2026.9640991868534
1887.8836417994517 2301.7779365942424
1888.5720802688702 2565.4122402065577
1889.260352776333 2450.110486433889
1889.9484593632042 2551.393746567823
1890.63640007082 2366.1164065764947
1891.3241749405151 2187.759774027458
1892.0117840135954 2371.7888321603136
1892.6992273313572 2351.3075356814634
1893.3865049350788 2188.7127471876856
1894.0736168660223 2276.8677214810095
1894.7605631654333 2365.0803719616015
1895.4473438745408 2038.7575312126232
1896.133959034556 2587.5335066399643
1896.820408686679 2384.313889775985
1897.506692872088 2593.3981349393325
1898.192811631945 2369.0290867774156
1898.8787650073991 2186.911679116513
1899.5645530395832 2467.7617376602316
1900.2501757696118 2639.586449708643
1900.9356332385796 2669.1761934475735
1901.620925487574 2699.0214263540843
1902.3060525576602 2368.45217387542
1902.9910144898859 2319.8946390756087
1903.6758113252872 2165.0020857061995
1904.3604431048789 2390.3219753541853
1905.0449098696663 2400.244190520285
1905.7292116606295 2339.9667346904516
1906.4133485187394 2446.658689080314
1907.0973204849488 1922.7551850447987
1907.7811276001976 2059.3399975221655
1908.4647699053967 2382.111777889216
1909.1482474414588 2300.577279007747
1909.8315602492694 2218.7722852100496
1910.5147083696957 2468.804690143532
1911.1976918436012 2296.173008107625
1911.880510711815 2104.740678288569
1912.5631650151681 2560.313549998724
1913.2456547944657 2225.789335923604
1913.927980090495 2179.4076050657563
1914.6101409440362 2256.6256849429274
1915.2921373958416 2366.2990346046577
1915.9739694866603 2242.347618463634
1916.655637257214 2559.4241403167557
1917.3371407482136 2388.2797033533125
1918.0184800003572 2566.9969699914313
1918.6996550543154 2341.754548608284
1919.3806659507554 2379.5328122857536
1920.0615127303208 2257.587574699141
1920.7421954336423 2541.2351673103944
1921.4227141013343 2454.3404198754024
1922.103068773993 2383.116707674438
1922.783259492202 2438.358025708721
1923.4632862965227 2296.4253320259986
1924.1431492275078 2208.451800589154
1924.8228483256917 2055.240163722812
1925.5023836315922 2232.073318406824
1926.1817551857057 2401.3273222053995
1926.8609630285227 2074.924935856993
1927.5400072005123 2318.836225761107
1928.218887742125 2169.3409854524243
1928.8976046938005 2044.9918861870387
1929.5761580959588 2367.7876560479954
1930.2545479890086 2223.032257603382
1930.9327744133352 2009.456762466827
1931.6108374093164 2271.5165328416547
1932.2887370173066 2615.2099628712613
1932.9664732776473 2493.2915206137504
1933.6440462306673 2371.002492880048
1934.3214559166754 2152.413333798115
1934.9987023759659 2620.213290389038
1935.675785648813 2400.3574001462057
1936.3527057754836 2515.2110162157837
1937.029462796223 2630.332350458587
1937.70605675126 2142.8765276022987
1938.3824876808085 2166.1687547634515
1939.058755625072 2206.7014295850195
1939.7348606242267 2145.3495197951024
1940.4108027184448 2233.7261217413766
1941.0865819478713 2290.769209971115
1941.7621983526478 2158.507885610798
1942.4376519728921 2046.9925709035701
1943.1129428487038 2294.756370359993
1943.7880710201734 2280.006525554007
1944.4630365273733 2414.1037095416195
1945.1378394103576 1968.3573128319872
1945.8124797091714 1937.1235558085978
1946.4869574638324 1905.7600418462625
1947.161272714353 2142.9643448252564
1947.8354255007234 2329.3794397964384
1948.5094158629272 2045.3984654089065
1949.1832438409183 2370.3430447053083
1949.8569094746435 2367.625735821752
1950.530412804037 2565.504887080937
1951.2037538690092 2447.514677945722
1951.8769327094578 2232.1985564060315
1952.5499493652678 2180.662640193433
1953.222803876306 2431.3836864264636
1953.895496282421 2271.697672946836
1954.5680266234522 2278.191631516266
1955.2403949392155 2289.4687782969704
1955.9126012695142 2045.1938609337406
1956.5846456541403 2281.6582067242316
1957.2565281328643 2153.2701226718846
1957.9282487454457 2373.601144575616
1958.5998075316202 2387.0467940072895
1959.27120453112 2218.602377094204
1959.9424397836501 2294.79565186048
1960.613513328908 2321.155920248212
1961.2844252065697 2443.6686250905495
1961.9551754563017 2151.0623088868424
1962.6257641177453 2047.5226913326783
1963.29619123054 1988.956997190473
1963.966456834296 1950.8692376420797
1964.6365609686181 2004.1957347356552
1965.306503673086 2368.7134154080636
1965.976284987275 2039.8915171954734
1966.645904950734 2151.338104535519
1967.315363603002 1937.3400898267023
1967.9846609836077 2147.349059413347
1968.6537971320486 2107.6873520992267
1969.3227720878222 2270.3269122733786
1969.9915858904042 2257.213926149209
1970.660238579252 2333.0620587526414
1971.3287301938108 2134.319259720717
1971.997060773514 2184.8174284643374
1972.665230357772 2001.1140196711253
1973.3332389859843 2139.2310536026907
1974.0010866975335 2014.125683331426
1974.6687735317864 2359.0890287165116
1975.3362995280932 2280.7231941993477
1976.003664725793 2230.939433165915
1976.6708691642052 1924.3719671056642
1977.3379128826364 2164.4891042888385
1978.004795920373 2328.1077293259677
1978.6715183166925 2056.97052898883
1979.3380801108524 2338.741192874938
1980.0044813420973 2138.6661099029666
1980.6707220496555 1792.7472315765685
1981.3368022727373 2141.636622955048
1982.0027220505417 2240.3457676550343
1982.66848142225 1781.123962506076
1983.3340804270283 1841.9184803117787
1983.999519104027 2165.546304067079
1984.6647974923835 2233.969291822784
1985.329915631215 2209.0901473261424
1985.99487355963 2125.7773821557
1986.6596713167146 2328.026994748803
1987.3243089415428 1973.5177070560258
1987.9887864731754 2287.7458743128373
1988.6531039506553 2021.2917574627281
1989.3172614130071 1991.2084204392982
1989.9812588992481 1961.104482679289
1990.645096448372 1787.8333156054669
1991.3087740993633 2038.5454018293763
1991.9722918911848 2085.0167981030927
1992.635649862792 2193.4797181097265
1993.2988480531185 2296.0991897224276
1993.9618865010852 2209.433699030587
1994.6247652455968 2122.69090314211
1995.287484325545 2029.2527854567543
1995.9500437798033 2114.1590559107726
1996.6124436472292 2062.541389074531
1997.2746839666706 2375.758527496126
1997.936764776954 2051.152030992611
1998.598686116895 1918.3673190746092
1999.2604480252903 2452.016729487951
1999.9220505409212 2219.631972646802
2000.5834937025593 1949.5920135094711
2001.2447775489582 2042.15037066289
2001.9059021188514 2125.456491369644
2002.5668674509616 2054.0716553990314
2003.2276735839987 2056.688593055632
2003.8883205566508 2323.51658967474
2004.5488084075987 2012.0138682322092
2005.2091371755014 1969.9673254760612
2005.8693068990033 1775.8422520478937
2006.5293176167397 1845.1025915194812
2007.1891693673224 1914.6475032922597
2007.848862189354 1951.8147509417133
2008.5083961214223 2050.507149313704
2009.1677712020955 1880.2537588231603
2009.8269874699254 1998.1026709770072
2010.4860449634598 1956.8776652628512
2011.1449437212177 1915.6599530905612
2011.8036837817108 2402.2942256245897
2012.4622651834325 2182.8104980483376
2013.1206879648653 2179.7780571580506
2013.7789521644736 1948.9539059118529
2014.4370578207036 2272.6547746360384
2015.0950049719922 2048.6258177020104
2015.7527936567585 2108.6428112933163
2016.4104239134067 2134.966454545326
2017.067895780323 2584.399415355201
2017.725209295886 2467.799013192137
2018.3823644984514 2350.8138281511538
2019.0393614263648 2145.834066938588
2019.6962001179545 1997.7037202722101
2020.3528806115355 2245.360290260707
2021.0094029454067 2106.5675316765537
2021.6657671578487 1826.4618328012984
2022.321973287133 2070.7408633254377
2022.9780213715148 1973.0885988346085
2023.6339114492293 2153.072142638509
2024.2896435585026 2009.2906883782368
2024.9452177375442 1991.0534468845376
2025.600634024544 2401.8503886343983
2026.2558924576842 2211.5939922128427
2026.9109930751292 2172.1390294681487
2027.565935915025 2109.79069996926
2028.2207210155066 2480.2478275224557
2028.8753484146964 2563.8060467368837
2029.529818150695 2441.1826079732064
2030.1841302615903 2318.003830034966
2030.8382847854573 1938.0905630482616
2031.4922817603601 2100.5201201575173
2032.1461212243357 2183.181872594735
2032.7998032154192 1679.1086122487627
2033.4533277716218 1987.1120024299973
2034.1066949309443 1899.9603804701342
2034.7599047313688 1841.0762217280949
2035.4129572108704 2188.069478272748
2036.0658524074006 2059.762702021642
2036.7185903589016 2091.097454505859
2037.3711711032956 2080.6607983344734
2038.023594678496 2062.6375638147138
2038.675861122394 1916.5901510063316
2039.3279704728757 1891.5791585229877
2039.9799227678031 1866.6851921859331
2040.6317180450278 1964.4029966478422
2041.2833563423865 2001.3529146646772
2041.9348376977014 2330.8072626066255
2042.5861621487784 2206.7795272296257
2043.2373297334088 1995.3611688995977
2043.8883404893695 2241.8771358384315
2044.5391944544208 2127.9344169848423
2045.1898916663158 2202.4825636376904
2045.8404321627804 2260.163608241614
2046.4908159815368 1921.4101441930252
2047.1410431602853 1940.5276941022973
2047.7911137367173 1853.0556027101095
2048.441027748504 1842.7725375414932
2049.090785233302 1832.4108151900832
2049.7403862287592 1826.4952350814256
2050.389830772503 1827.3282391607966
2051.0391189021466 1828.2135746109393
2051.688250655294 2038.2727415836448
2052.337226069527 1724.558997062483
2052.986045182417 2182.701401454722
2053.634708031521 2195.067461553329
2054.283214654375 2207.601104405864
2054.931565088511 1796.5618082555961
2055.579759371436 1754.0870634769385
2056.2277975406523 2145.4637869474886
2056.8756796336384 2277.113759484047
2057.5234056878617 1761.286807496191
2058.1709757407752 2002.151699357808
2058.8183898298194 2338.0708860627033
2059.465647992416 2279.6635058012153
2060.1127502659747 2213.1295633927707
2060.759696687888 2194.095170102924
2061.4064872955405 2175.077582616427
2062.053122126292 2328.4281485367433
2062.699601217497 2061.934721806452
2063.345924606485 1795.4436490745193
2063.992092330587 2123.8904664807624
2064.638104427102 1994.1909684547895
2065.283960933324 2382.1352995893767
2065.92966188653 2129.8570971783847
2066.5752073239855 2118.270076053237
2067.2205972829397 1767.9348747992312
2067.86583180062 2047.3437737313484
2068.5109109142522 1909.4651960438582
2069.15583466104 2000.2780285344852
2069.8006030781708 1702.8362278771951
2070.445216202821 1908.7060835609761
2071.089674072153 2269.7705047344734
2071.7339767233116 2125.9714286345456
2072.3781241934303 2074.4718235127857
2073.0221165196253 1986.439934745902
2073.6659537390024 1769.3362130996193
2074.3096358886505 2129.1282032211257
2074.953163005637 1888.0029686419307
2075.596535127028 1769.0502115307913
2076.2397522898664 1890.3897289975673
2076.882814531182 1945.4492710259954
2077.5257218879924 1991.4048285875754
2078.1684743973 1789.646327961144
2078.8110720960885 1739.1083070124132
2079.453515021336 1875.0888404215032
2080.095803209997 2011.1760894307397
2080.7379366990135 2045.599031366574
2081.37991552532 2111.062553517234
2082.0217397258275 2140.8888472049907
2082.6634093374414 1712.4954185511822
2083.3049243970418 1940.4056326441344
2083.9462849415067 2056.8929744762922
2084.587491007689 2106.788104146094
2085.2285426324324 1841.7375505527514
2085.869439852564 2046.6441586142405
2086.510182704902 1804.4043136846042
2087.1507712262483 2060.628900880278
2087.791205453381 1738.0150238756792
2088.4314854230743 2103.52951045167
2089.0716111720867 1990.3734057284814
2089.7115827371617 1723.7495155204604
2090.351400155023 1793.235334247339
2090.991063462385 1862.9358128542801
2091.6305726959527 1655.1275800503784
2092.2699278924047 2004.2139374415954
2092.9091290884153 1805.622014101125
2093.548176320641 1681.4128517503643
2094.187069625721 1663.3744471725204
2094.8258090402887 1645.295865551004
2095.464394600951 2088.990096800567
2096.102826344313 1986.8616348041137
2096.741104306955 2083.044899260944
2097.379228525453 1689.0491071409015
2098.017199036358 1723.8932114179854
2098.6550158762147 2150.097827515653
2099.2926790815527 2194.9259050957958
2099.9301886888825 2030.7458074177362
2100.5675447347076 1944.2265162235822
2101.2047472555114 2206.700030505618
2101.841796287761 1987.4601028900083
2102.47869186792 1951.6249391016797
2103.1154340324265 1926.4217924704753
2103.752022817709 1866.7034009625124
2104.388458260184 1742.6020636352714
2105.024740396251 1902.994915281018
2105.660869262292 1802.5572634503155
2106.296844894685 2209.4246793177676
2106.93266732978 1974.0981391940034
2107.5683366039284 1859.1559830420006
2108.2038527534532 2123.87533407633
2108.8392158146726 2208.1048832720844
2109.4744258238843 1861.2820996772377
2110.1094828173755 1914.1839113302135
2110.744386831422 2275.60679691347
2111.3791379022787 1965.0149581048445
2112.01373606619 2124.6187049916934
2112.648181359389 2134.684706119365
2113.28247381809 1872.2910889193677
2113.916613478492 2045.6140216769695
2114.550600376786 1849.0330058206687
2115.1844345491445 1834.1713748337238
2115.818116031729 1821.600184120245
2116.451644860679 1996.4504907136136
2117.085021072133 1616.8529533051128
2117.718244702204 1895.3812594320757
2118.3513157869984 1718.759150260333
2118.984234362604 1618.7595736856092
2119.617000465092 1749.750391414155
2120.249614130529 1839.8939748889702
2120.8820753949585 1930.1830133212509
2121.5143842944162 1855.7408957261807
2122.14654086492 1800.9338272121574
2122.7785451424734 2163.9356777597322
2123.4103971630702 2107.904658436805
2124.042096962681 2051.975255581335
2124.6736445772767 2205.101555143513
2125.305040042802 1795.685347297987
2125.936283395191 1932.9035017546819
2126.567374670365 2028.2933669620058
2127.198313904233 1749.3814713755532
2127.8291011326855 1755.036430528063
2128.4597363916037 1760.4946616736336
2129.0902197168507 1799.333080462023
2129.720551144279 1682.5370028605626
2130.3507307097225 2352.3626905403275
2130.980758449008 2176.950682998629
2131.6106343979427 2143.948809672976
2132.2403585923203 2110.7987944290808
2132.8699310679276 2158.03088746712
2133.499351860526 1926.8423730696134
2134.1286210058715 1865.32008573633
2134.7577385397053 2004.382335015946
2135.3867044977487 2143.6867994609916
2136.0155189157176 2300.1792637770277
2136.644181829308 2187.8155343423396
2137.2726932742025 2000.2383379441799
2137.901053286074 2108.442947124186
2138.5292619005777 1610.6767488690375
2139.1573191533535 1728.9223557548535
2139.7852250800315 2091.350921664663
2140.4129797162295 1924.6327586290965
2141.0405830975433 1648.0392571777181
2141.6680352595613 1673.5647979265664
2142.2953362378576 1699.1582882465646
2142.9224860679915 1728.6073404018796
2143.549484785508 1691.0957679324824
2144.1763324259373 1862.3632903577623
2144.803029024799 1819.7773131971421
2145.429574617594 1737.7090210959789
2146.0559692398165 1944.7626779770585
2146.682212926942 1614.7017132612777
2147.308305714432 1817.8727234865219
2147.9342476377333 2063.164942437683
2148.5600387322847 2307.424530670022
2149.185679033506 2046.5196196185655
2149.8111685768017 1860.583406782123
2150.4365073975678 1623.5449906991325
2151.061695531187 1571.349681537868
2151.686733013021 1760.009132782896
2152.311619878423 1949.1605022965698
2152.9363561627342 1929.433460264765
2153.560941901278 1723.7903043262788
2154.1853771293663 2031.9095316385215
2154.809661882293 1925.712890838573
2155.433796195348 2195.4469812510315
2156.0577801037944 2134.3055593685654
2156.681613642895 2072.8884136195
2157.3052968478896 1771.4188532579349
2157.928829754006 1929.0430696745382
2158.552212396462 2061.1077546593215
2159.1754448104566 1984.8117362172004
2159.7985270311783 1632.886009864475
2160.4214590938027 1177.5391858330634
2161.0442410334927 1414.5895547628793
2161.6668728853874 1532.6774286742505
2162.289354684628 1651.0415569581314
2162.911686466332 1749.5879718185654
2163.533868265602 2094.330731894921
2164.1559001175337 2287.9573467487735
2164.7777820572046 2044.6650350764826
2165.399514119681 1798.3163852280184
2166.021096340013 1695.7739106597335
2166.6425287532384 2024.780677709269
2167.263811394385 1617.8893013064026
2167.8849442984574 1673.461258756895
2168.505927500455 1729.3156761517591
2169.126761035366 1887.956946824773
2169.7474449381552 1674.656406941402
2170.367979243778 1801.8650992485152
2170.9883639871823 1929.4940320372757
2171.608599203293 1681.493394744582
2172.2286849270276 2355.33378192223
2172.8486211932886 2380.840055983219
2173.4684080369625 1834.469959291405
2174.0880454929265 1596.6719462004817
2174.7075335960417 1459.961606188474
2175.3268723811543 1466.4116773009353
2175.9460618831 1472.8993665642497
2176.565102136701 1808.93716853842
2177.1839931767627 1736.2964623314595
2177.802735038078 1663.4887174134274
2178.421327755432 1661.7044398896874
2179.0397713635866 1601.2326650616174
2179.658065897298 1771.443965462206
2180.276211391305 1574.5086022976338
2180.8942078803357 1655.2981466361475
2181.5120553991 1895.5932756766597
2182.129753982299 1885.6362059869032
2182.7473036646206 1875.6657514961212
2183.3647044807367 1896.630565473261
2183.9819564653044 1563.8421692130282
2184.599059652968 1945.6557793600684
2185.216014078367 1872.5243213110662
2185.832819776113 1511.5197560852168
2186.4494767808137 1592.3647965282755
2187.065985127063 1673.252712522894
2187.682344849436 1696.5653640303105
2188.298555982501 2083.18563026948
2188.9146185608097 1650.6242199485284
2189.530532618901 2047.1976523269834
2190.1462981912937 1929.2310356949524
2190.761915312507 2027.4468238540126
2191.377384017036 1735.1169680695432
2191.9927043393654 1735.3699209301735
2192.6078763139667 1983.308513866102
2193.2228999753006 1586.527345828437
2193.837775357808 1803.4510508781786
2194.452502495922 1619.1871134777925
2195.0670814240602 1797.5416732843605
2195.6815121766285 1401.7091603980693
2196.2957947880186 1420.9636583450751
2196.9099292926057 1440.2619712239834
2197.523915724758 1876.3639703018357
2198.137754118825 1666.3225562212149
2198.7514445091456 2209.8546291609373
2199.3649869300443 1697.6689514410223
2199.9783814158327 2209.489671943113
2200.5916280008096 2397.548673160845
2201.2047267192593 2033.5144330842638
2201.8176776054515 1932.0735537281448
2202.430480693649 1953.975115589239
2203.0431360180955 1975.9604130357882
2203.6556436130195 2074.6178083300038
2204.268003512645 1388.7807904021806
2204.8802157511727 1626.6396701232338
2205.492280362796 2031.6053786758625
2206.1041973816937 1957.5917719992624
2206.715966842032 1852.506364129052
2207.3275887779655 1995.5448498981236
2207.93906322363 1826.6608932205702
2208.550390213153 1961.1333442122718
2209.1615697806465 1982.844318617486
2209.7726019602105 1582.6328311175023
2210.3834867859277 1524.4594468178216
2210.9942242918787 1787.9400748890305
2211.6048145121167 1781.6999491746112
2212.2152574806914 2566.784590549794
2212.825553231638 1757.754017276461
2213.435701798975 2710.6029569153884
2214.045703216707 1895.5574964071627
2214.655557518832 1377.127784586972
2215.2652647393297 1436.483313301212
2215.874824912169 1630.9829574294183
2216.4842380713 1826.1022660167775
2217.09350425067 1525.3517944391392
2217.7026234842033 2013.0021964148832
2218.311595805819 2088.268968383274
2218.9204212494133 1723.8221516952538
2219.52909984888 2168.9379863184754
2220.137631638092 2126.1717580607606
2220.7460166509154 2083.18219879709
2221.354254921198 1584.7626017583814
2221.9623464827764 1847.4446816764707
2222.5702913694713 1735.6721484293726
2223.178089615096 1748.070941071094
2223.7857412534486 1760.493393462657
2224.39324631831 1459.6128383916625
2225.000604843457 1768.0380668903458
2225.607816862641 2009.1061431149985
2226.214882409611 1899.5121151367978
2226.8218015180973 2084.4588057124843
2227.4285742218217 1842.8622308309482
2228.0352005544864 1652.943902169482
2228.6416805497847 1571.3225062878341
2229.248014241399 1551.8669973298483
2229.8542016629945 1499.0576286078058
2230.460242848223 1868.228924087595
2231.0661378307304 1679.2207098689855
2231.671886644139 1490.0362041484902
2232.277489322065 1476.4409320323361
2232.8829458981127 1185.1795505868924
2233.48825640587 1903.1122002270854
2234.0934208789095 2338.138828820201
2234.6984393507955 2074.599785724084
2235.3033118550793 1962.348497308174
2235.9080384252975 1762.4815360688608
2236.5126190949723 1600.3356106313158
2237.1170538976166 1712.6497568071732
2237.721342866729 1320.7202728415818
2238.32548603579 1554.4799491917288
2238.9294834382763 1807.6412864616086
2239.533335107646 1753.3796573920704
2240.1370410773434 1754.7551685388594
2240.740601380803 1456.6492882871335
2241.3440160514474 1613.5373045029305
2241.9472851226783 1864.8102608934573
2242.550408627896 1613.240718006126
2243.1533866004793 1621.9700167588005
2243.756219073799 1630.7416826369015
2244.3589060812064 1583.4836661269637
2244.961447656049 1570.1331455574068
2245.5638438316564 1657.3040574381962
2246.166094641343 1772.7921565497777
2246.7682001184166 1761.1875236701205
2247.3701602961664 1749.5871619717914
2247.971975207871 1967.9622783646632
2248.5736448867974 2100.579552082011
2249.175169366197 1766.5450302668469
2249.7765486793123 1754.6972714632334
2250.3777828593684 1732.285810833301
2250.9788719395783 1732.077885023543
2251.579815953146 1727.2978059346551
2252.1806149332606 1425.4748526511235
2252.781268913097 1648.830667353448
2253.381777925817 1551.2169274559546
2253.9821420045737 1800.3237601922224
2254.5823611825035 1792.4731666443386
2255.1824354927303 1691.84330869689
2255.782364968365 1528.2193567078514
2256.38214964251 1364.4165578938175
2256.9817895482483 1591.9384319091876
2257.5812847186553 1692.2560869101283
2258.180635186791 1364.5944912375558
2258.779840985704 1567.2465100448198
2259.37890214843 1586.674442852028
2259.97781870799 1753.785502915812
2260.5765906973957 1921.209779506819
2261.175218149645 1675.4415884620873
2261.773701097718 1636.8883164708197
2262.3720395745895 1598.2251119729735
2262.970233613216 1333.2598330688518
2263.568283246548 1629.549946003863
2264.1661885075137 1494.386343772374
2264.763949429038 1463.604191517391
2265.3615660440246 1925.8921714239525
2265.959038385374 1533.9697319597985
2266.5563664859637 1517.6063433135748
2267.153550378669 1501.2910130524383
2267.7505900963424 1951.527489191234
2268.3474856718312 1479.5453542237349
2268.9442371379664 1574.0073258135667
2269.5408445275643 1567.9976359570353
2270.1373078734377 1503.1940819755407
2270.7336272083758 1438.2564843204468
2271.32980256516 1589.8435980559746
2271.925833976562 1632.8746461106866
2272.5217214753357 1593.8647504437988
2273.117465094223 1554.744888735901
2273.7130648659586 1371.7786410778604
2274.308520823257 1590.1093816366606
2274.903832998827 1625.5493976033597
2275.4990014253563 1661.0446576694308
2276.094026135528 1895.6748150988024
2276.6889071620117 1631.7044450322078
2277.2836445374614 1815.5729477440862
2277.878238294519 1605.0605958045344
2278.472688465812 1424.3374300562134
2279.066995083962 1243.2932726644383
2279.6611581815705 1486.1406945060553
2280.255177791232 1526.0564948671054
2280.8490539455233 1756.3758216417477
2281.442786677013 1987.1812607734082
2282.0363760182554 1995.239982920535
2282.6298220017943 1682.5879043370746
2283.223124660155 2099.122485452918
2283.816284025859 2086.626671849054
2284.4093001314086 2074.1885371991802
2285.002173009292 1643.2321098654425
2285.5949026919952 1627.9348715755173
2286.1874892119777 1549.834567866614
2286.7799326016993 1484.0502896820685
2287.3722328936 1418.029480384666
2287.964390120109 1268.3954445946201
2288.556404313642 1762.4122603659478
2289.1482755066027 2206.7557278746285
2289.7400037313873 1736.9381796772955
2290.3315890203703 1553.6202165691361
2290.9230314059205 1449.8021221682689
2291.5143309203904 1345.8607883285144
2292.1054875961236 1535.3464076126447
2292.6965014654506 2197.2690040031334
2293.287372560684 1720.6435508199531
2293.878100914131 1618.4930473109514
2294.468686558086 1516.176508398753
2295.059129524827 1635.554670340805
2295.649429846617 1609.4797386973257
2296.239587555716 1583.3024935586768
2296.8296026843636 1860.9645788656362
2297.419475264791 1675.8794104217345
2298.0092053292137 1490.3455213396335
2298.598792909839 1894.7911908082435
2299.1882380388597 1820.9962564374691
2299.777540748455 2112.307041906128
2300.3667010707904 1741.6770224652123
2300.9557190380256 2095.6483221936987
2301.544594682302 2055.055909299823
2302.1333280357503 1979.857797122284
2302.721919130485 1904.6140175844623
2303.3103679986198 2193.588808711747
2303.898674672242 2105.026869112816
2304.486839183437 1528.6392183729204
2305.0748615642697 1686.433935314212
2305.6627418468015 1696.2586207850018
2306.2504800630704 1576.992088505047
2306.8380762451143 1625.6929565789042
2307.425530424949 1757.8973851971346
2308.012842634582 1890.3915625514583
2308.6000129060103 1955.8273952598793
2309.187041271214 1712.7423478056203
2309.773927762164 2207.5549050343184
2310.3606724108213 1923.5725997653904
2310.9472752491274 1493.8505105946267
2311.5337363090184 1973.9922484613949
2312.120055622414 1654.4638991660577
2312.706233221221 1546.8850329307736
2313.2922691373424 1399.6965757542298
2313.8781634026564 1480.9805519649278
2314.463916049037 1562.4403949978748
2315.049527108342 1797.8318120723466
2315.6349966124235 2112.7763266853244
2316.2203245931123 2019.6290082354549
2316.8055110822315 1752.1177059507786
2317.3905561115935 1483.9679612497764
2317.9754597129977 1727.0909943114762
2318.560221918229 1611.4712159342796
2319.1448427590603 1495.6240839826319
2319.729322267256 1504.0363160371676
2320.313660474563 1343.0543156545655
2320.8978574127195 1560.2621649857263
2321.481913113452 1778.1226343657231
2322.0658276084705 1391.8584083328174
2322.6496009294806 1672.8459120271928
2323.233233108165 1850.906301509207
2323.8167241762058 1538.518168370189
2324.4000741652617 1525.5214720162444
2324.983283106987 1804.696058362732
2325.5663510330232 1996.936454661396
2326.1492779749933 1495.6514978827404
2326.7320639645204 1878.0033698604352
2327.3147090332004 2157.058880869103
2327.897213212629 1594.8091438079748
2328.4795765343843 1831.4870122752884
2329.0617990300307 1418.5123435018868
2329.643880731124 1977.5249783341703
2330.22582166921 1537.1452651924126
2330.807621875816 1383.326828360954
2331.3892813824623 1229.3809622362337
2331.9708002206517 1386.596905505383
2332.5521784218818 1505.1436162102389
2333.133416017634 1623.997398695611
2333.7145130393765 1605.2903708854574
2334.295469518571 2099.39290706681
2334.876285486658 2062.4566408215933
2335.456960975076 2029.738431922718
2336.037496015242 1996.9822455766898
2336.6178906385667 1828.1386256557012
2337.198144876451 1729.1870820091924
2337.778258760278 1712.3504901208373
2338.3582323214214 1795.0758079666255
2338.938065591243 1877.948330661365
2339.517758601087 1952.3437998400925
2340.0973113822965 1797.6493211633326
2340.676723966193 1727.0831900046614
2341.255996384094 1853.173248644783
2341.835128667295 1991.6063689214764
2342.4141208470883 2088.7915889562446
2342.992972954751 1838.056052112847
2343.5716850215467 1640.53752748147
2344.1502570787306 1093.7543793375157
2344.7286891575386 1501.2458510135004
2345.3069812892045 2109.3080666954143
2345.885133504944 1773.4376444014401
2346.4631458359618 1779.9444542527312
2347.04101831345 1547.648154034087
2347.6187509685915 1611.3770613488725
2348.196343832553 1511.1707407168155
2348.7737969364935 1460.5948195277838
2349.351110311558 1409.9863120247805
2349.9282839888765 1398.6801113290007
2350.5053179995757 1511.604191840757
2351.0822123747585 1288.7007077969822
2351.658967145526 1248.5788028566633
2352.2355823429643 1208.4624249059113
2352.812057998144 1855.3924255651982
2353.3883941421263 1598.9822633734918
2353.9645908059647 1554.0213876412536
2354.540648020693 1509.0281802762934
2355.116565817336 1218.1432471686553
2355.6923442269126 1784.0244265554077
2356.2679832804224 1724.1698754638812
2356.8434830088518 1519.1623952630448
2357.41884344318 1634.001226933111
2357.994064614377 1537.2943455175207
