#exp_cfg={"servo_angle": 0.0, "laser_lim": 100.0, "servo_angle_to": 18.0, "laser_wup": 0.0, "bt_dev": "EnSpectr-25AE3", "laser_wdn_max": 0.0, "frames": 10.0, "servo_used": 0, "servo_calib_use": 0, "laser_wdn_min": 0.0, "servo_pix_from": 90.0, "cooler_tout": 300.0, "servo_angle_from": 0.0, "servo_calib": "[-1.9174921013161362e-09, 3.9322238269163779e-05, -0.27385609119055809, 653.59552119713567]", "laser_autoctl": 0, "servo_pix_to": 3682.0, "laser_pw": 100.0, "cooler_on": 0, "laser_volt": 4.0, "cooler_autoctl": 0, "cooler_curr": 70.0, "cooler_startup": 10.0, "laser_fixed_pw": 0, "gain": 1.3, "offset": 2.53059635486, "servo_calib_degree": 3.0, "laser_curr": 55.0, "shutter": 8200.0, "servo_calib_step": 1.0, "laser_fixed_curr": 0, "exp": 2000.0, "ccd_volt": 4.7, "bt_addr": "00:06:66:62:5A:E3", "servo_delay": 500.0, "laser_autooff": 1}
#proc_cfg={"flat_auto_wnd": 200.0, "flat_auto_fr": 200.0, "flat_auto_shift": 5.0, "yconv": 1, "flatten": 1, "flatten_strength": 100.0, "xfrom": 300.0, "auto_max_frame": 2000.0, "auto_signal": 48000.0, "flat_auto_tol": 0.1, "autoclip": 1, "xrel_range": 0.0, "flat_auto_to": 4000.0, "intensity_adj": 1.0, "xrel": 7852.0, "rmhot": 1, "flat_auto_slit": 4.999999999999997, "auto_ini_exp": 300.0, "auto_off": 0, "xto": 2860.0, "flat_auto_ref": "", "flat_auto_rank": 1, "autobackg": 0, "xrel_adj": 0.0, "auto_black_lvl": 1, "base_wnd": 100.0, "sub_baseline": 0, "xconv": 2, "auto_max_exp": 1000.0, "auto_total_exp": 10000.0, "auto_exp": 0, "rmripple": 0, "black_lvl": 8278.625, "shutter_clip_adj": 0.0, "auto_bckg": 0, "flat_auto_thr": 0.9, "subbackg": 1}
316.8218498245369 41240.07681932226
317.89969571804795 40999.97915862337
318.977263876126 41082.593856025305
320.05455438786703 40981.17604906201
321.1315673423287 40944.557244001626
322.2083028285215 41007.243865009536
323.2847609354267 40902.41821703584
324.3609417519747 40796.24641347378
325.43684536705587 40785.819823672166
326.5124718695279 40784.891505024236
327.58782134820103 40779.542903326146
328.66289389184385 40868.84311048436
329.7376895891921 40696.57510125472
330.8122085289342 40520.121413931854
331.88645079971866 40652.99262544707
332.9604164901575 40543.09955751811
334.03410568881554 40484.85459141072
335.1075184842266 40531.04800656576
336.18065496487543 40286.74618607871
337.2535152192122 40226.329732544196
338.32609933564163 40102.86045040394
339.39840740253203 39911.86693354222
340.4704395082099 39840.2211250018
341.5421957409617 39671.17396993355
342.6136761890357 39923.01800704473
343.6848809406365 39610.11343885449
344.75581008392874 39480.28969175155
345.82646370703696 39287.68210610827
346.8968418980512 39310.6834827029
347.96694474501055 39210.218850902325
349.0367723359268 39245.17111460313
350.106324758759 39021.92902509328
351.1756021014353 39111.27815586889
352.2446044518383 38889.38161315701
353.31333189781435 38906.60597234362
354.38178452716966 38821.25301800311
355.449962427665 38981.3917097971
356.51786568702846 38821.08786211272
357.58549439294256 39040.70038933208
358.6528486330535 39071.63743278263
359.71992849496564 38959.67970998601
360.7867340662433 38963.153520872074
361.8532654344144 39033.26097988946
362.9195226869597 39125.28533116703
363.9855059113288 38865.78844906788
365.05121519492604 38585.42352112869
366.11665062511565 38675.59056322422
367.1818122892273 38594.70162119047
368.2467002745434 38589.246560985834
369.31131466831175 38578.140528018346
370.375655557742 38582.312086290796
371.4397230299983 38555.8445281267
372.5035171722102 38229.425706551236
373.5670380714637 38344.61717401808
374.6302858148101 38454.16061553686
375.6932604892554 38323.736622328455
376.7559621817709 38364.263931399066
377.81839097928605 38097.87415645601
378.8805469686886 38303.70856060445
379.94243023683157 38166.341008671225
381.0040408705263 38203.09598571398
382.0653789565458 38185.44534247821
383.1264445816196 38256.344628633415
384.1872378324406 38273.00502466898
385.2477587956637 38387.24121282971
386.3080075579037 38215.85977524285
387.3679842057336 38126.16578018875
388.4276888256918 38157.588413665726
389.48712150426945 38343.122829272106
390.54628232792857 38326.645937340894
391.6051713830857 38295.33438263253
392.66378875611736 38306.12778242932
393.7221345333637 38413.73727660753
394.7802088011249 38264.83594919377
395.838011645661 38373.17588185827
396.89554315319765 38209.415693775205
397.9528034099112 38156.27961239244
399.00979250194723 37953.370901864306
400.06651051541485 38127.187441751434
401.1229575363741 38030.62588731105
402.17913365085224 38111.59532971907
403.23503894483656 38119.234025971426
404.2906735042761 37997.26986371199
405.3460374150818 37864.04700667534
406.401130763119 37896.060674236374
407.455953634224 37953.45068026693
408.5105061141876 37885.31056929259
409.56478828876243 37499.38437028387
410.6188002436629 37498.731456878944
411.6725420645689 37548.44906834264
412.72601383711117 37687.218048873125
413.77921564689314 37692.20671952854
414.8321475794728 37503.140901838815
415.88480972036814 37392.42899075287
416.93720215506437 37549.66568103191
417.9893249690049 37355.67197938406
419.04117824759123 37125.88705360341
420.09276207619223 37175.844873920294
421.144076540133 37231.91687143361
422.1951217247042 37100.109601374825
423.24589771515275 37109.041560690304
424.2964045966928 37014.41140072104
425.34664245449494 37126.74708238566
426.3966113736933 36969.91317733755
427.4463114393875 36889.12460833337
428.49574273662984 36884.49617125572
429.5449053504417 36849.77126355735
430.5937993658026 36950.07801165151
431.6424248676558 36927.659270805
432.6907819409007 36959.50474540824
433.73887067040596 37055.68612639629
434.7866911409965 36879.5149464047
435.8342434374608 37177.07964959562
436.88152764455117 37037.890682761805
437.9285438469724 37038.58631602303
438.9752921294057 37071.33282911866
440.02177257648145 37190.76360595536
441.06798527279716 36932.55070320615
442.1139303029122 37438.404426854424
443.1596077513459 37339.66365926221
444.2050177025794 37608.57618717366
445.25016024105753 37415.73357629148
446.2950354511886 37431.93588654349
447.33964341733736 37337.22433120698
448.383984223834 37267.94577976992
449.4280579549686 37033.00426459892
450.471864694995 37049.18440300056
451.5154045281306 36699.1774277671
452.5586775385509 36776.181694427665
453.60168381039693 36469.791339663345
454.64442342776783 36719.123441042044
455.6868964747264 36362.94749899703
456.7291030353008 36338.68508091206
457.77104319347563 36385.66443667748
458.8127170332027 36141.11833357137
459.854124638392 36228.064828890565
460.895266092919 36376.43583403348
461.93614148061897 36315.43982407163
462.97675088529104 36496.59761852071
464.01709439069236 36432.560588150525
465.0571720805492 36406.473465473224
466.0969840385442 36523.356284643625
467.1365303483253 36651.4796349368
468.17581109350067 36480.81001844634
469.2148263576437 36448.97167608571
470.2535762242878 36484.36671903491
471.29206077693016 36562.01379986932
472.33028009902773 36438.679099429166
473.3682342740012 36455.32084485536
474.40592338523857 36438.93338070899
475.4433475160804 36465.87480216952
476.4805067498364 36279.66557747707
477.51740116978 36279.387971211116
478.5540308591426 36440.74513991241
479.59039590112116 36468.86908732982
480.6264963788726 36256.11533727574
481.6623323755193 36510.78823175596
482.6979039741436 36234.234948086574
483.7332112577915 36563.40446144304
484.76825430947247 36531.84938028091
485.80303321215797 36607.27266758385
486.837548048783 36547.20341533729
487.8717989022425 36728.035392514445
488.90578585539697 36660.92792074965
489.9395089910686 36784.96548508843
490.97296839203955 36567.049941420504
492.00616414106116 36498.35386611409
493.0390963208429 36436.97956266223
494.0717650140559 36626.74269520813
495.10417030333883 36457.21991368376
496.1363122712901 36450.14050530629
497.16819100046814 36214.98869804875
498.1998065734024 36307.050035644104
499.2311590725767 36145.462345367996
500.26224858044407 36055.42051989915
501.2930751794156 35902.44771063501
502.3236389518679 35858.56756138527
503.35393998014115 35791.88765440077
504.38397834653733 35732.42335716159
505.4137541333221 35717.078797112845
506.4432674227228 35783.87069665687
507.4725182969323 35538.5421716257
508.5015068381035 35610.74957983442
509.53023312835467 35686.84937315182
510.55869724976765 35633.14776035048
511.58689928438434 35451.21112072376
512.6148393142121 35371.82360021441
513.6425174212218 35502.11968385573
514.6699336873462 35516.54157999151
515.6970881944835 35349.513827324925
516.7239810244901 35159.081703812
517.7506122591931 35261.51375509467
518.7769819803761 35312.225552897304
519.8030902697901 35190.90332478597
520.8289372091476 35191.856306602225
521.8545228801249 35251.29897205562
522.8798473643619 34998.33428708809
523.9049107434621 34922.94130303846
524.9297130989908 35035.77591714423
525.9542545124805 35052.70191928932
526.9785350654201 34898.801090936846
528.0025548392696 34785.8503059551
529.0263139154504 34787.452322684854
530.0498123753423 35047.10110665996
531.073050300296 34885.00965492381
532.0960277716204 34751.721713490944
533.1187448705896 34881.577504211375
534.1412016784416 34813.958746890705
535.1633982763833 34951.9121100465
536.1853347455726 34815.59648726374
537.2070111671401 34961.76473231578
538.2284276221817 34862.53054614976
539.2495841917516 35017.52491595047
540.2704809568677 34953.157054451905
541.2911179985167 35234.082572598345
542.3114953976419 35048.60040321044
543.3316132351592 35214.94704647647
544.3514715919409 35191.2599128144
545.3710705488247 35387.097612359124
546.3904101866156 35278.9352436613
547.4094905860784 35467.176838443665
548.4283118279418 35178.94815015263
549.4468739929034 35078.239930515585
550.4651771616191 34666.095991035196
551.4832214147063 34722.388066747284
552.501006832761 34493.91999669487
553.5185334963226 34398.675751699324
554.5358014859103 34319.70617789058
555.5528108820035 34197.513752447914
556.5695617650363 34252.18517539778
557.5860542154242 34379.64359383407
558.6022883135283 34167.082426330744
559.6182641396881 33982.49328543905
560.6339817741991 33983.529209926564
561.6494412973225 34196.60670549031
562.6646427892883 34037.10608441225
563.6795863302796 33944.03768686467
564.694272000459 33924.569615113825
565.7086998799423 34282.27030195722
566.7228700488104 34147.91502800889
567.7367825871115 34272.40499578327
568.7504375748576 34187.608522186856
569.7638350920224 34424.65069602653
570.7769752185486 34427.233078454155
571.7898580343353 34434.679944962714
572.802483619258 34207.784842551664
573.8148520531431 34536.720361366795
574.8269634157932 34337.76403127149
575.8388177869692 34341.697625259
576.8504152463938 34295.329144081996
577.8617558737587 34411.42919164573
578.8728397487175 34270.6956848185
579.883666950891 34420.1006453429
580.8942375598654 34319.13607319132
581.9045516551851 34385.932204876044
582.9146093163617 34563.29937184866
583.924410622878 34392.474476162715
584.9339556541727 34211.23023047077
585.9432444896538 34430.05682587444
586.9522772086875 34118.001897591705
587.9610538906127 34091.47467353205
588.9695746147318 33943.47831700077
589.9778394603054 34158.08342070629
590.985848506567 33934.0980182468
591.9936018327098 34048.16017801299
593.0010995178891 33802.72692636735
594.0083416412344 33925.12558930448
595.0153282818283 33631.536859313484
596.0220595187293 33588.53594537209
597.0285354309508 33549.68246280327
598.0347560974806 33619.617556426514
599.0407215972609 33472.27181475432
600.0464320092051 33583.46933182267
601.0518874121954 33413.404829910214
602.0570878850685 33498.78543906541
603.062033506636 33424.081454996325
604.0667243556636 33484.79429264102
605.0711605108936 33259.13086820967
606.0753420510264 33581.4818315304
607.0792690547278 33426.038875415856
608.082941600629 33330.25345776471
609.0863597673306 33390.8003880393
610.0895236333909 33542.72503527568
611.0924332773357 33580.13192643477
612.0950887776617 33650.53414734007
613.0974902128219 33534.866745367195
614.0996376612384 33666.017354026655
615.1015312013005 33782.8247277241
616.1031709113595 33868.01834610086
617.1045568697336 33622.935458607884
618.1056891547069 33818.53549964125
619.1065678445229 33941.083517035164
620.1071930173985 34259.479643712366
621.1075647515099 34242.75473285235
622.1076831250048 34231.77609269944
623.1075482159849 34346.89976428893
624.1071601025305 34678.6405806171
625.1065188626781 34673.33071563907
626.105624574433 35205.31070373777
627.1044773157682 35160.41262382582
628.1030771646128 35609.00402094884
629.1014241988742 36020.80889016703
630.0995184964158 36377.29676332918
631.0973601350688 36568.54779200296
632.0949491926294 36639.7144026592
633.0922857468631 35938.653734858664
634.089369875499 35840.91634192273
635.0862016562278 35538.901906124935
636.0827811667077 35021.72717101868
637.0791084845641 34955.210961646706
638.0751836873878 34760.645569820364
639.0710068527369 34684.40791017584
640.0665780581294 34555.08046755194
641.0618973810506 34177.42439959991
642.0569648989604 34469.43290090266
643.0517806892676 34047.21268725591
644.0463448293649 34050.963018529466
645.040657396592 33736.75889493957
646.0347184682723 33780.863320581426
647.0285281216875 33472.518102952155
648.0220864340772 33610.00261962843
649.0153934826558 33296.10686616053
650.0084493446047 33389.79073387217
651.0012540970674 33148.80562148143
651.9938078171526 33175.298121430525
652.9861105819346 33058.8021549656
653.9781624684565 33194.22857246981
654.9699635537254 32926.48071924334
655.9615139147136 33098.493327068834
656.9528136283589 32720.03201042981
657.9438627715699 33042.13038731364
658.9346614212154 32849.201927884154
659.925209654135 32557.145250416586
660.9155075471263 32634.395803335625
661.9055551769616 32701.735203220935
662.895352620375 32719.411198737136
663.8848999540678 32583.58862128355
664.8741972547068 32405.33545186236
665.863244598926 32542.754928878392
666.8520420633213 32589.538487774436
667.8405897244611 32530.152729313173
668.8288876588758 32116.453401692754
669.8169359430613 32496.082903538998
670.8047346534822 32202.904398440565
671.7922838665672 32297.64352753538
672.7795836587156 32268.0033016795
673.766634106285 32471.03450473304
674.7534352856092 32021.032524232287
675.7399872729766 32184.261283440566
676.7262901446538 32189.80141323994
677.712343976862 32312.444956373172
678.6981488457986 32386.24733124578
679.6837048276229 32423.83309594629
680.6690119984596 32367.45448902729
681.6540704344043 32317.80420337723
682.6388802115107 32184.169805486727
683.6234414058108 32312.17529761703
684.6077540932874 32055.056516253524
685.591818349907 32183.243367217918
686.575634251587 31898.762790324603
687.5592018742263 31829.544709158916
688.5425212936734 31672.545656110895
689.5255925857564 32060.271596320898
690.5084158262707 31993.66632140705
691.4909910909646 31808.97248271489
692.4733184555644 31754.314167543394
693.4553979957618 31975.016384285253
694.4372297872123 31914.426669256256
695.4188139055404 32221.79605037103
696.4001504263324 32062.9758752908
697.3812394251509 32450.272644231834
698.3620809775111 32342.5213105125
699.3426751589104 32318.38957882241
700.3230220448004 31787.993051463487
701.3031217106054 31882.322031819476
702.2829742317172 31751.91165382084
703.2625796834873 31354.848091858155
704.2419381412474 31258.547479863617
705.22104968028 31419.030939848046
706.1999143758458 31368.015785869688
707.178532303169 31221.582543020446
708.1569035374378 31195.45723836998
709.1350281538107 31292.500356416007
710.1129062274158 31059.086052828534
711.0905378333373 31254.628157038118
712.0679230466376 31219.334822735203
713.0450619423427 31340.38989380633
714.0219545954424 31330.614045296254
714.9986010808989 31318.105066775537
715.9750014736292 31261.041108337395
716.9511558485392 31481.84536939678
717.9270642804786 31429.57536943698
718.9027268442787 31687.264692091063
719.8781436147328 31530.918398664035
720.8533146666014 31617.653219176795
721.828240074612 31570.71701290937
722.8029199134635 31664.570264507132
723.7773542578125 31350.834776264663
724.751543182294 31315.01177020432
725.7254867615029 31471.86050821242
726.6991850700015 31122.416106325567
727.6726381823228 31202.619853479155
728.6458461729599 31281.627089913884
729.6188091163858 31159.650291311595
730.5915270870246 31373.50693965323
731.5640001592856 30970.014901521055
732.536228407529 31120.49812502511
733.5082119060917 30988.549280199408
734.4799507292755 30991.83212371936
735.4514449513481 30988.983898227336
736.4226946465496 31064.36516361799
737.3936998890786 31054.670796427963
738.3644607531078 30920.3212972651
739.3349773127793 30794.4254567166
740.3052496421951 31004.758072644465
741.27527781543 30763.93899699285
742.2450619065221 30707.069551591238
743.2146019894826 30746.170662855602
744.183898138288 30796.053944540043
745.1529504268801 30587.287214295335
746.1217589291682 30534.825324309397
747.0903237190341 30386.83843388544
748.058644870318 30553.170104350553
749.0267224568397 30312.06756839556
749.994556552374 30410.954667491013
750.9621472306771 30294.064266369864
751.9294945654583 30349.6297377604
752.8965986304011 30372.73355760725
753.8634594991636 30381.4361663628
754.8300772453586 30576.78038696166
755.7964519425768 30508.903754842868
756.762583664371 30841.69049919551
757.7284724842611 31028.509930988494
758.6941184757416 31208.52698857708
759.6595217122667 31495.368052951868
760.6246822672638 31533.305351651285
761.5896002141235 31444.85265579528
762.5542756262093 31310.48004791742
763.5187085768503 31077.531814602386
764.4828991393406 30562.22666197734
765.4468473869474 30512.084625345182
766.4105533929032 30008.921616694308
767.3740172304078 29896.775745485083
768.3372389726283 29973.427055904678
769.3002186926988 29767.478909135963
770.2629564637282 29725.54186742195
771.2254523587872 29883.49803419735
772.1877064509154 29640.86164309904
773.1497188131179 29724.19955893598
774.1114895183728 29560.18236193764
775.0730186396268 29587.0144404092
776.0343062497905 29405.183623782224
776.9953524217381 29475.95572493169
777.9561572283274 29427.553849501226
778.9167207423689 29376.583820900083
779.8770430366476 29213.271757152117
780.8371241839159 29268.310767116567
781.7969642568951 29133.778229160624
782.7565633282757 29515.982682373684
783.7159214707099 29194.811168524793
784.6750387568281 29466.95100267172
785.6339152592227 29290.235794771957
786.5925510504512 29160.28367539921
787.5509462030477 29209.56923134918
788.5091007895098 29128.12210053699
789.4670148823006 29077.40245803307
790.4246885538596 29090.098123336043
791.3821218765861 29051.829905827624
792.3393149228505 28868.724688013783
793.2962677649975 29009.671904324474
794.2529804753303 29155.254254134743
795.20945312613 29123.366484209913
796.1656857896378 29106.07077620719
797.1216785380675 29063.450541246257
798.0774314435985 29354.576251601917
799.0329445783846 29270.787130430144
799.9882180145414 29085.73408506874
800.9432518241574 28947.20324536473
801.89804607929 29120.543505895435
802.852600851962 29034.009970820614
803.8069162141637 29038.631928529438
804.760992237856 28981.957979287556
805.714828994971 28979.85611913522
806.6684265574077 28884.334845908168
807.6217849970271 28819.224237378832
808.574904385674 28711.863920140117
809.527784795142 28806.03110509269
810.4804262972102 28990.897450036213
811.4328289636178 28655.737037521274
812.3849928660748 28505.73788022651
813.3369180762638 28642.850135188975
814.2886046658241 28291.350629030854
815.2400527063783 28389.287364416006
816.1912622695108 28303.91696684172
817.1422334267718 28316.10123751185
818.0929662496856 28243.475792108373
819.0434608097457 28110.619091620825
819.9937171784059 28025.754216200476
820.9437354271013 27924.480999822303
821.8935156272255 28150.730960388308
822.8430578501484 28047.628876594437
823.7923621672016 27739.060776427097
824.7414286496896 27926.950097765493
825.6902573688876 27832.143117258336
826.6388483960363 27946.6519728094
827.5872018023492 27558.791968392634
828.5353176590033 27760.38767702398
829.4831960371503 27584.62376881089
830.4308370079016 27650.061449307763
831.3782406423525 27554.413843424252
832.3254070115545 27523.644644124295
833.2723361865319 27316.269707223728
834.2190282382799 27350.176009853934
835.1654832377644 27449.19346407968
836.1117012559116 27349.71972742317
837.0576823636256 27271.16971911872
838.003426631778 27235.861953499658
838.9489341312074 27265.98362811027
839.8942049327197 27362.948978333072
840.8392391070975 27393.98753020463
841.7840367250865 27228.70027463339
842.7285978573982 27087.94668852631
843.672922574724 27272.787652425624
844.6170109477152 27310.225206633553
845.560863046996 27187.360620058007
846.5044789431595 27067.258619467953
847.4478587067697 27133.39308540874
848.3910024083561 27263.11189015155
849.333910118421 27091.663055253484
850.2765819074339 27037.813740068814
851.2190178458332 27235.25913542611
852.161218004032 27147.24394605938
853.1031824524016 27325.71738569982
854.0449112612987 27176.475345766066
854.9864045010327 27304.23825651069
855.9276622418947 27187.71835032603
856.8686845541379 27374.24295717317
857.8094715079915 27354.01256624873
858.7500231736467 27680.61746739038
859.690339621271 27401.330205280567
860.6304209209939 27276.679560660756
861.5702671429244 27152.296708806774
862.5098783571284 27223.352079930337
863.4492546336569 27158.20757804739
864.3883960425155 27096.553455950052
865.3273026536863 26816.828695303113
866.2659745371238 26936.179317480324
867.2044117627465 26989.622602447915
868.1426144004472 26792.41710658453
869.0805825200823 26898.075908710038
870.0183161914847 27004.371797347332
870.9558154844526 27106.670503745747
871.8930804687552 26917.85477294289
872.8301112141307 26789.09555334731
873.7669077902865 26994.459779840974
874.7034702669062 27058.50042390487
875.6397987136315 26910.09176764226
876.5758932000863 27035.601923826376
877.5117537958522 27148.896984511368
878.4473805704911 26806.405036532873
879.3827735935283 26926.488134979027
880.3179329344603 26954.305824125542
881.2528586627541 27141.054412788653
882.1875508478479 27156.163230251135
883.1220095591489 26744.205174309805
884.0562348660296 26742.14541468486
884.9902268378391 26970.775266908196
885.9239855438955 26733.584408207396
886.8575110534839 26636.959482589707
887.7908034358588 26616.089749570692
888.7238627602474 26731.816717319896
889.6566890958475 26773.632061653225
890.5892825118208 26559.78041075756
891.5216430773125 26479.012099460466
892.4537708614189 26508.124336408055
893.3856659332196 26335.91650379029
894.3173283617652 26342.749623852455
895.2487582160684 26358.769312293774
896.179955565116 26320.61629389011
897.110920477864 26010.211290488416
898.0416530232451 26249.551087163836
898.9721532701478 26116.58351987762
899.9024212874428 26179.981129069907
900.8324571439662 26042.294997285368
901.7622609085302 25984.608166175523
902.6918326499072 25852.813567158188
903.6211724368477 26082.2416663985
904.5502803380696 26118.402637300034
905.4791564222614 26213.910095536517
906.4078007580792 25858.078764720616
907.3362134141571 25907.828346221002
908.2643944590909 26118.88615625056
909.1923439614493 25892.433265596002
910.1200619897754 25761.932604736736
911.0475486125779 26210.72533426837
911.9748038983344 25915.592683242205
912.9018279155007 25848.985221965977
913.8286207324982 25737.459382248184
914.7551824177117 25972.20490252255
915.6815130395116 25688.441810065244
916.6076126662283 25613.146816715136
917.533481366163 25642.005269476856
918.4591192075914 25776.92822533301
919.3845262587565 25824.680025368674
920.3097025878706 25647.046739269306
921.2346482631237 25494.626011853063
922.1593633526682 25793.843380602066
923.0838479246304 25717.567918360954
924.0081020471061 25846.834905677126
924.9321257881656 25566.26962031877
925.8559192158464 25634.241746914333
926.7794823981512 25648.070795510674
927.7028154030686 25717.60974325292
928.6259182985414 25430.37430129892
929.5487911524906 25870.335040940707
930.4714340328119 25812.702847308192
931.3938470073608 25639.41438142667
932.3160301439748 25672.019785594475
933.2379835104548 25797.489913125566
934.1597071745709 25657.89176983439
935.0812012040769 25588.54786241621
936.002465666681 25589.800375204795
936.9235006300696 25691.139524609258
937.8443061619055 25496.298654876144
938.7648823298077 25289.729685318678
939.6852292013809 25299.515800566132
940.6053468441951 25572.765686557766
941.5252353257874 25222.614029727225
942.4448947136698 25270.548303061274
943.364325075323 25339.25311707604
944.2835264782043 25334.581395252426
945.2024989897309 25213.243639832195
946.1212426773054 25280.084707002312
947.0397576082851 25155.023692866373
947.9580438500125 25449.23349224193
948.8761014697939 25276.60751855958
949.7939305349064 25375.31909814991
950.7115311125999 25051.752961764065
951.6289032700952 25162.501349985476
952.5460470745875 25312.914483252156
953.4629625932339 25160.71274239361
954.3796498931715 25114.586269927484
955.2961090415029 25208.582171128943
956.2123401053068 25019.107779278864
957.1283431516276 25016.723672787506
958.0441182474842 24964.151923984744
958.9596654598663 25153.997721636093
959.8749848557309 25082.65091239566
960.7900765020167 24975.89573534813
961.7049404656209 24957.26577710054
962.6195768134185 25183.52289151056
963.5339856122537 25104.946093746854
964.4481669289453 25191.460249878804
965.3621208302793 25017.717981768874
966.2758473830145 25177.133937630933
967.1893466538822 25120.806512584113
968.1026187095813 25096.417628998097
969.0156636167867 25034.464349046022
969.9284814421426 25248.935097066467
970.8410722522622 24972.710524003505
971.753436113735 25204.59732060484
972.6655730931161 25109.35122627774
973.5774832569368 25173.181853218757
974.4891666716958 25104.959364537477
975.4006234038698 25065.578028396598
976.3118535198955 24888.22690870275
977.2228570861935 25206.84580821767
978.1336341691494 25058.072063629596
979.0441848351202 24908.87978860393
979.9545091504333 25014.18759711172
980.864607181391 25015.582663929843
981.7744789942699 25046.936505280395
982.6841246553086 25007.841571669313
983.5935442307236 25068.719072853084
984.5027377867027 24862.879422924576
985.4117053894024 24893.277471242396
986.3204471049557 24868.497505058618
987.2289629994648 24794.823603502093
988.1372531390007 25022.400348317467
989.0453175896091 24881.769615667617
989.9531564173067 24835.337196710585
990.860769688079 24616.37060671018
991.7681574678918 24838.67823923554
992.6753198226706 24711.831764379727
993.582256818323 24819.215400024892
994.4889685207218 24724.47429941343
995.3954549957143 25000.798965984002
996.301716309119 24790.65011287726
997.2077525267232 24786.341775717952
998.1135637142943 24555.901740606518
999.0191499375615 24877.03679112797
999.924511262232 24658.19027373623
1000.8296477539861 24932.575101881845
1001.7345594784656 24682.043982931536
1002.6392465012996 24754.680306373208
1003.5437088880753 24782.225280097213
1004.4479467043584 24704.321842462778
1005.3519600156869 24494.278432440336
1006.2557488875718 24768.650885269308
1007.1593133854858 24622.691289659087
1008.0626535748888 24596.000027969443
1008.9657695212009 24387.959923096394
1009.8686612898182 24686.743425738925
1010.7713289461135 24667.033309403792
1011.6737725554212 24598.517455572164
1012.5759921830577 24495.327331602613
1013.4779878943027 24615.19965019077
1014.379759754418 24634.694363838935
1015.2813078286254 24374.984982687587
1016.18263218213 24369.27634923075
1017.0837328801026 24556.9174186654
1017.9846099876886 24411.920508762298
1018.8852635700023 24387.0538736249
1019.7856936921362 24175.581181093155
1020.6859004191447 24447.35432036514
1021.5858838160675 24394.466925787045
1022.4856439479063 24266.587649351706
1023.3851808796389 24175.16157015994
1024.2844946762143 24482.442587399943
1025.183585402554 24331.2135200002
1026.082453123554 24243.41052279683
1026.9810979040776 24142.186329772027
1027.8795198089647 24181.22507643938
1028.777718903024 24189.900880393037
1029.6756952510368 24215.952699035926
1030.5734489177648 23946.94560038912
1031.4709799679313 24291.91667864509
1032.3682884662358 24243.4979109349
1033.2653744773506 23955.436272219817
1034.1622380659192 24120.020723424477
1035.058879296559 24324.453064841164
1035.9552982338591 24238.528562625932
1036.8514949423825 24216.74438670162
1037.7474694866614 24230.093550051617
1038.6432219312028 24043.062740835856
1039.5387523404825 24416.56276736279
1040.4340607789582 24240.822221871163
1041.3291473110476 24131.43399961407
1042.2240120011465 24431.9174464253
1043.1186549136273 24307.70892688825
1044.0130761128294 24338.62620162413
1044.9072756630649 24289.543600491685
1045.8012536286205 24543.027831388186
1046.6950100737577 24317.11062587227
1047.588545062701 24576.409800940364
1048.481858659663 24492.17686177807
1049.3749509288118 24726.838609402945
1050.2678219343034 24374.76366042732
1051.1604717402515 24640.759120978477
1052.0529004107575 24280.33975271221
1052.9451080098825 24575.73300443769
1053.8370946016694 24324.240389395884
1054.7288602501267 24469.26851177873
1055.6204050192446 24349.961971749766
1056.511728972977 24487.196714329148
1057.402832175254 24168.16963171173
1058.2937146899785 24206.03204250551
1059.1843765810263 24000.83703672792
1060.0748179122456 24437.39341555142
1060.9650387474576 24199.385577587287
1061.855039150456 24301.106237395168
1062.7448191850071 24138.553723639583
1063.6343789148505 24316.664378577254
1064.5237184037014 24240.113127850116
1065.412837715241 24187.70717356117
1066.3017369131267 23885.976855944995
1067.190416060992 24046.26929122349
1068.0788752224398 23848.703561407165
1068.9671144610438 23951.15514298685
1069.8551338403558 23984.25079755809
1070.7429334239023 24005.209688576837
1071.6305132751695 23888.534487488167
1072.517873457633 24186.25195312012
1073.4050140347335 23819.104296768237
1074.2919350698776 23987.59865428703
1075.1786366264623 24086.186932000703
1076.0651187678395 24007.30679834787
1076.95138155735 23744.275604491006
1077.8374250582929 23962.36834669867
1078.7232493339507 23772.977497758213
1079.608854447577 23769.11796766109
1080.4942404623907 23614.47502464615
1081.3794074415982 23875.571083766034
1082.2643554483657 23831.131370182087
1083.149084545841 23790.514665495615
1084.033594797138 23621.746631946437
1084.9178862653516 23695.079389918603
1085.8019590135427 23811.897487289458
1086.6858131047484 23614.50836956873
1087.5694486019802 23821.831150230275
1088.4528655682225 23755.56434268135
1089.3360640664287 23849.266686892304
1090.2190441595321 23734.868125812038
1091.1018059104317 23750.841009489668
1091.98434938201 23980.637640426976
1092.866674637111 23860.436944069064
1093.748781738559 23750.568396475992
1094.6306707491512 23484.774001833626
1095.5123417316554 23761.218300970184
1096.3937947488157 23522.25188918335
1097.2750298633455 23649.662999437547
1098.156047137938 23601.858053138865
1099.0368466352556 23601.963091166654
1099.9174284179317 23926.93265410679
1100.7977925485757 23528.68114519375
1101.6779390897755 23385.074455742037
1102.5578681040806 23647.753329227187
1103.4375796540226 23688.228391748213
1104.3170738021054 23657.468965027252
1105.1963506108077 23528.08428612974
1106.0754101425773 23632.235058026134
1106.9542524598382 23619.987029628224
1107.8328776249855 23412.12352564063
1108.7112857003904 23600.19944506971
1109.5894767483987 23699.24176978945
1110.4674508313292 23730.339410629018
1111.3452080114657 23508.465810328667
1112.2227483510815 23773.10187446743
1113.1000719124077 23796.796326396707
1113.9771787576592 23912.490046243485
1114.854068949022 23901.059226516343
1115.7307425486542 23727.814937945237
1116.6071996186893 23913.43733429517
1117.483440221229 24083.41630964658
1118.3594644183577 23993.051644368352
1119.235272272128 23789.37793120085
1120.1108638445658 24143.186992261093
1120.9862391976712 24174.221447499873
1121.8613983934229 24011.38963938038
1122.7363414937627 24154.24683595513
1123.6110685606182 24371.21119449021
1124.485579655884 24254.32011383716
1125.359874841426 24369.302059005022
1126.2339541790916 24131.593057927043
1127.1078177306936 24539.558456174145
1127.9814655580267 24118.920399570565
1128.854897722851 24341.26243088832
1129.7281142869106 24146.651443591825
1130.6011153119125 24343.880628806342
1131.473900859548 24331.862140747453
1132.3464709914697 24238.473075869326
1133.2188257693178 24267.852808855234
1134.0909652546961 24071.345110964066
1134.96288950919 23909.67878801739
1135.8345985943506 24204.4915166347
1136.7060925717087 23829.228237791787
1137.57737150277 24042.34824714809
1138.4484354490069 24021.9444419525
1139.3192844718778 23807.606620975883
1140.1899186327992 23502.14152964
1141.060337993178 23929.444588102127
1141.930542614382 23645.73824845051
1142.8005325577597 23597.051412936627
1143.670307884635 23415.912168434068
1144.5398686563003 23557.81427097399
1145.409214934025 23489.622199367583
1146.2783467790541 23208.86140841797
1147.1472642526023 23365.157388499883
1148.0159674158622 23569.986737560874
1148.8844563300026 23125.616938610816
1149.7527310561618 23060.759138184956
1150.6207916554504 22981.602648054257
1151.4886381889592 23089.638086396684
1152.3562707177498 23058.131798869927
1153.2236893028585 23193.081708477526
1154.090894005296 23087.628481104497
1154.9578848860474 23187.47928964734
1155.8246620060709 23103.71813358785
1156.6912254262988 22889.554334090433
1157.5575752076438 22917.120866897643
1158.42371141098 23094.873584015044
1159.2896340971656 23051.651490561773
1160.1553433270346 22958.71983656132
1161.0208391613887 22987.016562914454
1161.8861216610057 23167.80532440669
1162.75119088664 22949.85930325109
1163.6160468990201 22964.580565262306
1164.4806897588442 22818.017704127917
1165.3451195267917 23060.379473146193
1166.2093362635114 22903.497118283754
1167.0733400296285 22939.394157181563
1167.9371308857444 22705.7301480861
1168.8007088924278 22905.311421336424
1169.6640741102328 22889.483464228775
1170.5272265996773 22723.920543968692
1171.390166421259 22748.84075772417
1172.252893635452 23010.45616170056
1173.1154083026995 22991.35203582457
1173.977710483421 22931.59144720512
1174.8398002380145 22687.22145110166
1175.7016776268483 22995.09465762789
1176.563342710264 22879.5760611435
1177.4247955485826 22889.44686555468
1178.2860362020947 22980.57516133259
1179.147064731069 22711.63370420525
1180.0078811957483 22974.7542077935
1180.8684856563486 22952.629957412883
1181.7288781730604 22768.79497553237
1182.589058806052 23151.817418061786
1183.4490276154593 23152.180424555834
1184.3087846614017 23081.083671124085
1185.1683300039676 22856.16257377335
1186.027663703222 23247.016716479804
1186.8867858192025 22986.564613423296
1187.7456964119228 22941.917729898334
1188.6043955413716 22952.200324585596
1189.4628832675116 23126.01753259921
1190.3211596502842 23199.298930508623
1191.179224749596 23052.00217109795
1192.0370786253388 22677.566176436663
1192.8947213373758 23178.088016256188
1193.7521529455407 23317.123279403626
1194.6093735096438 22861.52877808865
1195.466383089477 22968.861476774287
1196.3231817447977 23027.54910198503
1197.1797695353398 23141.04181731289
1198.0361465208189 22844.30106588074
1198.8923127609214 22934.390505688436
1199.7482683153048 23144.955301166694
1200.6040132436028 23273.52785883975
1201.459547605431 23036.989794533598
1202.3148714603722 23088.870983615416
1203.1699848679855 23244.866631447254
1204.0248878878065 23155.660808132616
1204.8795805793507 23009.642104385646
1205.7340630020935 23092.136957538416
1206.5883352155033 23367.164309174197
1207.4423972790064 23306.466882045668
1208.2962492520237 23047.72330477459
1209.1498911939307 23046.596733371487
1210.0033231640937 23381.108210056645
1210.8565452218427 23131.622951839243
1211.7095574264913 22928.874930391576
1212.5623598373222 22910.61234835746
1213.4149525135963 23079.068923087878
1214.2673355145507 23147.496843526347
1215.1195088993936 22916.418604031
1215.9714727273113 23008.743852881547
1216.8232270574663 23206.270913676766
1217.6747719489904 22743.43990762064
1218.5261074609934 22792.710846265534
1219.3772336525653 22893.42399835677
1220.2281505827668 23093.486996208114
1221.0788583106296 23060.705986233465
1221.9293568951707 22882.95542178436
1222.7796463953746 22692.076268128436
1223.629726870202 22795.730541662535
1224.4795983785934 22965.249436671264
1225.3292609794553 22808.573409560402
1226.1787147316809 22805.956031835492
1227.0279596941327 22724.274087455364
1227.8769959256424 22734.205973078533
1228.7258234850306 22877.354426653816
1229.5744424310833 22596.744266890844
1230.422852822563 22812.885391528183
1231.2710547182105 22958.067352898634
1232.119048176739 22797.364368042192
1232.9668332568417 22662.540174417307
1233.8144100171812 22862.497151680942
1234.6617785163999 23012.919489919004
1235.508938813111 22805.21881374098
1236.3558909659114 22788.306683567473
1237.2026350333617 23101.38983536565
1238.049171074008 23064.995674555652
1238.8954991463652 22853.348408654296
1239.741619308932 22774.470072219407
1240.587531620169 22355.658985125683
1241.4332361385277 22992.43014853422
1242.2787329224248 22901.400717917364
1243.1240220302534 22731.353619050915
1243.9691035203869 22787.08084104838
1244.813977451171 22945.548058197794
1245.6586438809263 22815.92471298235
1246.5031028679496 22440.060292982052
1247.3473544705157 22815.917330624456
1248.1913987468706 22695.746850691343
1249.0352357552383 22495.54247338979
1249.8788655538228 22510.52468196771
1250.7222882007918 22713.000860029228
1251.565503754302 22551.34978033907
1252.4085122724755 22519.72658286884
1253.2513138134182 22718.456444276522
1254.0939084352049 22458.792136899785
1254.9362961958905 22458.416747851206
1255.7784771535007 22449.74026991172
1256.6204513660432 22375.571146138544
1257.4622188915 22750.563689607923
1258.3037797878242 22556.369226655643
1259.1451341129468 22363.304861687066
1259.9862819247755 22477.845498519746
1260.8272232811978 22538.03145568139
1261.6679582400666 22577.10427195734
1262.5084868592203 22443.432369478844
1263.34880919647 22378.329378858973
1264.1889253095997 22646.426165484845
1265.0288352563712 22486.12804696105
1265.8685390945266 22390.226615817257
1266.7080368817751 22460.021054323133
1267.5473286758115 22808.057032962584
1268.386414534294 22674.61059480316
1269.2252945148703 22450.941196320804
1270.0639686751547 22505.409604769764
1270.9024370727402 22529.08901198151
1271.7406997651997 22522.951109511072
1272.5787568100714 22646.52407830794
1273.4166082648808 22576.89159277408
1274.2542541871244 22897.467401912785
1275.091694634275 22916.315841949963
1275.9289296637817 22612.117694754317
1276.7659593330663 22706.94455902296
1277.6027836995308 22813.086264889225
1278.4394028205552 22934.67260193634
1279.2758167534867 22651.620735710203
1280.112025555658 22719.95650820059
1280.9480292843746 22811.867462925315
1281.7838279969128 22544.7720601994
1282.6194217505326 22657.826470509608
1283.4548106024686 22351.612327098315
1284.289994609926 22495.50867779794
1285.1249738300921 22647.24757133745
1285.959748320127 22529.760549771563
1286.7943181371702 22403.643321292388
1287.6286833383328 22462.42528201757
1288.4628439807038 22448.049561271782
1289.2968001213521 22371.392842999096
1290.1305518173194 22270.33013069955
1290.9640991256183 22459.831731998194
1291.7974421032523 22255.771388857873
1292.630580807183 22146.399383801512
1293.463515294361 22340.774994514853
1294.29624562171 22497.891053640917
1295.12877184613 22341.098189715638
1295.961094024493 22316.75015112223
1296.79321221365 22434.604488925084
1297.6251264704333 22651.587627153243
1298.4568368516466 22788.23902671859
1299.2883434140658 22600.714929889753
1300.1196462144526 22245.288003590274
1300.9507453095375 22608.63998324191
1301.7816407560313 22476.980161521664
1302.6123326106172 22328.781834481524
1303.4428209299622 22075.826228719226
1304.2731057707024 22537.392031709933
1305.1031871894502 22123.3811459523
1305.933065242798 22119.209225604278
1306.7627399873181 22200.617785329545
1307.5922114795467 22572.363334551093
1308.4214797760123 22477.264280578594
1309.2505449332057 22120.367110794432
1310.0794070076026 22229.141380785404
1310.9080660556538 22286.787515857035
1311.736522133786 22336.847043193804
1312.5647752983987 22231.093263483537
1313.3928256058734 21974.342434682712
1314.2206731125661 22253.0161348971
1315.048317874809 22195.9765536537
1315.8757599489109 22165.146387440975
1316.7029993911547 22149.962377167907
1317.5300362578055 22412.071811587302
1318.356870605101 22216.129175603455
1319.183502489257 22194.16127016079
1320.0099319664623 22238.36663883594
1320.836159092889 22209.858928535854
1321.66218392468 22282.295233697838
1322.4880065179532 22163.838977886546
1323.3136269288134 22176.254265102434
1324.1390452133292 22265.937540337378
1324.9642614275563 22440.51392287436
1325.7892756275214 22263.593644078825
1326.6140878692295 22038.65113257677
1327.4386982086617 22540.542755010407
1328.2631067017755 22137.33280513222
1329.0873134045069 22172.81561561269
1329.911318372764 21903.42801768175
1330.735121662441 22151.35979058449
1331.558723329399 22029.961728606435
1332.3821234294774 21893.72166079201
1333.2053220185007 21793.204871507034
1334.0283191522612 21846.214319995364
1334.851114886529 21873.17724846783
1335.6737092770582 21745.358088288867
1336.4961023795695 21941.077363915807
1337.3182942497697 21592.58735484923
1338.1402849433325 22036.717365590335
1338.962074515921 21768.87959350962
1339.7836630231632 21628.95529613962
1340.6050505206676 22402.10505453592
1341.426237064028 22020.454406568526
1342.2472227088037 21907.417910413296
1343.0680075105338 21776.640414426507
1343.888591524741 22007.244129901013
1344.7089748069138 21985.99199084905
1345.5291574125276 21863.104104020847
1346.3491393970307 21737.89614701321
1347.168920815846 22149.54042995002
1347.9885017243778 22162.24436274415
1348.8078821780036 21707.979296015772
1349.6270622320844 21857.626507023822
1350.4460419419447 21841.69960791802
1351.2648213629054 21881.791170542696
1352.0834005502438 21650.315620033336
1352.90177955923 21561.642259970846
1353.7199584451064 21889.222548553655
1354.5379372630887 21690.68797097426
1355.355716068374 21524.3906163321
1356.1732949161305 21418.21004709023
1356.9906738615155 21608.985413379763
1357.8078529596478 21498.91635136785
1358.6248322656375 21642.25583911677
1359.441611834567 21407.292688184934
1360.2581917214866 21663.842001173914
1361.0745719814367 21248.050617005156
1361.890752669433 21304.405345750973
1362.7067338404577 21144.354892026044
1363.5225155494845 21388.79332320807
1364.3380978514506 21586.014008267735
1365.1534808012839 21160.63712448683
1365.9686644538815 20852.4544926984
1366.783648864117 21376.287747593553
1367.5984340868417 21314.6831084829
1368.413020176893 21084.690915549516
1369.2274071890715 20863.118683063636
1370.0415951781652 21145.57753463569
1370.8555841989346 20756.10523591595
1371.6693743061223 20803.570449104598
1372.48296555444 20565.63819764508
1373.2963579985844 20966.011746141325
1374.1095516932255 20865.792560450802
1374.9225466930166 20627.88244822423
1375.7353430525782 20670.456661175067
1376.5479408265164 20653.516483380845
1377.36034006941 20600.43808939639
1378.1725408358216 20669.294261339528
1378.9845431802805 20276.352354073453
1379.796347157304 20742.141058617402
1380.6079528213813 20502.92968907365
1381.4193602269788 20306.774483204317
1382.230569428546 20384.192679357795
1383.0415804805016 20456.868168709487
1383.852393437246 20263.396571952715
1384.6630083531563 20273.743389033378
1385.4734252825892 20125.998669541732
1386.2836442798798 20208.46962560385
1387.0936653993322 20169.13215403066
1387.9034886952395 20043.27907557344
1388.713114221864 20028.809548089946
1389.5225420334482 20172.87291105103
1390.331772184214 20072.030546877326
1391.1408047283585 19822.530565316138
1391.9496397200564 19954.34270398888
1392.758277213461 20080.595087737354
1393.5667172627054 20196.35484322073
1394.3749599218918 19890.57491914858
1395.1830052451114 19642.53549987755
1395.9908532864265 19836.13336572981
1396.7985040998774 19880.984841844238
1397.6059577394808 19787.401310033954
1398.4132142592352 19721.48112435216
1399.2202737131156 19825.901323539445
1400.027136155073 19736.89347758574
1400.8338016390353 19663.201859661913
1401.6402702189134 19580.35270510897
1402.446541948586 19767.97138051313
1403.2526168819204 19515.03999101764
1404.058495072757 19511.89957546503
1404.8641765749107 19591.667742750367
1405.6696614421799 19564.506484284357
1406.4749497283356 19761.825703598915
1407.280041487129 19321.480831629695
1408.084936772295 19135.74596014517
1408.8896356375335 19569.995983106033
1409.6941381365323 19355.935502590943
1410.498444322955 19080.178100711884
1411.3025542504402 19119.88047042829
1412.106467972606 19318.09323066359
1412.9101855430508 19251.957271326228
1413.7137070153458 19028.280011037605
1414.5170324430437 19113.411765817058
1415.320161879672 19243.597787942672
1416.1230953787435 19317.24260595641
1416.925832993742 18871.611949033897
1417.7283747781275 18773.396750664135
1418.5307207853439 19223.896068320428
1419.3328710688093 19024.91118599088
1420.134825681922 18737.29843887813
1420.9365846780584 18840.072780875736
1421.7381481105713 18927.40842823453
1422.539516032788 19067.73626536497
1423.3406884980232 18939.694783532104
1424.1416655595604 18752.47207952005
1424.942447270665 18846.41052778476
1425.7430336845828 18911.99168531646
1426.5434248545298 18745.074560376786
1427.3436208337116 18907.159749844122
1428.143621675301 18839.835732527572
1428.9434274324558 18955.3388574708
1429.7430381583108 18670.15996048305
1430.5424539059713 18501.830781413988
1431.3416747285337 19212.193610175545
1432.1407006790632 18796.963650515554
1432.9395318106053 18744.610116401884
1433.7381681761835 18394.87690931504
1434.5366098288014 18714.320044546686
1435.3348568214424 18727.63886496533
1436.1329092070573 18494.979705143276
1436.9307670385879 18512.205012980365
1437.7284303689503 18810.32103320167
1438.5258992510335 18764.435439714467
1439.3231737377118 18609.51075086534
1440.1202538818306 18536.784458625498
1440.9171397362225 18582.437574008156
1441.7138313536925 18542.81080733575
1442.5103287870243 18497.7809728324
1443.3066320889775 18309.98369028116
1444.1027413122956 18610.01615137989
1444.8986565096966 18512.57274266256
1445.694377733882 18579.603419400293
1446.4899050375207 18313.94371031935
1447.2852384732687 18552.24961774954
1448.0803780937622 18548.254840527166
1448.8753239516063 18401.41609636279
1449.6700760993954 18159.816750436363
1450.464634589689 18628.23426074626
1451.2589994750397 18677.524458925465
1452.0531708079689 18429.059392349016
1452.8471486409799 18122.856436286253
1453.6409330265524 18563.703179950317
1454.4345240171442 18436.43244617647
1455.2279216651987 18506.072224219188
1456.0211260231263 18248.413982016285
1456.8141371433194 18606.689005904536
1457.6069550781594 18564.72717714452
1458.3995798799897 18239.39300514347
1459.1920116011424 18058.218335584148
1459.98425029393 18173.523612114866
1460.7762960106338 18205.090726079397
1461.5681488035225 18185.798670572534
1462.3598087248392 18206.20077706434
1463.1512758268036 18510.51461007858
1463.942550161617 18223.98695086757
1464.7336317814625 17941.632946492246
1465.524520738496 18082.603513360573
1466.3152170848552 18144.36613334505
1467.1057208726506 18196.196212392875
1467.8960321539817 18061.24992951936
1468.6861509809169 17891.55311316935
1469.4760774055085 18046.315984185847
1470.265811479785 18080.770282485646
1471.055353255755 17922.779821667405
1471.844702785409 17675.046215753566
1472.6338601207044 17983.713818261753
1473.4228253135934 18121.850951576307
1474.2115984159936 17780.8747865127
1475.0001794798063 17549.423380836284
1475.7885685569145 17920.264109714706
1476.576765699172 17706.556419765955
1477.3647709584238 17600.620415923295
1478.1525843864802 17784.141412011053
1478.9402060351367 17887.0318106735
1479.7276359561693 17948.325578758224
1480.514874201328 17597.87801127905
1481.3019208223468 17433.971210256954
1482.0887758709323 17649.35696110878
1482.8754393987747 17841.680659906768
1483.6619114575406 17519.27101492318
1484.4481920988783 17609.95051284669
1485.2342813744108 17725.53463783308
1486.0201793357446 17790.250356371318
1486.8058860344572 17435.328338840645
1487.591401522117 17496.816019186823
1488.3767258502594 17559.340283356913
1489.1618590704056 17727.26555566431
1489.9468012340494 17405.82974560654
1490.7315523926754 17610.135203919497
1491.5161125977356 17774.01149540628
1492.3004819006637 17482.193521535934
1493.084660352877 17307.603092569865
1493.8686480057622 17427.040003212467
1494.6524449106964 17740.87216518892
1495.4360511190262 17857.357898205642
1496.219466682087 17518.894347534802
1497.0026916511779 17536.15220783967
1497.7857260775945 17375.237883617097
1498.5685700125996 17425.879896434315
1499.3512235074395 17334.175973736652
1500.133686613337 17133.48130375717
1500.9159593814966 17349.405168165744
1501.698041863101 17632.669020970854
1502.4799341093094 17236.60320444285
1503.2616361712662 16958.558505016
1504.043148100087 17377.181156824594
1504.8244699468742 17224.850288179463
1505.6056017626997 17107.663691571575
1506.3865435986281 17026.771674529187
1507.1672955056893 17292.157652079666
1507.9478575348967 16907.455401950978
1508.7282297372512 17408.83800224644
1509.5084121637192 17002.309206544283
1510.2884048652577 17223.3837859775
1511.0682078927948 17020.0177466318
1511.8478212972423 16919.453707950604
1512.6272451294917 16728.140786448734
1513.4064794404076 17096.119200791938
1514.1855242808433 16967.713970294713
1514.9643797016215 16993.317511432604
1515.743045753552 16996.20913394253
1516.5215224874191 17122.359443768968
1517.2998099539836 16727.11527402418
1518.077908203999 16793.136775426785
1518.8558172881785 16861.73396890314
1519.633537257234 16993.815192866452
1520.4110681618404 16849.375353544317
1521.1884100526604 16977.815262215525
1521.9655629803365 16733.317215515483
1522.7425269954856 17001.058923709876
1523.5193021487103 17213.915221540028
1524.2958884905856 16706.90676063613
1525.0722860716687 16745.068668634354
1525.848494942502 16829.63890882683
1526.624515153595 16766.662891983382
1527.4003467554485 16786.37712811595
1528.175989798534 16703.327406809636
1528.9514443333064 16866.740126471468
1529.726710410203 16873.163514526426
1530.5017880796331 16573.25185181649
1531.276677391992 16436.60629801676
1532.0513783976457 16771.391082208153
1532.825891146953 16640.125436224105
1533.6002156902414 16685.61632402435
1534.3743520778207 16523.975242798017
1535.1483003599806 16534.116623664737
1535.9220605869923 16599.762093576817
1536.6956328091019 16715.743018787263
1537.4690170765407 16326.091638581402
1538.242213439511 16643.6510769552
1539.015221948208 16379.186499625017
1539.78804265279 16402.234587948766
1540.560675603405 16228.271408527498
1541.3331208501804 16539.270830300735
1542.1053784432224 16615.774207152703
1542.8774484326168 16404.93540793458
1543.649330868422 16279.181245411935
1544.4210258006842 16428.130936432965
1545.1925332794308 16424.141412670924
1545.9638533546604 16416.707955658465
1546.7349860763552 16167.910436247112
1547.5059314944829 16626.942405542675
1548.27668965898 16300.536859520793
1549.0472606197673 16119.416219754698
1549.817644426752 15895.367192269568
1550.5878411298072 16305.054989748081
1551.3578507787988 16326.612879080978
1552.1276734235635 15982.442371781126
1552.8973091139233 16156.560824521668
1553.6667578996767 16347.425911683065
1554.436019830604 16063.446643016712
1555.20509495646 16060.274006488737
1555.9739833269869 15831.346713669462
1556.7426849919011 15966.698918555
1557.511200000903 16235.251972041859
1558.2795284036674 16038.778056665373
1559.0476702498509 15840.771263250968
1559.8156255890954 16054.105179019438
1560.5833944710157 16205.422230738117
1561.3509769452048 15849.919962536887
1562.1183730612447 15856.938996732319
1562.8855828686865 16043.523529272348
1563.6526064170703 16012.632490530197
1564.4194437559127 15950.153193536364
1565.1860949347047 15784.662731489825
1565.9525600029283 16177.20479690528
1566.7188390100328 16074.553773160029
1567.4849320054564 15629.087483131221
1568.250839038612 15738.608862895126
1569.0165601588997 15726.752602901975
1569.7820954156887 15742.751580807464
1570.5474448583373 15459.857996011366
1571.31260853618 15374.617097116081
1572.0775864985299 15406.81324804758
1572.8423787946813 15729.597036536536
1573.6069854739108 15729.583184720517
1574.371406585471 15369.705785876082
1575.1356421785986 15666.396679806456
1575.899692302506 15372.307439877064
1576.6635570063845 15669.787084549966
1577.4272363394157 15416.286575251248
1578.190730350747 15425.051446560037
1578.9540390895163 15574.971954444398
1579.7171626048384 15216.276183355085
1580.480100945806 15141.881561115439
1581.2428541614918 15345.835789079481
1582.0054223009538 15439.180593293777
1582.767805413223 15255.149462766396
1583.5300035473156 15191.962935011365
1584.292016752228 15446.485497799265
1585.0538450769309 15457.121665951723
1585.8154885703807 15067.483143142683
1586.5769472815136 14849.007077708224
1587.3382212592405 15110.310014574628
1588.099310552463 15194.533059776859
1588.8602152100484 15340.818504607407
1589.6209352808564 15042.824694957093
1590.3814708137234 15101.386401024534
1591.14182185746 15371.061477219537
1591.9019884608679 14837.59571247578
1592.6619706727215 14610.77637605237
1593.4217685417734 15073.319696402235
1594.1813821167616 15062.937824276398
1594.9408114464022 14770.064422701142
1595.7000565793933 14898.549269472536
1596.459117564409 14844.941892281024
1597.2179944501113 14757.054409183364
1597.9766872851324 14692.006418932167
1598.735196118092 14701.611979478053
1599.4935209975883 14841.17057396928
1600.2516619721973 14814.105974090617
1601.0096190904787 14700.766200881935
1601.7673924009723 14430.202305642695
1602.524981952196 14787.056757847056
1603.2823877926476 14384.521896739167
1604.0396099708087 14270.773255944276
1604.7966485351371 14469.782494644653
1605.5535035340745 14352.404972953087
1606.3101750160404 14703.844855836442
1607.0666630294363 14395.291596365545
1607.822967622642 14180.14390297152
1608.5790888440224 14453.40860631536
1609.3350267419137 14573.90540093341
1610.0907813646445 14120.49592231543
1610.8463527605145 14124.825761998194
1611.601740977805 14165.965282242038
1612.356946064785 14161.15105872897
1613.1119680696902 14041.74809555019
1613.8668070407512 14093.243395726113
1614.6214630261748 14145.675715852234
1615.375936074137 14091.600267902386
1616.1302262328118 13979.627284754286
1616.8843335503425 13970.491791285147
1617.638258074854 14119.227094440499
1618.391999854457 13899.868226202434
1619.1455589372363 14093.455154299329
1619.8989353712623 13921.834061882842
1620.65212920458 13764.215079560465
1621.4051404852235 13723.876648547448
1622.1579692611976 13714.406793404307
1622.9106155804966 13416.633585504294
1623.663079491087 13687.171194172752
1624.4153610409248 13656.862349993407
1625.1674602779385 13655.720380160841
1625.9193772500403 13590.410299331887
1626.6711120051277 13728.027031530388
1627.4226645910676 13611.602719353346
1628.174035055721 13298.198814197085
1628.9252234469168 13484.762961039876
1629.676229812474 13339.129638395816
1630.4270542001905 13694.103716551492
1631.1776966578382 13451.088036720339
1631.9281572331747 13209.297242993285
1632.678435973945 13581.318502118516
1633.4285329278573 13310.86554685268
1634.1784481426203 13096.194267268545
1634.9281816659113 13104.684716667984
1635.677733545388 13595.861263022143
1636.4271038286934 13066.198461835229
1637.176292563452 13356.884224717563
1637.9252997972635 13187.996368145396
1638.674125577716 13397.92883486013
1639.4227699523672 13527.70332621691
1640.171232968767 12905.171814879159
1640.9195146744423 12989.709812116713
1641.6676151168977 13122.29493599493
1642.4155343436178 13274.354504154733
1643.1632724020765 13022.314096670323
1643.9108293397167 12964.68137624322
1644.658205203974 12995.760954705338
1645.4054000422566 13433.60715897862
1646.1524139019566 12816.90512529243
1646.8992468304423 12717.803069471749
1647.6458988750728 12920.045052461774
1648.3923700831765 13009.470905585766
1649.1386605020743 12748.774432285103
1649.8847701790564 12846.871157689524
1650.6306991614038 12890.949909326078
1651.3764474963682 12928.656855450918
1652.1220152311944 12428.549687363331
1652.867402413096 12712.508252593683
1653.6126090892776 12899.673052587845
1654.3576353069184 12770.805164110887
1655.1024811131829 12552.32648876257
1655.8471465552066 12579.537071207777
1656.5916316801213 12716.806117891327
1657.3359365350298 12646.630105770797
1658.0800611670165 12460.602926460157
1658.824005623148 12471.46253569011
1659.5677699504722 12362.569360718651
1660.3113541960192 12464.788646210294
1661.054758406799 12320.228176964683
1661.7979826297997 12231.230460426457
1662.5410269119966 12164.781162674644
1663.283891300338 12568.296871620572
1664.0265758417645 12420.376795413284
1664.7690805831826 12309.513485340758
1665.5114055714948 12510.919091551094
1666.2535508535748 12555.426474058786
1666.9955164762814 12086.11664622513
1667.7373024864555 12097.885897809527
1668.478908930916 12309.52456719544
1669.220335856462 12257.822379881389
1669.9615833098778 11933.26403466526
1670.7026513379296 12064.524244376478
1671.44353998736 12139.830274982382
1672.1842493048916 12145.233333181257
1672.9247793372379 11966.20442897529
1673.6651301310812 12046.142152913411
1674.4053017330934 12004.528458954142
1675.1452941899242 12085.139805029274
1675.885107548207 11761.483514533611
1676.6247418545518 11603.964103084443
1677.3641971555535 11698.028142260137
1678.1034734977893 11932.841119069953
1678.8425709278108 11742.109836165026
1679.5814894921605 11889.37040805422
1680.320229237359 12095.052723126928
1681.0587902098978 11822.580924806713
1681.7971724562685 11564.4877583996
1682.5353760229264 11513.31017805069
1683.2734009563173 11861.420400277388
1684.0112473028657 11562.154434366677
1684.7489151089794 11698.027513897268
1685.4864044210462 11756.37818498547
1686.2237152854377 11278.994978592305
1686.960847748498 11692.744605164808
1687.6978018565642 11347.575099160102
1688.434577655944 11208.168698506768
1689.1711751929379 11063.114428508728
1689.9075945138156 11479.14922229482
1690.6438356648396 11358.919271026822
1691.3798986922448 11040.35625180374
1692.1157836422499 11353.284959080282
1692.851490561059 11311.918458894503
1693.587019494853 11317.705065074686
1694.3223704897991 11012.64185676441
1695.0575435920364 10989.664898764118
1695.792538847696 11488.943734764845
1696.527356302886 11052.514551924924
1697.2619960036936 10904.981810684358
1697.9964579961907 10960.751174556945
1698.730742326432 10762.934193066423
1699.4648490404488 10755.475004175176
1700.1987781842563 10974.559662649372
1700.9325298038548 11189.002089864798
1701.6661039452174 11090.058004516191
1702.3995006543082 10850.470681634888
1703.1327199770658 10906.91618455767
1703.865761959416 10808.931506735324
1704.598626647261 11108.442622680293
1705.3313140864866 10656.150124328487
1706.0638243229587 10788.335282285461
1706.7961574025303 11061.01911251948
1707.528313371029 10718.674098118687
1708.260292274268 10613.857443915756
1708.9920941580403 10698.13487166876
1709.7237190681226 10671.556217795964
1710.4551670502697 10798.873779309954
1711.18643815022 10553.35647028513
1711.9175324136959 11063.808122715205
1712.6484498863938 10623.984712460562
1713.379190614005 10500.936451969537
1714.109754642188 10567.011604054489
1714.8401420165883 10568.650786954679
1715.570352782839 10725.661311035827
1716.3003869865497 10610.264335819433
1717.0302446733076 10407.69772792735
1717.7599258886876 10419.348622168422
1718.4894306782444 10749.43324137184
1719.2187590875183 10356.170747142503
1719.9479111620203 10781.34016769724
1720.6768869472544 10253.334028670159
1721.4056864887025 10673.945708537669
1722.1343098318284 10771.61364139598
1722.8627570220742 10417.954855513262
1723.591028104871 10227.228905276159
1724.3191231256242 10253.747921670962
1725.0470421297232 10290.24810568861
1725.7747851625427 10405.068319663074
1726.5023522694337 10414.537891161905
1727.2297434957363 10417.246054304023
1727.9569588867635 10169.220478026062
1728.6839984878152 10423.130117001809
1729.4108623441734 9913.474906988551
1730.1375505011038 10547.959131380856
1730.8640630038426 10352.103394811224
1731.5903998976264 10137.738300019439
1732.316561227657 10244.488126695569
1733.0425470391274 10010.64820263549
1733.7683573772065 10186.54687355374
1734.4939922870508 10219.35617409654
1735.2194518137949 10149.257121354554
1735.9447360025606 10248.250478438578
1736.669844898439 10066.179430335498
1737.3947785465189 9883.721323479502
1738.1195369918605 9884.86540288567
1738.8441202795093 10307.103616923403
1739.5685284544943 10036.204112540076
1740.292761561821 10178.374041546089
1741.0168196464838 10046.82499408846
1741.7407027534518 10067.404749035459
1742.464410927687 10162.44266281291
1743.187944214118 10056.861475195323
1743.9113026576688 9966.263962161116
1744.634486303241 10115.917549772717
1745.3574951957125 9899.697957799222
1746.0803293799509 10139.419355694099
1746.8029889008048 9987.210809361208
1747.5254738031017 10060.27044695926
1748.2477841316504 9865.003988377863
1748.969919931249 9775.244311070284
1749.6918812466665 9831.453367845488
1750.4136681226646 10145.653196893176
1751.1352806039777 9808.78614644258
1751.856718735331 9535.913522622837
1752.5779825614281 9612.338472842055
1753.2990721269507 9926.439437598927
1754.0199874765676 9943.974144257505
1754.7407286549314 9707.300592800639
1755.4612957066693 9677.897495584464
1756.1816886763954 9742.064205364963
1756.9019076087097 9892.001737335915
1757.6219525481865 9924.463410130298
1758.3418235393856 9677.931404445768
1759.061520626854 9875.84754763203
1759.7810438551096 9925.215510017464
1760.5003932686614 9607.505687990666
1761.2195689119999 9949.866020474892
1761.938570829594 9794.6717674573
1762.657399065898 9840.084349702678
1763.376053665348 9582.22106121226
1764.0945346723602 9450.556406874792
1764.812842131334 9962.930947478095
1765.5309760866512 9532.774152767628
1766.2489365826787 9579.208816924942
1766.9667236637597 9573.341626668729
1767.684337374223 9424.965857634877
1768.401777758383 9524.855227480693
1769.1190448605284 9545.401033403443
1769.836138724937 9296.958266756787
1770.5530593958665 9617.578465326205
1771.2698069175603 9838.100320957727
1771.9863813342326 9688.543708322348
1772.702782690094 9497.609476262984
1773.4190110293293 9541.41530912352
1774.1350663961111 9720.007405817305
1774.8509488345844 9531.022117721808
1775.5666583888924 9459.185073052362
1776.2821951031437 9746.330226493397
1776.9975590214362 9481.133511859774
1777.7127501878585 9685.3793151898
1778.4277686464684 9507.509091378779
1779.1426144413108 9654.48632390643
1779.8572876164162 9652.32987311858
1780.571788215797 9284.69537834176
1781.2861162834415 9288.060698192447
1782.0002718633277 9243.412921869818
1782.7142549994132 9380.605594846085
1783.4280657356376 9410.535168825323
1784.141704115922 9273.766392642381
1784.855170184177 9399.296386755634
1785.5684639842839 9429.066405763955
1786.2815855601148 8924.85744805972
1786.9945349555237 9356.812475687677
1787.707312214343 9166.25511866013
1788.4199173803918 9730.480557027939
1789.132350497468 9312.644408082793
1789.8446116093583 9162.78340074151
1790.556700759822 9084.800696072432
1791.2686179926077 9212.067938890665
1791.9803633514493 9163.826513882934
1792.6919368800554 8965.31148720589
1793.4033386221236 9418.49133255753
1794.1145686213295 9337.91037385998
1794.8256269213307 9451.712843855723
1795.536513565774 9262.60726689023
1796.247228598284 8991.905043637998
1796.9577720624693 9110.40239901476
1797.6681440019165 9224.908924102612
1798.3783444602013 9188.8680293692
1799.0883734808776 9315.36090037852
1799.7982311074884 9191.096240967148
1800.5079173835475 9268.085277038655
1801.2174323525633 9218.353706297172
1801.9267760580187 9092.869351625817
1802.635948543386 9307.255048535768
1803.3449498521113 8994.021229305055
1804.0537800276325 9230.455426502707
1804.7624391133668 9063.104790902727
1805.47092715271 8851.73318209511
1806.1792441890484 8922.16592661442
1806.8873902657433 9004.544253643082
1807.5953654261448 9049.904639133396
1808.3031697135812 8822.138899647227
1809.0108031713662 8787.725854220176
1809.71826584279 9065.876954032752
1810.425557771141 9121.794395984703
1811.1326789996747 9370.544359804357
1811.839629571632 8850.630728821157
1812.5464095302468 9083.50868802589
1813.2530189187182 9010.045945103484
1813.959457780249 8940.434971249786
1814.6657261580076 9088.574055731984
1815.371824095153 8911.12629624803
1816.0777516348262 9069.651032871865
1816.78350882015 8592.347114600712
1817.4890956942272 8778.215449583819
1818.1945123001533 8790.47760942634
1818.8997586809928 8937.738847939223
1819.6048348798067 8749.209903835963
1820.3097409396287 9028.089226736081
1821.0144769034796 9204.610056843158
1821.7190428143622 8964.614072586062
1822.423438715261 8982.446872862154
1823.1276646491478 8806.638471090313
1823.8317206589727 8850.36344499802
1824.5356067876692 8959.311517302822
1825.2393230781581 8781.518020187907
1825.942869573335 8466.50857885047
1826.646246316086 8710.466202613808
1827.3494533492758 8887.323651621373
1828.052490715756 8828.897900804883
1828.7553584583547 8719.332432175757
1829.458056619891 8861.599954400917
1830.1605852431585 8755.927045436527
1830.8629443709433 8640.450640920415
1831.5651340460063 8707.298637288952
1832.2671543110919 8544.561352199282
1832.9690052089318 8817.381918195244
1833.6706867822395 8600.011251213316
1834.3721990737104 8813.043410566486
1835.0735421260233 8722.421328072218
1835.774715981841 8664.446712099336
1836.4757206838058 9004.73125087774
1837.1765562745459 8695.911365639946
1837.8772227966747 8547.581401325806
1838.5777202927839 8866.184952097325
1839.2780488054523 8515.57891053121
1839.9782083772352 8591.604330901748
1840.6781990506806 8927.377132505695
1841.378020868313 8713.316874894303
1842.0776738726418 8646.965878195168
1842.777158106157 8434.772371627947
1843.4764736113375 8462.102602870098
1844.1756204306403 8678.558330322698
1844.8745986065078 8573.509599729632
1845.5734081813607 8351.338663412602
1846.2720491976124 8396.379248784973
1846.970521697649 8568.006327607043
1847.6688257238511 8471.550549865085
1848.3669613185684 8430.59386812305
1849.0649285241452 8302.42160400667
1849.7627273829057 8682.01244883813
1850.460357937156 8582.917090314211
1851.1578202291857 8253.650211081187
1851.8551143012664 8590.16895436445
1852.5522401956569 8473.756671196865
1853.2491979545957 8628.63141516228
1853.9459876203055 8429.512914293195
1854.6426092349902 8440.179123510969
1855.3390628408451 8431.300927833132
1856.0353484800362 8757.97023576182
1856.7314661947203 8559.874562089102
1857.4274160270397 8330.638987686118
1858.123198019115 8408.148447707948
1858.8188122130487 8219.226709082013
1859.5142586509319 8384.185441646496
1860.209537374838 8344.779717607225
1860.9046484268183 8304.349535472575
1861.599591848917 8658.739691977651
1862.294367683151 8408.909073898843
1862.988975971528 8336.780306670113
1863.6834167560355 8434.097829106318
1864.3776900786452 8567.181038488812
1865.0717959813119 8284.864909514643
1865.7657345059724 8087.692502561334
1866.4595056945564 8502.935330119928
1867.1531095889586 8487.744749524863
1867.846546231076 8131.131191143397
1868.5398156627743 8492.261266876272
1869.2329179259123 8185.305698815445
1869.9258530623283 8472.726333185954
1870.618621113843 8103.6646675264155
1871.3112221222636 8151.486851556581
1872.0036561293764 8251.826665358782
1872.695923176956 8221.165471088536
1873.3880233067594 8443.70547484484
1874.0799565605212 8047.778577592702
1874.7717229799673 8231.922917470301
1875.4633226068036 8352.14955271678
1876.1547554827175 8359.786702107307
1876.8460216493859 8192.62943321573
1877.5371211484617 8270.011166804938
1878.2280540215852 8377.5266740103
1878.9188203103804 7998.214996027602
1879.6094200564548 8239.245682977238
1880.299853301396 8073.589985019091
1880.9901200867826 8374.27923352856
1881.6802204541673 8289.078567148768
1882.3701544450942 8321.799243922362
1883.059922101087 8032.5430342938635
1883.7495234636517 8401.220313851856
1884.4389585742792 8194.149915123704
1885.1282274744517 8030.3505693319485
1885.8173302056166 8783.778562230586
1886.506266809225 8179.358140161307
1887.195037326701 8025.994367964597
1887.8836417994517 8106.647462134788
1888.5720802688702 8328.87225192965
1889.260352776333 8293.030091407392
1889.9484593632042 8413.140847433711
1890.63640007082 7959.177812018902
1891.3241749405151 7877.740194819124
1892.0117840135954 8236.12592263447
1892.6992273313572 8045.350564765463
1893.3865049350788 7866.789277140209
1894.0736168660223 8477.850933795298
1894.7605631654333 8051.2356451034575
1895.4473438745408 7975.97138378173
1896.133959034556 8390.771229415022
1896.820408686679 8081.998408524659
1897.506692872088 8270.985239084848
1898.192811631945 8064.331757141704
1898.8787650073991 8028.374922861827
1899.5645530395832 8077.66278488001
1900.2501757696118 8206.194813141567
1900.9356332385796 7890.736553383309
1901.620925487574 8329.650620383596
1902.3060525576602 8231.000789398822
1902.9910144898859 8246.275186548757
1903.6758113252872 7996.585787690417
1904.3604431048789 8082.5534951975105
1905.0449098696663 8104.212548845763
1905.7292116606295 7815.833241373114
1906.4133485187394 8039.9916691251
1907.0973204849488 7603.544863907247
1907.7811276001976 7722.410595641044
1908.4647699053967 7827.519446290185
1909.1482474414588 7632.65515638512
1909.8315602492694 7978.596367518825
1910.5147083696957 8106.069506968854
1911.1976918436012 7938.163633219805
1911.880510711815 7794.430550471591
1912.5631650151681 8284.643752818232
1913.2456547944657 7908.164310414211
1913.927980090495 8028.107168930072
1914.6101409440362 7834.454814439037
1915.2921373958416 8122.681033387171
1915.9739694866603 7818.122303231178
1916.655637257214 8107.0204751721785
1917.3371407482136 7974.3342628799855
1918.0184800003572 8254.510486656478
1918.6996550543154 8141.855318643442
1919.3806659507554 8065.795305263996
1920.0615127303208 7823.0665333257075
1920.7421954336423 8240.904075115546
1921.4227141013343 8125.51618088849
1922.103068773993 7864.831348557191
1922.783259492202 8059.779083118128
1923.4632862965227 7843.831758394711
1924.1431492275078 7843.147181422857
1924.8228483256917 7733.828428125182
1925.5023836315922 7804.73709446999
1926.1817551857057 7295.510549080008
1926.8609630285227 8044.041434645818
1927.5400072005123 7920.937462339946
1928.218887742125 7877.57590190724
1928.8976046938005 7675.3933701504775
1929.5761580959588 7718.047769754902
1930.2545479890086 7851.424680745355
1930.9327744133352 7465.802631252072
1931.6108374093164 7770.070778553546
1932.2887370173066 8157.01767550316
1932.9664732776473 7443.153034244506
1933.6440462306673 7842.424148985845
1934.3214559166754 7733.765957318252
1934.9987023759659 8016.345874453074
1935.675785648813 7987.7534051970015
1936.3527057754836 7370.284132499427
1937.029462796223 8017.767918153613
1937.70605675126 7590.274848199551
1938.3824876808085 7465.4821890962485
1939.058755625072 7557.696467529813
1939.7348606242267 7408.0818533642405
1940.4108027184448 7670.514326985042
1941.0865819478713 7788.292804940121
1941.7621983526478 7553.282788082661
1942.4376519728921 7483.35133543011
1943.1129428487038 7722.839201188811
1943.7880710201734 7760.145355064868
1944.4630365273733 7741.575834999113
1945.1378394103576 7463.9459997183385
1945.8124797091714 8053.073020175713
1946.4869574638324 7418.042651188222
1947.161272714353 7517.6805182830185
1947.8354255007234 7598.0040888769045
1948.5094158629272 7525.628653842497
1949.1832438409183 7717.158330707362
1949.8569094746435 7817.02584534565
1950.530412804037 7732.91725915422
1951.2037538690092 7698.104164277858
1951.8769327094578 7490.316157321479
1952.5499493652678 7484.079363638133
1953.222803876306 7743.972843682006
1953.895496282421 7649.674891243408
1954.5680266234522 7566.52034632242
1955.2403949392155 7633.978673786693
1955.9126012695142 7300.493677926582
1956.5846456541403 7545.170222423333
1957.2565281328643 7482.680805780745
1957.9282487454457 7601.105301640999
1958.5998075316202 7643.744287098049
1959.27120453112 7486.162310293747
1959.9424397836501 7479.386116248669
1960.613513328908 7685.383271145914
1961.2844252065697 7723.917872717844
1961.9551754563017 7343.123001686302
1962.6257641177453 7214.895763938218
1963.29619123054 7208.033734072492
1963.966456834296 7108.327622759828
1964.6365609686181 7426.53560699699
1965.306503673086 7533.1167809577355
1965.976284987275 7500.684311069226
1966.645904950734 7504.48296248461
1967.315363603002 7243.696595884115
1967.9846609836077 7413.534534154413
1968.6537971320486 7202.128824827768
1969.3227720878222 7430.648903780476
1969.9915858904042 7432.989902034666
1970.660238579252 7523.414969713487
1971.3287301938108 7301.029999798948
1971.997060773514 7203.753719307741
1972.665230357772 7161.670173564635
1973.3332389859843 7175.806839073879
1974.0010866975335 7291.697412496169
1974.6687735317864 7419.053531416908
1975.3362995280932 7267.648931347225
1976.003664725793 7572.73648312228
1976.6708691642052 7195.6372149418985
1977.3379128826364 7344.797371153205
1978.004795920373 7538.471571642175
1978.6715183166925 7670.30338102691
1979.3380801108524 6888.197122808138
1980.0044813420973 7206.496899712384
1980.6707220496555 6893.842929441463
1981.3368022727373 7287.419872927459
1982.0027220505417 7211.401885517373
1982.66848142225 6912.7044281380495
1983.3340804270283 6995.447157538601
1983.999519104027 7223.980280211729
1984.6647974923835 7214.240698177511
1985.329915631215 7260.654280115674
1985.99487355963 7329.055525110474
1986.6596713167146 7305.684843107067
1987.3243089415428 6988.8388801011415
1987.9887864731754 7315.456201211709
1988.6531039506553 6998.782619960408
1989.3172614130071 7691.474873942985
1989.9812588992481 6969.4257199971835
1990.645096448372 6806.67774525659
1991.3087740993633 7134.845621123983
1991.9722918911848 7054.256158729826
1992.635649862792 7125.765754382995
1993.2988480531185 7116.320907715449
1993.9618865010852 7543.13878253568
1994.6247652455968 6978.107875209503
1995.287484325545 6974.490131016615
1995.9500437798033 6980.383172513788
1996.6124436472292 7019.2385071508415
1997.2746839666706 7229.044522315778
1997.936764776954 7056.671692006355
1998.598686116895 6944.251468102998
1999.2604480252903 7419.2035322183165
1999.9220505409212 7196.601442372512
2000.5834937025593 6990.578957075869
2001.2447775489582 7039.912665906513
2001.9059021188514 7134.109006610124
2002.5668674509616 6921.6337909830645
2003.2276735839987 7079.685514682062
2003.8883205566508 7232.368089330586
2004.5488084075987 6967.589301745339
2005.2091371755014 6956.859089669151
2005.8693068990033 6809.831208408422
2006.5293176167397 7207.796060915078
2007.1891693673224 6844.236455045917
2007.848862189354 6776.298780337541
2008.5083961214223 6923.804705994332
2009.1677712020955 6947.3595697481915
2009.8269874699254 6724.69431232261
2010.4860449634598 7456.735897667104
2011.1449437212177 6701.613154925348
2011.8036837817108 7385.166722934073
2012.4622651834325 7166.6240488764215
2013.1206879648653 7031.599187207842
2013.7789521644736 7262.773449313338
2014.4370578207036 6652.41147898885
2015.0950049719922 7017.41885049044
2015.7527936567585 7100.683934728089
2016.4104239134067 6924.1173959488715
2017.067895780323 7290.4894691273275
2017.725209295886 6600.548058114316
2018.3823644984514 7212.145672609584
2019.0393614263648 6962.808009864304
2019.6962001179545 6837.142976878665
2020.3528806115355 7169.084211471849
2021.0094029454067 7096.701003989084
2021.6657671578487 6648.323741272232
2022.321973287133 6848.083075218885
2022.9780213715148 6756.335715367537
2023.6339114492293 6918.913017841801
2024.2896435585026 6776.219369037111
2024.9452177375442 6958.396860833711
2025.600634024544 7158.729500355655
2026.2558924576842 6964.712497446798
2026.9109930751292 7048.094963008174
2027.565935915025 6920.473750313213
2028.2207210155066 7165.68044404304
2028.8753484146964 7295.214571395778
2029.529818150695 6489.470293510573
2030.1841302615903 7083.327254884815
2030.8382847854573 6689.853324733553
2031.4922817603601 6959.596623866515
2032.1461212243357 6742.932322602974
2032.7998032154192 6428.381653187642
2033.4533277716218 6801.694207737618
2034.1066949309443 6552.006642395436
2034.7599047313688 6738.952022140693
2035.4129572108704 6831.148509166809
2036.0658524074006 6818.679087854762
2036.7185903589016 6855.859604680972
2037.3711711032956 6914.370889574531
2038.023594678496 6731.725304866588
2038.675861122394 6788.1191534686905
2039.3279704728757 6993.5739023312435
2039.9799227678031 6606.434549959628
2040.6317180450278 6756.672932400908
2041.2833563423865 6807.556548581109
2041.9348376977014 7117.579327472666
2042.5861621487784 7019.515468677035
2043.2373297334088 6673.286339096312
2043.8883404893695 6925.983311561076
2044.5391944544208 6888.144090828411
2045.1898916663158 6932.258674238525
2045.8404321627804 6879.570512661927
2046.4908159815368 6647.057518860335
2047.1410431602853 6545.885254174705
2047.7911137367173 6632.456725305649
2048.441027748504 6929.601324136235
2049.090785233302 6440.294325774269
2049.7403862287592 6635.11083996145
2050.389830772503 7003.097212770912
2051.0391189021466 6563.831629816668
2051.688250655294 6833.749872504466
2052.337226069527 6593.773856492325
2052.986045182417 6787.351576619791
2053.634708031521 6252.9854715403535
2054.283214654375 6915.416851663833
2054.931565088511 6449.809214353316
2055.579759371436 6388.809702428056
2056.2277975406523 6915.11545158865
2056.8756796336384 6839.894946802369
2057.5234056878617 6359.660063260041
2058.1709757407752 6475.855360403422
2058.8183898298194 6952.554073297697
2059.465647992416 6937.0565490701465
2060.1127502659747 6829.245350854622
2060.759696687888 6324.560774220827
2061.4064872955405 6837.526516956869
2062.053122126292 6872.575148289981
2062.699601217497 6064.5680723262
2063.345924606485 6445.013316804567
2063.992092330587 6703.555872455923
2064.638104427102 6525.662969578992
2065.283960933324 6943.826479003811
2065.92966188653 6721.85568934518
2066.5752073239855 6737.2322597926295
2067.2205972829397 6296.829288642544
2067.86583180062 6688.553549919928
2068.5109109142522 6468.587127891016
2069.15583466104 6622.9862893143
2069.8006030781708 6191.038201679748
2070.445216202821 6450.2501774002685
2071.089674072153 6741.56036071935
2071.7339767233116 6781.113306011779
2072.3781241934303 6520.695583016867
2073.0221165196253 6684.794150467812
2073.6659537390024 6381.045241345275
2074.3096358886505 6769.687818835611
2074.953163005637 6414.708042397537
2075.596535127028 6295.144441088775
2076.2397522898664 6373.589927703115
2076.882814531182 6407.4816580277275
2077.5257218879924 6554.885666353541
2078.1684743973 6396.171888600433
2078.8110720960885 6331.275296371167
2079.453515021336 6957.509821182726
2080.095803209997 6532.875052673448
2080.7379366990135 6484.652402194622
2081.37991552532 6707.677676941542
2082.0217397258275 6638.5248748518425
2082.6634093374414 6099.595486222161
2083.3049243970418 6549.9850962399305
2083.9462849415067 6548.294731164278
2084.587491007689 6461.754164328442
2085.2285426324324 6462.172457877008
2085.869439852564 6558.866236044599
2086.510182704902 6271.9746639702835
2087.1507712262483 6596.920686784569
2087.791205453381 6121.789379006199
2088.4314854230743 6553.565465644126
2089.0716111720867 6484.669047019411
2089.7115827371617 5991.822416906623
2090.351400155023 6979.189974307553
2090.991063462385 6137.435491177421
2091.6305726959527 6131.760025564825
2092.2699278924047 6504.077867583022
2092.9091290884153 6145.722916875702
2093.548176320641 6046.091331821648
2094.187069625721 6529.892313643117
2094.8258090402887 6174.103721052075
2095.464394600951 6630.983188108321
2096.102826344313 6341.426941528012
2096.741104306955 6510.579886217494
2097.379228525453 6189.725520437629
2098.017199036358 5876.380218416071
2098.6550158762147 6756.2190779174025
2099.2926790815527 6396.655958000081
2099.9301886888825 6377.566509997484
2100.5675447347076 6335.881553724964
2101.2047472555114 6633.78654403273
2101.841796287761 6275.874071359451
2102.47869186792 6403.574717559239
2103.1154340324265 6303.620823697599
2103.752022817709 6189.231810363725
2104.388458260184 6323.366451930397
2105.024740396251 6264.856441044682
2105.660869262292 6261.165508681909
2106.296844894685 6634.916342927606
2106.93266732978 6287.5997091232475
2107.5683366039284 6046.147018567421
2108.2038527534532 6390.276198243415
2108.8392158146726 6436.60623646107
2109.4744258238843 6190.031969142023
2110.1094828173755 6199.143992180287
2110.744386831422 6674.526075861623
2111.3791379022787 6288.9072019230125
2112.01373606619 6376.950806139805
2112.648181359389 6529.290365279203
2113.28247381809 6261.731486995854
2113.916613478492 6432.136102757799
2114.550600376786 6290.672482505843
2115.1844345491445 6261.53659214708
2115.818116031729 6129.765221342684
2116.451644860679 6215.348936946723
2117.085021072133 5987.4609766102285
2117.718244702204 6204.223807884272
2118.3513157869984 6154.81575441199
2118.984234362604 6168.598581222852
2119.617000465092 6015.780088502512
2120.249614130529 6569.027544266496
2120.8820753949585 6195.593396314178
2121.5143842944162 6026.559180986861
2122.14654086492 5970.560523006262
2122.7785451424734 6321.717695939316
2123.4103971630702 5909.282392026943
2124.042096962681 6248.980458566881
2124.6736445772767 6327.451516106443
2125.305040042802 6007.612423088009
2125.936283395191 6062.773005883579
2126.567374670365 6095.481206916606
2127.198313904233 5996.318766167125
2127.8291011326855 6792.195745564524
2128.4597363916037 5956.692226005889
2129.0902197168507 5996.714968841583
2129.720551144279 5905.599118794324
2130.3507307097225 6521.137236310964
2130.980758449008 6450.567453410983
2131.6106343979427 5994.34560890286
2132.2403585923203 6270.731371971191
2132.8699310679276 6381.1978096120965
2133.499351860526 6300.630975377194
2134.1286210058715 6067.599242556938
2134.7577385397053 5685.774972076216
2135.3867044977487 6453.022480585414
2136.0155189157176 6366.941874128899
2136.644181829308 6452.70976724599
2137.2726932742025 6191.888928590634
2137.901053286074 6463.984438899052
2138.5292619005777 5873.259181330409
2139.1573191533535 6022.883968555815
2139.7852250800315 6132.675179390701
2140.4129797162295 6098.0527469642275
2141.0405830975433 5845.5319438734805
2141.6680352595613 6547.12482187537
2142.2953362378576 5787.314197642025
2142.9224860679915 6007.723802963503
2143.549484785508 5865.642654027543
2144.1763324259373 5980.211501905391
2144.803029024799 5970.659272546777
2145.429574617594 5849.19324164477
2146.0559692398165 6166.268447021973
2146.682212926942 5802.526663097668
2147.308305714432 5802.591902074506
2147.9342476377333 6545.04024215061
2148.5600387322847 6587.0400887433425
2149.185679033506 6133.908567480952
2149.8111685768017 5997.841142296231
2150.4365073975678 5859.569283386694
2151.061695531187 5864.643925638161
2151.686733013021 6353.166699461685
2152.311619878423 6204.976788453288
2152.9363561627342 5892.708685058912
2153.560941901278 5874.293580748384
2154.1853771293663 6172.121595690833
2154.809661882293 6065.385898677317
2155.433796195348 6444.489443977221
2156.0577801037944 5652.471967839984
2156.681613642895 6193.674223001637
2157.3052968478896 5868.046017029836
2157.928829754006 5997.580506061227
2158.552212396462 6351.38158167833
2159.1754448104566 6086.514529784303
2159.7985270311783 5856.7584862593185
2160.4214590938027 5176.030958586903
2161.0442410334927 5465.203031841877
2161.6668728853874 6142.736728435809
2162.289354684628 5562.691540479459
2162.911686466332 5848.53716314373
2163.533868265602 6015.656656673751
2164.1559001175337 6268.390718339006
2164.7777820572046 5999.819029374905
2165.399514119681 6026.599266629738
2166.021096340013 5818.199962674865
2166.6425287532384 6080.274325208108
2167.263811394385 5665.133898245267
2167.8849442984574 6289.156578261647
2168.505927500455 5615.060292296529
2169.126761035366 6073.200140483821
2169.7474449381552 5662.544300485716
2170.367979243778 5414.838567956872
2170.9883639871823 6022.501643128743
2171.608599203293 5625.292609998936
2172.2286849270276 6454.334074390807
2172.8486211932886 6455.030806751517
2173.4684080369625 5977.18010932526
2174.0880454929265 5562.543181296773
2174.7075335960417 5480.965340038825
2175.3268723811543 6012.866506118789
2175.9460618831 5494.735673569003
2176.565102136701 5675.511360974606
2177.1839931767627 6488.872799891661
2177.802735038078 5783.573035742339
2178.421327755432 5643.488406432886
2179.0397713635866 5645.553150254969
2179.658065897298 5612.714598612005
2180.276211391305 5754.573371892068
2180.8942078803357 5638.26524194427
2181.5120553991 5817.455551430759
2182.129753982299 5561.118298696574
2182.7473036646206 5612.985974272768
2183.3647044807367 5880.142725241613
2183.9819564653044 5558.804647620475
2184.599059652968 5923.944247379104
2185.216014078367 5839.541113492537
2185.832819776113 5276.7299861056235
2186.4494767808137 5987.254453853636
2187.065985127063 5759.5253251830745
2187.682344849436 5652.705829834869
2188.298555982501 6023.864322321555
2188.9146185608097 5781.84994618661
2189.530532618901 6025.5488704520485
2190.1462981912937 5865.939618617139
2190.761915312507 5798.766609896498
2191.377384017036 5665.002009983772
2191.9927043393654 5761.595098269887
2192.6078763139667 5222.854531377487
2193.2228999753006 6235.919647814259
2193.837775357808 5597.037847829193
2194.452502495922 5259.27916591432
2195.0670814240602 5726.260945781313
2195.6815121766285 5217.844352582322
2196.2957947880186 6194.883401356732
2196.9099292926057 5460.578254719883
2197.523915724758 5792.160559048379
2198.137754118825 5589.030350341442
2198.7514445091456 5931.511023764932
2199.3649869300443 5289.734291746201
2199.9783814158327 6151.219937478956
2200.5916280008096 6139.374149977321
2201.2047267192593 5660.894916584863
2201.8176776054515 5554.321446737313
2202.430480693649 5387.837317967575
2203.0431360180955 5793.80441776549
2203.6556436130195 5836.2329613048005
2204.268003512645 5296.273241390098
2204.8802157511727 5581.4749848097845
2205.492280362796 6109.582233954485
2206.1041973816937 5683.158769872165
2206.715966842032 5667.6704878322935
2207.3275887779655 5737.498585364521
2207.93906322363 5440.001406503381
2208.550390213153 5840.5563246415095
2209.1615697806465 5808.42346433885
2209.7726019602105 5404.449616040983
2210.3834867859277 5346.103937165506
2210.9942242918787 5549.585962951465
2211.6048145121167 5629.836335932561
2212.2152574806914 6286.502397219562
2212.825553231638 5423.924157171046
2213.435701798975 6235.712927596644
2214.045703216707 5482.237480158722
2214.655557518832 5136.431678421233
2215.2652647393297 5166.537473185318
2215.874824912169 5039.921830764464
2216.4842380713 5516.047192091235
2217.09350425067 5362.114791957918
2217.7026234842033 5668.045146096728
2218.311595805819 5720.812304072346
2218.9204212494133 5337.905071409619
2219.52909984888 5967.2598108512375
2220.137631638092 5146.476911096004
2220.7460166509154 5923.74721434629
2221.354254921198 5264.111060274207
2221.9623464827764 5584.761765675798
2222.5702913694713 5401.754335312084
2223.178089615096 5973.294642301797
2223.7857412534486 5312.512789254955
2224.39324631831 5125.8412119511795
2225.000604843457 5326.552604272245
2225.607816862641 5523.057680280714
2226.214882409611 5702.237162589665
2226.8218015180973 5816.2687658615505
2227.4285742218217 5361.637185903441
2228.0352005544864 5432.845658755669
2228.6416805497847 5085.4417695149405
2229.248014241399 5359.01141802546
2229.8542016629945 5038.620036306185
2230.460242848223 5540.243207105291
2231.0661378307304 5903.300586924923
2231.671886644139 5109.771535895087
2232.277489322065 5005.461646880844
2232.8829458981127 4854.565946665676
2233.48825640587 5595.2335139582965
2234.0934208789095 6045.7719685443135
2234.6984393507955 5564.767066104294
2235.3033118550793 5487.014282468617
2235.9080384252975 5231.375595963547
2236.5126190949723 5115.69084107681
2237.1170538976166 5324.31726752343
2237.721342866729 4838.833222162256
2238.32548603579 5283.274550780196
2238.9294834382763 5227.4957579773145
2239.533335107646 5274.155016459439
2240.1370410773434 5291.494465128388
2240.740601380803 5004.961075004714
2241.3440160514474 5144.091357589272
2241.9472851226783 5487.920084258554
2242.550408627896 5517.485600482867
2243.1533866004793 5741.608164318766
2243.756219073799 5136.283506515515
2244.3589060812064 5126.035028903551
2244.961447656049 5164.586199503634
2245.5638438316564 5382.173449855449
2246.166094641343 5557.405664552379
2246.7682001184166 5124.4559201175225
2247.3701602961664 5216.98281632438
2247.971975207871 5462.5328066897755
2248.5736448867974 5617.852782099481
2249.175169366197 5297.497991300427
2249.7765486793123 5238.145209622993
2250.3777828593684 5281.089038926088
2250.9788719395783 5434.026451395921
2251.579815953146 5220.014764805222
2252.1806149332606 4901.0257806833215
2252.781268913097 5242.979155681688
2253.381777925817 5004.103294331637
2253.9821420045737 5330.053399427306
2254.5823611825035 5385.74049470828
2255.1824354927303 5339.821971383123
2255.782364968365 5975.53989949188
2256.38214964251 4831.574783044345
2256.9817895482483 5031.669240408373
2257.5812847186553 5133.158031645942
2258.180635186791 5035.158354985479
2258.779840985704 5114.603161618442
2259.37890214843 5131.106484653503
2259.97781870799 5730.683367886115
2260.5765906973957 5396.594215350991
2261.175218149645 5212.788851199679
2261.773701097718 5332.158970925851
2262.3720395745895 4940.647066706237
2262.970233613216 4716.241183969867
2263.568283246548 5087.848597380818
2264.1661885075137 4918.879662983579
2264.763949429038 4940.564446799802
2265.3615660440246 5576.722923999681
2265.959038385374 5044.619465589397
2266.5563664859637 5355.213022096944
2267.153550378669 4889.460380253398
2267.7505900963424 5441.466661102775
2268.3474856718312 4795.954834511724
2268.9442371379664 4911.958802358746
2269.5408445275643 4924.6535632598025
2270.1373078734377 4026.822011848709
2270.7336272083758 4910.665003796846
2271.32980256516 4995.4891817799
2271.925833976562 5244.378725812315
2272.5217214753357 5492.120360599633
2273.117465094223 5052.152923517026
2273.7130648659586 4931.042625678941
2274.308520823257 4935.8603397924335
2274.903832998827 5384.319477669266
2275.4990014253563 4760.421382855469
2276.094026135528 5317.477823240458
2276.6889071620117 4812.562607256235
2277.2836445374614 5065.688178288948
2277.878238294519 4959.962199074207
2278.472688465812 5758.229595429078
2279.066995083962 4688.5019369992315
2279.6611581815705 4991.249855348311
2280.255177791232 4894.109352627134
2280.8490539455233 5623.373284799814
2281.442786677013 5157.129854198621
2282.0363760182554 5141.6622468817395
2282.6298220017943 5031.506354759414
2283.223124660155 5217.693453743486
2283.816284025859 4856.665529797912
2284.4093001314086 5385.79912081842
2285.002173009292 4777.2446002890065
2285.5949026919952 5227.738653928187
2286.1874892119777 5053.429092809196
2286.7799326016993 5008.816915949563
2287.3722328936 4618.025766231941
2287.964390120109 4260.727116327029
2288.556404313642 5157.427658279959
2289.1482755066027 5194.898404027664
2289.7400037313873 5072.904407739688
2290.3315890203703 4805.39034346368
2290.9230314059205 5339.9991676294485
2291.5143309203904 4517.526994127364
2292.1054875961236 4966.1394721369315
2292.6965014654506 5455.455827248544
2293.287372560684 4720.4732106893625
2293.878100914131 5574.555882552925
2294.468686558086 4786.164473100255
2295.059129524827 4869.383862628432
2295.649429846617 5301.470207807806
2296.239587555716 4715.734767657492
2296.8296026843636 4982.219049645798
2297.419475264791 5232.980377276492
2298.0092053292137 4687.7541448573065
2298.598792909839 4981.276841235542
2299.1882380388597 5095.607077875721
2299.777540748455 5430.8884209903
2300.3667010707904 5099.265551676774
2300.9557190380256 5280.331880145568
2301.544594682302 5426.073953059994
2302.1333280357503 4421.956780400932
2302.721919130485 5105.719405818462
2303.3103679986198 5615.318025672818
2303.898674672242 5128.514009370641
2304.486839183437 4770.405124652443
2305.0748615642697 4741.055402020438
2305.6627418468015 4799.242063289979
2306.2504800630704 4738.3463309735835
2306.8380762451143 4973.403502142812
2307.425530424949 4923.266260764229
2308.012842634582 4872.975592191195
2308.6000129060103 5211.178562323577
2309.187041271214 5759.7409105569
2309.773927762164 4748.235497294529
2310.3606724108213 5071.412649402626
2310.9472752491274 4590.074778290243
2311.5337363090184 5069.144349018215
2312.120055622414 4856.437900114444
2312.706233221221 4860.864268053096
2313.2922691373424 4393.355487008502
2313.8781634026564 5309.239404686786
2314.463916049037 4663.607405016982
2315.049527108342 4769.516649852347
2315.6349966124235 5107.728352215052
2316.2203245931123 5116.963538565947
2316.8055110822315 4403.294161770461
2317.3905561115935 4702.29508233204
2317.9754597129977 4652.95349095897
2318.560221918229 5244.318443995729
2319.1448427590603 4525.930874811669
2319.729322267256 4647.472216554848
2320.313660474563 4764.560999016741
2320.8978574127195 5526.119148860736
2321.481913113452 4870.469078073786
2322.0658276084705 4610.296359575881
2322.6496009294806 4742.131797933265
2323.233233108165 4807.441547982078
2323.8167241762058 4740.483185675884
2324.4000741652617 4679.8527477737825
2324.983283106987 4937.924768951647
2325.5663510330232 4997.702463205804
2326.1492779749933 4718.5847319566865
2326.7320639645204 5018.086522887679
2327.3147090332004 4317.175176574237
2327.897213212629 5412.496949357826
2328.4795765343843 4998.794013386132
2329.0617990300307 4450.862419479074
2329.643880731124 5103.109545597538
2330.22582166921 4681.777221489222
2330.807621875816 5156.142216301937
2331.3892813824623 4348.495483883679
2331.9708002206517 4444.087619518591
2332.5521784218818 5095.516170392984
2333.133416017634 4619.637195962385
2333.7145130393765 4488.367199857782
2334.295469518571 5019.653125990894
2334.876285486658 5137.700161136982
2335.456960975076 4192.338291171608
2336.037496015242 5036.36529203567
2336.6178906385667 4576.657129252387
2337.198144876451 4907.53745240273
2337.778258760278 4872.1367407676835
2338.3582323214214 4165.146898358342
2338.938065591243 4785.458515068813
2339.517758601087 4907.861830091738
2340.0973113822965 4813.224365609443
2340.676723966193 4700.965199759879
2341.255996384094 4660.883964344253
2341.835128667295 4807.359244053733
2342.4141208470883 5045.822340665113
2342.992972954751 4773.858065620063
2343.5716850215467 4596.647453982262
2344.1502570787306 4097.891135040725
2344.7286891575386 4508.188744817444
2345.3069812892045 5264.903346156651
2345.885133504944 4943.7238626523085
2346.4631458359618 4473.693847510121
2347.04101831345 4478.400670887407
2347.6187509685915 4660.767584871201
2348.196343832553 4654.863811935282
2348.7737969364935 4573.904825866623
2349.351110311558 4386.393620584368
2349.9282839888765 4623.487637613242
2350.5053179995757 4334.657290935894
2351.0822123747585 4290.673213964808
2351.658967145526 4973.841321902434
2352.2355823429643 4280.354622710356
2352.812057998144 4768.6744198568285
2353.3883941421263 4469.443076055444
2353.9645908059647 4797.573948706056
2354.540648020693 4462.9431417984715
2355.116565817336 4340.929457564034
2355.6923442269126 4887.322787828705
2356.2679832804224 4631.305727582463
2356.8434830088518 4300.352264798656
2357.41884344318 4547.262147169866
2357.994064614377 4822.812576181695
