#exp_cfg={"servo_angle": 0.0, "laser_lim": 100.0, "servo_angle_to": 18.0, "laser_wup": 0.0, "bt_dev": "EnSpectr-25AE3", "laser_wdn_max": 0.0, "frames": 10.0, "servo_used": 0, "servo_calib_use": 0, "laser_wdn_min": 0.0, "servo_pix_from": 90.0, "cooler_tout": 300.0, "servo_angle_from": 0.0, "servo_calib": "[-1.9174921013161362e-09, 3.9322238269163779e-05, -0.27385609119055809, 653.59552119713567]", "laser_autoctl": 0, "servo_pix_to": 3682.0, "laser_pw": 100.0, "cooler_on": 0, "laser_volt": 4.0, "cooler_autoctl": 0, "cooler_curr": 70.0, "cooler_startup": 10.0, "laser_fixed_pw": 0, "gain": 1.3, "offset": 2.53059635486, "servo_calib_degree": 3.0, "laser_curr": 55.0, "shutter": 8200.0, "servo_calib_step": 1.0, "laser_fixed_curr": 0, "exp": 2000.0, "ccd_volt": 4.7, "bt_addr": "00:06:66:62:5A:E3", "servo_delay": 500.0, "laser_autooff": 1}
#proc_cfg={"flat_auto_wnd": 200.0, "flat_auto_fr": 200.0, "flat_auto_shift": 5.0, "yconv": 1, "flatten": 1, "flatten_strength": 100.0, "xfrom": 300.0, "auto_max_frame": 2000.0, "auto_signal": 48000.0, "flat_auto_tol": 0.1, "autoclip": 1, "xrel_range": 0.0, "flat_auto_to": 4000.0, "intensity_adj": 1.0, "xrel": 7852.0, "rmhot": 1, "flat_auto_slit": 4.999999999999997, "auto_ini_exp": 300.0, "auto_off": 0, "xto": 2860.0, "flat_auto_ref": "", "flat_auto_rank": 1, "autobackg": 0, "xrel_adj": 0.0, "auto_black_lvl": 1, "base_wnd": 100.0, "sub_baseline": 0, "xconv": 2, "auto_max_exp": 1000.0, "auto_total_exp": 10000.0, "auto_exp": 0, "rmripple": 0, "black_lvl": 8282.025, "shutter_clip_adj": 0.0, "auto_bckg": 0, "flat_auto_thr": 0.9, "subbackg": 1}
316.8218498245369 16582.14924311042
317.89969571804795 16430.116622446163
318.977263876126 16423.617687918137
320.05455438786703 16308.527661542734
321.1315673423287 16264.61729433692
322.2083028285215 16384.279932771613
323.2847609354267 16154.941164271684
324.3609417519747 16214.283421793967
325.43684536705587 16091.880014806355
326.5124718695279 16126.641945564299
327.58782134820103 16012.529447095567
328.66289389184385 16006.22200330554
329.7376895891921 15747.389863891494
330.8122085289342 15823.075524909751
331.88645079971866 15827.806703517519
332.9604164901575 15654.530229114074
334.03410568881554 15553.837084160774
335.1075184842266 15726.86824153153
336.18065496487543 15464.78789694306
337.2535152192122 15485.54418717185
338.32609933564163 15452.710804181314
339.39840740253203 15323.904466318167
340.4704395082099 15267.58492882254
341.5421957409617 15211.025416902316
342.6136761890357 15206.908507577278
343.6848809406365 15155.980030845109
344.75581008392874 15002.111826410506
345.82646370703696 15026.408625143897
346.8968418980512 15012.788940461567
347.96694474501055 15002.296371934539
349.0367723359268 15007.41739966798
350.106324758759 14967.16392328119
351.1756021014353 14729.448381710745
352.2446044518383 14760.31132147079
353.31333189781435 14808.417161238414
354.38178452716966 14769.771872368461
355.449962427665 14695.530406892882
356.51786568702846 14633.05760865323
357.58549439294256 14721.32714080768
358.6528486330535 14707.640273461559
359.71992849496564 14576.768618572256
360.7867340662433 14588.558326282533
361.8532654344144 14620.31885402546
362.9195226869597 14592.967736196453
363.9855059113288 14350.679500763621
365.05121519492604 14334.615920477881
366.11665062511565 14408.97572668207
367.1818122892273 14368.088584835863
368.2467002745434 14394.046495452974
369.31131466831175 14319.313481550018
370.375655557742 14147.531787266407
371.4397230299983 14259.491947666043
372.5035171722102 14202.369696825388
373.5670380714637 14093.872258863907
374.6302858148101 14235.745604448235
375.6932604892554 14186.119056010692
376.7559621817709 14153.61573107733
377.81839097928605 13980.921587528708
378.8805469686886 13974.190069125703
379.94243023683157 14028.830618397484
381.0040408705263 13961.658922717334
382.0653789565458 13812.744764323728
383.1264445816196 13817.181881781109
384.1872378324406 13780.17703757826
385.2477587956637 13812.55208789252
386.3080075579037 13744.64439476476
387.3679842057336 13601.914763259081
388.4276888256918 13663.472733401179
389.48712150426945 13619.302215710195
390.54628232792857 13485.703738979611
391.6051713830857 13421.614066124355
392.66378875611736 13481.30062827155
393.7221345333637 13474.292954665245
394.7802088011249 13404.276944187843
395.838011645661 13428.491494483527
396.89554315319765 13381.45268540562
397.9528034099112 13239.983166934198
399.00979250194723 13153.20217369282
400.06651051541485 13178.836374584527
401.1229575363741 13215.654852477277
402.17913365085224 13107.611459554751
403.23503894483656 13292.069114512557
404.2906735042761 13142.138300890496
405.3460374150818 13048.144619717132
406.401130763119 13055.982452865264
407.455953634224 13072.046680516385
408.5105061141876 12967.719603501002
409.56478828876243 12860.799313077678
410.6188002436629 12793.074465646829
411.6725420645689 12830.602198832436
412.72601383711117 12906.392698496802
413.77921564689314 12885.399781304823
414.8321475794728 12734.450583302172
415.88480972036814 12703.858637352798
416.93720215506437 12731.446239334473
417.9893249690049 12713.340880986945
419.04117824759123 12571.109825177433
420.09276207619223 12567.54719085559
421.144076540133 12600.534461034742
422.1951217247042 12603.301020964533
423.24589771515275 12587.601204836228
424.2964045966928 12513.994598745618
425.34664245449494 12504.837029785227
426.3966113736933 12485.204990757647
427.4463114393875 12430.429513202274
428.49574273662984 12412.156408734909
429.5449053504417 12349.245911330852
430.5937993658026 12412.287508367881
431.6424248676558 12309.658672717145
432.6907819409007 12300.43439650915
433.73887067040596 12366.671500649176
434.7866911409965 12304.015335436601
435.8342434374608 12185.307934132528
436.88152764455117 12285.011381221317
437.9285438469724 12241.070527705579
438.9752921294057 12183.5081629179
440.02177257648145 12158.318779073958
441.06798527279716 12088.641773591542
442.1139303029122 12217.87839766674
443.1596077513459 12142.605397140818
444.2050177025794 12119.546212904432
445.25016024105753 12131.510508334342
446.2950354511886 12109.391746121099
447.33964341733736 12123.610793136471
448.383984223834 12075.094647804483
449.4280579549686 11986.336101352275
450.471864694995 12006.881557115907
451.5154045281306 11971.563769679557
452.5586775385509 11986.889092651703
453.60168381039693 11926.807330626096
454.64442342776783 12064.093781443953
455.6868964747264 11948.8927869711
456.7291030353008 11847.95923773848
457.77104319347563 12092.819465804558
458.8127170332027 11906.73032639795
459.854124638392 11947.873687560572
460.895266092919 12030.53414435209
461.93614148061897 11974.972586237354
462.97675088529104 12081.384730258256
464.01709439069236 11961.742510392434
465.0571720805492 11882.6098676743
466.0969840385442 11956.170918151307
467.1365303483253 12096.52390056502
468.17581109350067 11950.135961535647
469.2148263576437 11844.565256835438
470.2535762242878 11884.638171633902
471.29206077693016 11997.662375449752
472.33028009902773 12014.389815683626
473.3682342740012 11926.059758984613
474.40592338523857 11903.11480853651
475.4433475160804 11950.991059483527
476.4805067498364 12025.651903936174
477.51740116978 11885.912222771662
478.5540308591426 12027.65281122646
479.59039590112116 12124.181077347124
480.6264963788726 11979.080563324631
481.6623323755193 12127.886880139986
482.6979039741436 12079.670076910988
483.7332112577915 12239.172140149796
484.76825430947247 12367.496834952559
485.80303321215797 12236.744257748058
486.837548048783 12287.02426444572
487.8717989022425 12439.505629616657
488.90578585539697 12381.43710332734
489.9395089910686 12504.243624691688
490.97296839203955 12399.971423971645
492.00616414106116 12191.95874985094
493.0390963208429 12311.730993739071
494.0717650140559 12290.097497414119
495.10417030333883 12209.35648910141
496.1363122712901 12236.567949021872
497.16819100046814 12069.663509602748
498.1998065734024 11920.184538986852
499.2311590725767 12023.28100573726
500.26224858044407 11892.893713813002
501.2930751794156 11792.37489748441
502.3236389518679 11852.648622766177
503.35393998014115 11693.59915555584
504.38397834653733 11694.52010640167
505.4137541333221 11667.03268677211
506.4432674227228 11532.348579650115
507.4725182969323 11550.822715892129
508.5015068381035 11602.338478850617
509.53023312835467 11638.75495762752
510.55869724976765 11510.145870426935
511.58689928438434 11459.491860667515
512.6148393142121 11298.829915278864
513.6425174212218 11513.188918591924
514.6699336873462 11451.136349295606
515.6970881944835 11556.519804725469
516.7239810244901 11434.112882385958
517.7506122591931 11397.523580159104
518.7769819803761 11368.181882275221
519.8030902697901 11436.967547336064
520.8289372091476 11353.211341366854
521.8545228801249 11479.023738207394
522.8798473643619 11367.446211075408
523.9049107434621 11389.956810238362
524.9297130989908 11441.120597491816
525.9542545124805 11424.044169934492
526.9785350654201 11411.754450243443
528.0025548392696 11497.559017462027
529.0263139154504 11291.883109018996
530.0498123753423 11426.765734857545
531.073050300296 11434.014356383223
532.0960277716204 11326.14023711287
533.1187448705896 11360.41020307996
534.1412016784416 11404.443297246147
535.1633982763833 11399.417041892517
536.1853347455726 11426.970990624906
537.2070111671401 11424.69845436149
538.2284276221817 11404.944726072219
539.2495841917516 11345.143638856842
540.2704809568677 11313.065541697939
541.2911179985167 11379.629629421072
542.3114953976419 11381.508965382858
543.3316132351592 11355.253311202836
544.3514715919409 11385.989280498285
545.3710705488247 11436.72557691852
546.3904101866156 11462.821758286445
547.4094905860784 11603.392186935756
548.4283118279418 11549.75297544571
549.4468739929034 11703.355249916709
550.4651771616191 11559.248301473812
551.4832214147063 11463.298104702011
552.501006832761 11661.629835110309
553.5185334963226 11628.822524106083
554.5358014859103 11644.513631501144
555.5528108820035 11717.150507647555
556.5695617650363 11527.802907682208
557.5860542154242 11684.558253537722
558.6022883135283 11596.876344758166
559.6182641396881 11527.063222963588
560.6339817741991 11626.586838188323
561.6494412973225 11640.464185403998
562.6646427892883 11586.231142199775
563.6795863302796 11388.452373254931
564.694272000459 11406.758232806716
565.7086998799423 11460.299001230731
566.7228700488104 11261.790589997752
567.7367825871115 11215.322585298438
568.7504375748576 11230.914931103489
569.7638350920224 11150.214391613945
570.7769752185486 11056.755956607638
571.7898580343353 11153.476707271318
572.802483619258 10977.325748139516
573.8148520531431 11133.805633207112
574.8269634157932 11082.35947470884
575.8388177869692 10967.654621628377
576.8504152463938 10990.63337005387
577.8617558737587 11056.271015744665
578.8728397487175 10947.138765779408
579.883666950891 10978.56406374639
580.8942375598654 11095.394116216949
581.9045516551851 11085.098412062727
582.9146093163617 11256.541468536298
583.924410622878 10960.876534213992
584.9339556541727 10965.833282946744
585.9432444896538 11066.873405022418
586.9522772086875 10869.3791903006
587.9610538906127 10979.162513870462
588.9695746147318 10872.206619249351
589.9778394603054 10931.239853792253
590.985848506567 10885.856323840339
591.9936018327098 10744.461901616121
593.0010995178891 10575.126696145802
594.0083416412344 10749.730577406892
595.0153282818283 10542.65354175504
596.0220595187293 10477.68960443702
597.0285354309508 10580.112234087446
598.0347560974806 10477.943429844236
599.0407215972609 10395.114130263195
600.0464320092051 10463.865674546143
601.0518874121954 10580.68495492474
602.0570878850685 10423.949152023324
603.062033506636 10476.993013905729
604.0667243556636 10392.677528177002
605.0711605108936 10366.646473155208
606.0753420510264 10600.395793827189
607.0792690547278 10450.953010042935
608.082941600629 10434.300565543053
609.0863597673306 10605.81457540437
610.0895236333909 10629.349813320738
611.0924332773357 10795.657303060463
612.0950887776617 10694.872093723443
613.0974902128219 10758.184113919055
614.0996376612384 11044.284620183163
615.1015312013005 11088.321305564881
616.1031709113595 11135.542960001645
617.1045568697336 11077.841276202977
618.1056891547069 11167.048505857269
619.1065678445229 11238.222053859303
620.1071930173985 11554.091781137595
621.1075647515099 11431.294968434808
622.1076831250048 11481.277354209846
623.1075482159849 11457.785643144243
624.1071601025305 11395.446720317403
625.1065188626781 11438.963399101154
626.105624574433 11545.852011363198
627.1044773157682 11564.602342382346
628.1030771646128 11380.820454636076
629.1014241988742 11486.39056634141
630.0995184964158 11496.104834196745
631.0973601350688 11549.643670385365
632.0949491926294 11683.569103333186
633.0922857468631 11444.303772579246
634.089369875499 11559.67897697542
635.0862016562278 11546.001554159478
636.0827811667077 11484.927814817083
637.0791084845641 11520.116464533352
638.0751836873878 11340.330729093374
639.0710068527369 11531.438335338871
640.0665780581294 11310.881173867452
641.0618973810506 11285.17601398172
642.0569648989604 11362.780125957226
643.0517806892676 11088.630912825283
644.0463448293649 11184.629928450577
645.040657396592 11097.511634944389
646.0347184682723 10990.632511780732
647.0285281216875 10866.953215630985
648.0220864340772 10872.111522602328
649.0153934826558 10870.915123540479
650.0084493446047 10727.971167503954
651.0012540970674 10743.546701780648
651.9938078171526 10741.705662532422
652.9861105819346 10561.57259528138
653.9781624684565 10758.36683345825
654.9699635537254 10562.419833539909
655.9615139147136 10553.974313512066
656.9528136283589 10435.220444646724
657.9438627715699 10572.367096238142
658.9346614212154 10514.189605248834
659.925209654135 10288.696402280439
660.9155075471263 10305.80925436851
661.9055551769616 10312.931215986435
662.895352620375 10422.517551052097
663.8848999540678 10300.14129652496
664.8741972547068 10101.177275906006
665.863244598926 10080.905805944822
666.8520420633213 10240.862966565019
667.8405897244611 10018.887330293159
668.8288876588758 9844.313216070314
669.8169359430613 10068.467880518661
670.8047346534822 10026.035697375883
671.7922838665672 9868.657995230287
672.7795836587156 10018.439407308537
673.766634106285 10163.49646639612
674.7534352856092 9826.509536044106
675.7399872729766 9878.281492816845
676.7262901446538 9916.872872213105
677.712343976862 9869.580003070701
678.6981488457986 9978.550018855949
679.6837048276229 9748.048100785163
680.6690119984596 9936.858718898166
681.6540704344043 9878.012615497983
682.6388802115107 9829.82769633387
683.6234414058108 9840.897508150625
684.6077540932874 9721.806258114962
685.591818349907 9807.847168026043
686.575634251587 9830.13152132219
687.5592018742263 9715.584895530912
688.5425212936734 9652.402134198055
689.5255925857564 9832.526210195236
690.5084158262707 9803.253927040481
691.4909910909646 9807.361966006478
692.4733184555644 9840.248407739005
693.4553979957618 9877.320955013198
694.4372297872123 9980.516402374744
695.4188139055404 9968.22761661415
696.4001504263324 9998.794336119385
697.3812394251509 10140.903760479177
698.3620809775111 10134.911103770286
699.3426751589104 10153.77949859331
700.3230220448004 10178.411795860753
701.3031217106054 10254.94802420017
702.2829742317172 10480.685288027431
703.2625796834873 10151.669599049135
704.2419381412474 10152.004081662395
705.22104968028 10308.48528856731
706.1999143758458 10382.436985083525
707.178532303169 10429.050798179367
708.1569035374378 10595.535445255678
709.1350281538107 10706.77538326867
710.1129062274158 10767.908809181627
711.0905378333373 11156.340435287919
712.0679230466376 11372.0789363355
713.0450619423427 11724.098689227143
714.0219545954424 12060.08989758633
714.9986010808989 12089.814492283474
715.9750014736292 12530.882881433015
716.9511558485392 12901.106999641048
717.9270642804786 13296.764623977137
718.9027268442787 13482.956197783376
719.8781436147328 13620.57378118786
720.8533146666014 13590.626593971381
721.828240074612 13709.691968155308
722.8029199134635 13540.081535125535
723.7773542578125 13448.380878108877
724.751543182294 13184.944077813983
725.7254867615029 13151.254643561348
726.6991850700015 12750.470781542244
727.6726381823228 12891.485245377084
728.6458461729599 12882.079862639996
729.6188091163858 12911.891875486024
730.5915270870246 13236.902761845467
731.5640001592856 13278.327489496054
732.536228407529 13565.949986580072
733.5082119060917 13846.004171251538
734.4799507292755 13944.894260549114
735.4514449513481 14167.838744602454
736.4226946465496 14443.092079793118
737.3936998890786 14316.908756814431
738.3644607531078 13977.482332726566
739.3349773127793 13858.787136448213
740.3052496421951 13563.524613946647
741.27527781543 12965.842359541248
742.2450619065221 12573.1426299052
743.2146019894826 12253.242905168818
744.183898138288 11818.504441264242
745.1529504268801 11344.517096778833
746.1217589291682 10855.102054159623
747.0903237190341 10588.011550763387
748.058644870318 10383.977678606378
749.0267224568397 10087.851755865871
749.994556552374 9697.108560688317
750.9621472306771 9621.534512115975
751.9294945654583 9510.35370559973
752.8965986304011 9505.334674105656
753.8634594991636 9289.921432025238
754.8300772453586 9252.97125661414
755.7964519425768 9108.40883476305
756.762583664371 9303.589836734835
757.7284724842611 9177.416244217395
758.6941184757416 8983.136323490238
759.6595217122667 8989.922066037921
760.6246822672638 9020.456433106616
761.5896002141235 8705.054645029431
762.5542756262093 8884.584361423516
763.5187085768503 8868.658296012962
764.4828991393406 8842.063682795715
765.4468473869474 8749.193255610991
766.4105533929032 8781.108845756513
767.3740172304078 8793.911215668919
768.3372389726283 8862.936961998026
769.3002186926988 8695.654829781635
770.2629564637282 8742.421268510156
771.2254523587872 8611.718988000603
772.1877064509154 8644.218750612652
773.1497188131179 8500.978629312343
774.1114895183728 8480.14162736326
775.0730186396268 8475.152905245315
776.0343062497905 8552.424053417335
776.9953524217381 8455.79764398924
777.9561572283274 8563.541198448374
778.9167207423689 8412.012970519465
779.8770430366476 8339.413569301303
780.8371241839159 8347.996524546359
781.7969642568951 8372.606977950445
782.7565633282757 8670.201823517502
783.7159214707099 8407.64096493149
784.6750387568281 8494.886421752992
785.6339152592227 8446.437811141994
786.5925510504512 8331.14903745345
787.5509462030477 8415.230597710735
788.5091007895098 8348.78816102313
789.4670148823006 8394.734213961372
790.4246885538596 8348.751889047948
791.3821218765861 8363.633072278795
792.3393149228505 8276.363736454725
793.2962677649975 8418.862739321308
794.2529804753303 8410.436602033127
795.20945312613 8406.487617806006
796.1656857896378 8188.292749147775
797.1216785380675 8221.706524129595
798.0774314435985 8344.290696172797
799.0329445783846 8469.42401301501
799.9882180145414 8414.07756455238
800.9432518241574 8283.538710795601
801.89804607929 8335.594469268168
802.852600851962 8340.162347733858
803.8069162141637 8290.78292305007
804.760992237856 8315.84754661425
805.714828994971 8349.229697605395
806.6684265574077 8397.263696344618
807.6217849970271 8266.194782002382
808.574904385674 8250.37690993482
809.527784795142 8312.278567089203
810.4804262972102 8431.384146547905
811.4328289636178 8219.718427781805
812.3849928660748 8117.26778335999
813.3369180762638 8125.164472809653
814.2886046658241 8242.682499233415
815.2400527063783 8098.069532538362
816.1912622695108 8141.008548263775
817.1422334267718 8137.886062281839
818.0929662496856 8030.499919706068
819.0434608097457 7926.126966470011
819.9937171784059 7964.099715988547
820.9437354271013 7951.346187588753
821.8935156272255 8100.593924107314
822.8430578501484 7922.215385504014
823.7923621672016 7732.762300607811
824.7414286496896 7880.665391845304
825.6902573688876 7928.6171913324115
826.6388483960363 7843.725978878689
827.5872018023492 7784.0135513098285
828.5353176590033 7965.6009543818855
829.4831960371503 7727.688299508505
830.4308370079016 7744.698907028769
831.3782406423525 7779.875290639
832.3254070115545 7756.982172769938
833.2723361865319 7719.527394671053
834.2190282382799 7685.247375162126
835.1654832377644 7770.370306696284
836.1117012559116 7602.308410580367
837.0576823636256 7745.445939191452
838.003426631778 7593.924952823861
838.9489341312074 7560.461369203733
839.8942049327197 7716.9208648018275
840.8392391070975 7843.570437910205
841.7840367250865 7646.195515297077
842.7285978573982 7616.584499700637
843.672922574724 7726.305069948525
844.6170109477152 7582.326308427585
845.560863046996 7545.049920176267
846.5044789431595 7669.322267515015
847.4478587067697 7551.026770670551
848.3910024083561 7844.113609401383
849.333910118421 7657.194051435877
850.2765819074339 7596.961136970131
851.2190178458332 7730.671573773
852.161218004032 7805.099580577167
853.1031824524016 7631.111331815822
854.0449112612987 7653.388138264008
854.9864045010327 7788.24212871311
855.9276622418947 7609.135981768394
856.8686845541379 7702.202462146025
857.8094715079915 7637.359433113024
858.7500231736467 7844.0315177244365
859.690339621271 7668.064800258355
860.6304209209939 7689.060140849242
861.5702671429244 7629.8684582907545
862.5098783571284 7670.152278277126
863.4492546336569 7656.463136345847
864.3883960425155 7549.06237745824
865.3273026536863 7598.8265537032685
866.2659745371238 7462.347441740685
867.2044117627465 7816.080535567055
868.1426144004472 7549.005698347175
869.0805825200823 7669.111798202898
870.0183161914847 7647.91618766201
870.9558154844526 7655.314881333373
871.8930804687552 7624.639303949671
872.8301112141307 7464.36270333283
873.7669077902865 7645.380828178466
874.7034702669062 7782.252306669079
875.6397987136315 7617.393189509336
876.5758932000863 7703.187542505895
877.5117537958522 7709.004905998414
878.4473805704911 7635.968750241006
879.3827735935283 7555.910480035287
880.3179329344603 7753.119813129293
881.2528586627541 7690.788825911101
882.1875508478479 7812.440143105344
883.1220095591489 7664.6157573349465
884.0562348660296 7585.70209494481
884.9902268378391 7768.259529027078
885.9239855438955 7600.624329420124
886.8575110534839 7576.641471929778
887.7908034358588 7667.454222799346
888.7238627602474 7573.564397169386
889.6566890958475 7643.386204596822
890.5892825118208 7453.506948289354
891.5216430773125 7598.59805070214
892.4537708614189 7589.331141518138
893.3856659332196 7470.688312314397
894.3173283617652 7445.413684370213
895.2487582160684 7540.3247949386205
896.179955565116 7491.020119531454
897.110920477864 7436.429252715332
898.0416530232451 7464.325614472851
898.9721532701478 7447.035403935476
899.9024212874428 7579.681606518272
900.8324571439662 7394.9060662098445
901.7622609085302 7382.351247288371
902.6918326499072 7369.446517869738
903.6211724368477 7504.192555001575
904.5502803380696 7572.331336965899
905.4791564222614 7690.617228031624
906.4078007580792 7481.362238480318
907.3362134141571 7440.697151409329
908.2643944590909 7643.821426059125
909.1923439614493 7418.28925512214
910.1200619897754 7597.096791567825
911.0475486125779 7778.023699581538
911.9748038983344 7548.2410693951315
912.9018279155007 7606.277717810226
913.8286207324982 7436.711509913791
914.7551824177117 7632.348205438704
915.6815130395116 7604.754975034753
916.6076126662283 7497.4640215618765
917.533481366163 7509.561282723478
918.4591192075914 7560.255204955216
919.3845262587565 7573.079834367172
920.3097025878706 7444.250841948722
921.2346482631237 7439.328598535336
922.1593633526682 7450.250198688564
923.0838479246304 7498.531697044319
924.0081020471061 7521.133072873825
924.9321257881656 7287.823721308257
925.8559192158464 7369.892422227878
926.7794823981512 7213.734463267225
927.7028154030686 7239.562922429366
928.6259182985414 7197.859574847227
929.5487911524906 7328.055657695395
930.4714340328119 7253.7684477506145
931.3938470073608 7099.071038636497
932.3160301439748 7189.34444358391
933.2379835104548 7205.054668384595
934.1597071745709 7312.672522919444
935.0812012040769 7248.063319074116
936.002465666681 7267.618801849218
936.9235006300696 7374.670657905937
937.8443061619055 7252.860384502159
938.7648823298077 7081.868557829245
939.6852292013809 7147.462653903609
940.6053468441951 7252.30568609686
941.5252353257874 7022.955989187426
942.4448947136698 7135.897501321959
943.364325075323 7196.5770111494785
944.2835264782043 7262.853902621944
945.2024989897309 7180.221389295158
946.1212426773054 7229.705453503852
947.0397576082851 7352.856885870962
947.9580438500125 7467.751309268638
948.8761014697939 7497.513168653825
949.7939305349064 7508.468651863967
950.7115311125999 7262.752359306393
951.6289032700952 7293.489744424487
952.5460470745875 7497.716104191006
953.4629625932339 7411.4683696906695
954.3796498931715 7568.816133677709
955.2961090415029 7544.821825806335
956.2123401053068 7441.087589706786
957.1283431516276 7480.025349447588
958.0441182474842 7339.0587153870965
958.9596654598663 7534.046089007917
959.8749848557309 7358.173740993673
960.7900765020167 7416.280846310202
961.7049404656209 7287.866816335921
962.6195768134185 7360.140736912496
963.5339856122537 7280.779585128385
964.4481669289453 7422.235941669109
965.3621208302793 7255.0189303897905
966.2758473830145 7184.014348985744
967.1893466538822 7436.271745173295
968.1026187095813 7166.056334825991
969.0156636167867 7152.080472536878
969.9284814421426 7201.620338763589
970.8410722522622 7103.035727911834
971.753436113735 7137.447957335947
972.6655730931161 7087.867867333933
973.5774832569368 7113.276807766296
974.4891666716958 6901.623490245101
975.4006234038698 6829.563200047667
976.3118535198955 6890.734258641142
977.2228570861935 7074.917582190721
978.1336341691494 6996.6895555887295
979.0441848351202 6793.596247122126
979.9545091504333 6998.1946473774615
980.864607181391 6942.664154825933
981.7744789942699 6939.424026083419
982.6841246553086 6944.313533165956
983.5935442307236 6948.535869709858
984.5027377867027 6943.9892560440585
985.4117053894024 6884.489063803911
986.3204471049557 6795.6652856097235
987.2289629994648 6901.584105010668
988.1372531390007 7006.727540365793
989.0453175896091 6896.181060932347
989.9531564173067 6906.641736166207
990.860769688079 6886.156095475939
991.7681574678918 6831.101180005006
992.6753198226706 6902.769127208802
993.582256818323 6807.434372854205
994.4889685207218 6869.109838880713
995.3954549957143 7118.811658829436
996.301716309119 6969.706832022562
997.2077525267232 6859.482171870282
998.1135637142943 6782.164340462694
999.0191499375615 6965.030743085839
999.924511262232 6919.426608825639
1000.8296477539861 6856.963063848231
1001.7345594784656 6814.189401856556
1002.6392465012996 6681.139925812093
1003.5437088880753 6967.238103746681
1004.4479467043584 6880.851532435537
1005.3519600156869 6565.720221138892
1006.2557488875718 6863.391425041203
1007.1593133854858 6835.706345249795
1008.0626535748888 6721.563222333729
1008.9657695212009 6664.48041652889
1009.8686612898182 6945.438654318122
1010.7713289461135 6905.192927567783
1011.6737725554212 6775.027315506837
1012.5759921830577 6813.557859934232
1013.4779878943027 6780.980104654368
1014.379759754418 6905.746971989758
1015.2813078286254 6755.118042918783
1016.18263218213 6611.041430249263
1017.0837328801026 6659.041206579092
1017.9846099876886 6827.018179249602
1018.8852635700023 6740.569841486938
1019.7856936921362 6544.424379671433
1020.6859004191447 6801.718818787902
1021.5858838160675 6615.770339588236
1022.4856439479063 6583.793038443231
1023.3851808796389 6474.743794004868
1024.2844946762143 6712.624045513682
1025.183585402554 6656.811443784485
1026.082453123554 6381.427784594989
1026.9810979040776 6661.567059436636
1027.8795198089647 6578.966710390647
1028.777718903024 6710.1859288261385
1029.6756952510368 6554.232077132963
1030.5734489177648 6620.318227806472
1031.4709799679313 6558.683879833161
1032.3682884662358 6877.44568925943
1033.2653744773506 6503.404107442389
1034.1622380659192 6638.327803798141
1035.058879296559 6831.165110526657
1035.9552982338591 6952.453138064292
1036.8514949423825 6823.0547668060435
1037.7474694866614 6862.028406617089
1038.6432219312028 6901.516549635671
1039.5387523404825 7198.102363933676
1040.4340607789582 7222.495756870538
1041.3291473110476 7319.9499753935115
1042.2240120011465 7626.890189289031
1043.1186549136273 7650.799722513363
1044.0130761128294 7684.496238821234
1044.9072756630649 7851.078679891408
1045.8012536286205 7997.578851686517
1046.6950100737577 8199.581103656106
1047.588545062701 8483.67185920063
1048.481858659663 8418.422526452407
1049.3749509288118 8670.084535820974
1050.2678219343034 8503.875448760858
1051.1604717402515 8672.429797596731
1052.0529004107575 8444.324213295971
1052.9451080098825 8635.825880084603
1053.8370946016694 8449.573600704405
1054.7288602501267 8480.389647785907
1055.6204050192446 8356.379801557545
1056.511728972977 8350.46604273676
1057.402832175254 8096.453243277562
1058.2937146899785 7897.972551427786
1059.1843765810263 7733.545852998885
1060.0748179122456 7724.136179843781
1060.9650387474576 7638.776372016238
1061.855039150456 7544.30470928137
1062.7448191850071 7300.792307919185
1063.6343789148505 7223.252620738736
1064.5237184037014 7352.48556154913
1065.412837715241 7081.636853497733
1066.3017369131267 6900.774548464704
1067.190416060992 6826.665752369094
1068.0788752224398 6772.642798948835
1068.9671144610438 6760.93143132392
1069.8551338403558 6861.141591363591
1070.7429334239023 6829.630266396457
1071.6305132751695 6750.631982902209
1072.517873457633 6887.271180973885
1073.4050140347335 6728.251198521544
1074.2919350698776 6758.556522038972
1075.1786366264623 6737.517053415986
1076.0651187678395 6754.771602835519
1076.95138155735 6699.507494245799
1077.8374250582929 6709.700201677115
1078.7232493339507 6866.038937166124
1079.608854447577 6845.561621198487
1080.4942404623907 6846.730945436537
1081.3794074415982 6926.187744179873
1082.2643554483657 7100.441498865963
1083.149084545841 7033.427071278352
1084.033594797138 7058.697359873904
1084.9178862653516 7034.794878274328
1085.8019590135427 7418.714668307975
1086.6858131047484 7067.861545996221
1087.5694486019802 7360.48139226958
1088.4528655682225 7343.071335799621
1089.3360640664287 7619.138372667827
1090.2190441595321 7482.562382064827
1091.1018059104317 7537.131830028366
1091.98434938201 7647.178342834157
1092.866674637111 7654.6431931869865
1093.748781738559 7616.898498722434
1094.6306707491512 7493.398337521094
1095.5123417316554 7598.838929270244
1096.3937947488157 7490.891392098512
1097.2750298633455 7495.1182475535115
1098.156047137938 7404.187596609552
1099.0368466352556 7429.219055535201
1099.9174284179317 7600.220908967947
1100.7977925485757 7294.557821271797
1101.6779390897755 7197.320888203327
1102.5578681040806 7186.206716727524
1103.4375796540226 7188.540100389348
1104.3170738021054 7010.971682811792
1105.1963506108077 6785.794191313388
1106.0754101425773 6708.256076132956
1106.9542524598382 6938.478220578097
1107.8328776249855 6692.2359578377345
1108.7112857003904 6494.73947975569
1109.5894767483987 6521.961214508478
1110.4674508313292 6592.269430456555
1111.3452080114657 6437.59239349282
1112.2227483510815 6560.167525860325
1113.1000719124077 6484.879664200613
1113.9771787576592 6602.145862599532
1114.854068949022 6357.374500423216
1115.7307425486542 6529.321539767804
1116.6071996186893 6494.34323545859
1117.483440221229 6625.236139524478
1118.3594644183577 6310.028651528485
1119.235272272128 6414.587215540571
1120.1108638445658 6560.562313876026
1120.9862391976712 6737.53135695517
1121.8613983934229 6543.784266177793
1122.7363414937627 6497.916731443924
1123.6110685606182 6547.631737504197
1124.485579655884 6711.231086300449
1125.359874841426 6588.503657685018
1126.2339541790916 6544.039062388737
1127.1078177306936 6795.719842678111
1127.9814655580267 6555.887388609323
1128.854897722851 6636.73966923691
1129.7281142869106 6554.891833125701
1130.6011153119125 6540.7712509662015
1131.473900859548 6769.455378404532
1132.3464709914697 6518.431374877716
1133.2188257693178 6559.605006096885
1134.0909652546961 6389.467942694479
1134.96288950919 6317.43402257491
1135.8345985943506 6521.600350799438
1136.7060925717087 6193.336832496538
1137.57737150277 6329.124925644663
1138.4484354490069 6508.972922522034
1139.3192844718778 6315.2612873318985
1140.1899186327992 6167.3301725662
1141.060337993178 6406.716377110739
1141.930542614382 6304.001262479594
1142.8005325577597 6254.613705552122
1143.670307884635 6045.0859053561235
1144.5398686563003 6291.471622293208
1145.409214934025 6295.084634023473
1146.2783467790541 6015.472058208087
1147.1472642526023 6150.568752191348
1148.0159674158622 6373.412677368872
1148.8844563300026 6220.450442579803
1149.7527310561618 6047.795766924447
1150.6207916554504 6153.7080798365805
1151.4886381889592 6125.1438039524965
1152.3562707177498 6340.217491091963
1153.2236893028585 6157.433449532351
1154.090894005296 6038.152588688655
1154.9578848860474 6145.20806818179
1155.8246620060709 6205.487133136778
1156.6912254262988 5986.949898144975
1157.5575752076438 6184.919126035698
1158.42371141098 6284.9217922589105
1159.2896340971656 6303.468872941141
1160.1553433270346 6230.306648399323
1161.0208391613887 6164.604709366448
1161.8861216610057 6128.630294536075
1162.75119088664 6193.316532370141
1163.6160468990201 6082.872261151104
1164.4806897588442 6027.2988951203715
1165.3451195267917 6165.794196820219
1166.2093362635114 6168.856653925407
1167.0733400296285 6097.302639933882
1167.9371308857444 5955.510614786498
1168.8007088924278 5987.723798647182
1169.6640741102328 6123.798545912928
1170.5272265996773 6020.4264567664195
1171.390166421259 5903.70129581586
1172.252893635452 6101.000073054462
1173.1154083026995 6241.704815613043
1173.977710483421 6161.739786613236
1174.8398002380145 5887.488836669743
1175.7016776268483 6121.5028678043855
1176.563342710264 6017.204501773771
1177.4247955485826 6000.904519140417
1178.2860362020947 6148.6441778573035
1179.147064731069 5899.027516993243
1180.0078811957483 6124.403669481262
1180.8684856563486 6091.804946368667
1181.7288781730604 6170.87067319206
1182.589058806052 6143.969500439169
1183.4490276154593 6366.177940168769
1184.3087846614017 6175.170839206465
1185.1683300039676 6216.461714144256
1186.027663703222 6446.438481624084
1186.8867858192025 6180.091950570651
1187.7456964119228 6265.506781469691
1188.6043955413716 6337.149181306443
1189.4628832675116 6355.7965297458395
1190.3211596502842 6504.523098773816
1191.179224749596 6405.59957007702
1192.0370786253388 6250.892620126622
1192.8947213373758 6479.2023274829335
1193.7521529455407 6625.960457902824
1194.6093735096438 6362.093845921557
1195.466383089477 6325.203284330692
1196.3231817447977 6367.518969195665
1197.1797695353398 6547.869208150608
1198.0361465208189 6180.7964399060675
1198.8923127609214 6324.26029165862
1199.7482683153048 6380.209378256925
1200.6040132436028 6530.7600948147965
1201.459547605431 6185.439942262955
1202.3148714603722 6279.5681820637965
1203.1699848679855 6283.030057767021
1204.0248878878065 6416.738256178597
1204.8795805793507 5957.303464575754
1205.7340630020935 6299.322630867066
1206.5883352155033 6372.148926551891
1207.4423972790064 6255.56592063389
1208.2962492520237 6047.202260965953
1209.1498911939307 6112.953214590003
1210.0033231640937 6192.647578745202
1210.8565452218427 6198.304520638106
1211.7095574264913 5787.921004078375
1212.5623598373222 5954.405766156962
1213.4149525135963 5887.103354873047
1214.2673355145507 5921.674835200582
1215.1195088993936 5851.250423831223
1215.9714727273113 5818.689599541719
1216.8232270574663 6053.5941158348
1217.6747719489904 5664.946707873583
1218.5261074609934 5683.094856044064
1219.3772336525653 5883.94245116916
1220.2281505827668 5926.876295704618
1221.0788583106296 5927.365478051126
1221.9293568951707 5660.600627163696
1222.7796463953746 5581.11740692508
1223.629726870202 5782.396912291872
1224.4795983785934 5780.295327306312
1225.3292609794553 5749.972902185944
1226.1787147316809 5642.058783587931
1227.0279596941327 5673.920235773041
1227.8769959256424 5578.954288612574
1228.7258234850306 5863.202709767845
1229.5744424310833 5558.744629074849
1230.422852822563 5753.62456589669
1231.2710547182105 5880.219094619593
1232.119048176739 5779.783099044767
1232.9668332568417 5564.6508477790685
1233.8144100171812 5779.420964322273
1234.6617785163999 5779.405967959911
1235.508938813111 5411.3390180973865
1236.3558909659114 5565.44106693042
1237.2026350333617 5768.427144686229
1238.049171074008 5850.19559940609
1238.8954991463652 5613.034579821817
1239.741619308932 5719.292037160012
1240.587531620169 4633.1670435312735
1241.4332361385277 5813.734917316738
1242.2787329224248 5676.239665214491
1243.1240220302534 5560.0623536464645
1243.9691035203869 5559.514389974224
1244.813977451171 5887.986914089895
1245.6586438809263 5943.94783777759
1246.5031028679496 5565.892527889345
1247.3473544705157 5905.385883012945
1248.1913987468706 5879.144618208502
1249.0352357552383 5617.812504340358
1249.8788655538228 5672.3716268278495
1250.7222882007918 5995.36961098956
1251.565503754302 6063.002550885432
1252.4085122724755 5680.921786966558
1253.2513138134182 6214.432437316297
1254.0939084352049 6069.790384387852
1254.9362961958905 6040.781336195508
1255.7784771535007 6056.299896077152
1256.6204513660432 6230.729762794823
1257.4622188915 6424.438593315002
1258.3037797878242 6148.801495328151
1259.1451341129468 6124.775205549592
1259.9862819247755 6281.151473157899
1260.8272232811978 6250.125664191559
1261.6679582400666 6520.54558561217
1262.5084868592203 6116.908566255614
1263.34880919647 6242.373208139023
1264.1889253095997 6397.217633984021
1265.0288352563712 6523.045212348357
1265.8685390945266 6246.01462616327
1266.7080368817751 6395.967453392875
1267.5473286758115 6471.284422048899
1268.386414534294 6437.396966290258
1269.2252945148703 6065.251387754736
1270.0639686751547 6217.838718999214
1270.9024370727402 6208.20378430376
1271.7406997651997 6168.566429739061
1272.5787568100714 6042.59943402847
1273.4166082648808 6214.802145248273
1274.2542541871244 6114.018124422534
1275.091694634275 6473.832047878355
1275.9289296637817 5990.445194491231
1276.7659593330663 6297.0421192199765
1277.6027836995308 6206.514962548623
1278.4394028205552 6387.431821818458
1279.2758167534867 6247.789417165349
1280.112025555658 6183.848438754621
1280.9480292843746 6223.065226617049
1281.7838279969128 6078.200640570106
1282.6194217505326 6187.333276061411
1283.4548106024686 6062.596665529652
1284.289994609926 6147.108888282114
1285.1249738300921 6392.737359566316
1285.959748320127 6197.287696662272
1286.7943181371702 6362.064223640615
1287.6286833383328 6376.166256515369
1288.4628439807038 6442.707293164679
1289.2968001213521 6274.6946871676655
1290.1305518173194 6455.951638587552
1290.9640991256183 6586.413390522603
1291.7974421032523 6523.920280542884
1292.630580807183 6550.229291326303
1293.463515294361 6786.709172036094
1294.29624562171 6960.998065316725
1295.12877184613 6769.651222975224
1295.961094024493 6835.122365552563
1296.79321221365 7126.994124783594
1297.6251264704333 7157.291475844993
1298.4568368516466 7505.424014609518
1299.2883434140658 7432.097139213748
1300.1196462144526 7219.30188840511
1300.9507453095375 7581.976675807333
1301.7816407560313 7578.213141284036
1302.6123326106172 7662.014108286091
1303.4428209299622 7511.033074053843
1304.2731057707024 7866.007147326969
1305.1031871894502 7696.418991614238
1305.933065242798 7960.2516569358395
1306.7627399873181 7820.7030497399155
1307.5922114795467 8252.91787461129
1308.4214797760123 8369.870298085592
1309.2505449332057 7977.272524391093
1310.0794070076026 8031.0847469496075
1310.9080660556538 8276.463177365798
1311.736522133786 8315.57524740553
1312.5647752983987 8002.703216120875
1313.3928256058734 7946.2255589759325
1314.2206731125661 8271.105694916638
1315.048317874809 8266.474012922301
1315.8757599489109 8189.279299063468
1316.7029993911547 8249.199103830279
1317.5300362578055 8470.810447867852
1318.356870605101 8146.241874417157
1319.183502489257 8134.766204562182
1320.0099319664623 8302.542902418498
1320.836159092889 8300.684157424304
1321.66218392468 8344.67539389919
1322.4880065179532 7955.823321830938
1323.3136269288134 8117.356168688384
1324.1390452133292 8273.781895186532
1324.9642614275563 8292.761725052758
1325.7892756275214 8008.83723847617
1326.6140878692295 7738.03365365777
1327.4386982086617 8195.912549805747
1328.2631067017755 7764.9834520076765
1329.0873134045069 7728.929397920874
1329.911318372764 7457.704080247357
1330.735121662441 7398.553402533105
1331.558723329399 7271.906662259728
1332.3821234294774 7148.40097432097
1333.2053220185007 7153.76652746802
1334.0283191522612 6989.268609898856
1334.851114886529 7083.283494127883
1335.6737092770582 6627.969545159835
1336.4961023795695 6738.0398519274095
1337.3182942497697 6568.183372349277
1338.1402849433325 6453.340835223943
1338.962074515921 6297.328059202444
1339.7836630231632 6179.882120638367
1340.6050505206676 6624.031675617458
1341.426237064028 6343.207521268862
1342.2472227088037 6027.877379146992
1343.0680075105338 5952.963132923398
1343.888591524741 6055.373589879768
1344.7089748069138 6154.301501904828
1345.5291574125276 6008.278745480166
1346.3491393970307 5694.518273129376
1347.168920815846 5947.480093357854
1347.9885017243778 5953.045649964919
1348.8078821780036 5809.383558769327
1349.6270622320844 5890.117575771949
1350.4460419419447 5631.004978884999
1351.2648213629054 5820.9834423633665
1352.0834005502438 5537.402186851581
1352.90177955923 5477.766896875397
1353.7199584451064 5720.898132497309
1354.5379372630887 5714.814288487805
1355.355716068374 5491.920446507737
1356.1732949161305 5378.736898999982
1356.9906738615155 5528.444234321954
1357.8078529596478 5451.112063103973
1358.6248322656375 5593.132547110622
1359.441611834567 5385.286580948152
1360.2581917214866 5691.799808598977
1361.0745719814367 5433.814126632843
1361.890752669433 5362.297766083915
1362.7067338404577 5301.098788654638
1363.5225155494845 5533.081571025965
1364.3380978514506 5592.066491744623
1365.1534808012839 5163.517243153843
1365.9686644538815 5035.165243397307
1366.783648864117 5450.904221200357
1367.5984340868417 5558.161737412194
1368.413020176893 5376.849309958139
1369.2274071890715 5400.499031709575
1370.0415951781652 5437.77691075435
1370.8555841989346 5573.738246532773
1371.6693743061223 5141.03648274583
1372.48296555444 5030.691379025524
1373.2963579985844 5415.886598725771
1374.1095516932255 5350.168425321621
1374.9225466930166 4990.089789236335
1375.7353430525782 5423.369064363644
1376.5479408265164 5203.925136291293
1377.36034006941 5350.087689753151
1378.1725408358216 5372.49662095208
1378.9845431802805 5080.566725559932
1379.796347157304 5674.229003488674
1380.6079528213813 5500.430027364811
1381.4193602269788 5130.373267887725
1382.230569428546 5312.954022441591
1383.0415804805016 5564.390342078939
1383.852393437246 5473.763731998219
1384.6630083531563 5510.281115605243
1385.4734252825892 5343.733017168983
1386.2836442798798 5360.22937079113
1387.0936653993322 5501.421826045736
1387.9034886952395 5512.983829206368
1388.713114221864 5541.119357076965
1389.5225420334482 5542.792420862702
1390.331772184214 5406.941730430061
1391.1408047283585 5126.930473632696
1391.9496397200564 5450.151361147579
1392.758277213461 5641.911748133382
1393.5667172627054 5630.216273561456
1394.3749599218918 5471.507186378703
1395.1830052451114 5238.0167827047
1395.9908532864265 5462.049636413465
1396.7985040998774 5662.938315365711
1397.6059577394808 5391.8108867760975
1398.4132142592352 5412.1461470448685
1399.2202737131156 5347.641816897552
1400.027136155073 5626.61621943144
1400.8338016390353 5325.4751923774265
1401.6402702189134 5346.469212005712
1402.446541948586 5419.586122397909
1403.2526168819204 5302.855430550672
1404.058495072757 5227.196686499457
1404.8641765749107 5267.055708795921
1405.6696614421799 5355.09295763953
1406.4749497283356 5811.163153742084
1407.280041487129 5263.758425831016
1408.084936772295 5074.406687976059
1408.8896356375335 5490.119357403815
1409.6941381365323 5422.927402021402
1410.498444322955 5098.275590796335
1411.3025542504402 5320.053126504428
1412.106467972606 5313.071352068926
1412.9101855430508 5435.250712508679
1413.7137070153458 5046.585901665903
1414.5170324430437 5364.17321938331
1415.320161879672 5389.314056596155
1416.1230953787435 5578.077977856663
1416.925832993742 5248.300107113312
1417.7283747781275 5136.9537312322445
1418.5307207853439 5496.209906718598
1419.3328710688093 5404.033025820661
1420.134825681922 5098.0578078948
1420.9365846780584 5447.913108097339
1421.7381481105713 5694.422247457568
1422.539516032788 5665.237804375425
1423.3406884980232 5559.004237280554
1424.1416655595604 5610.217081074053
1424.942447270665 5712.311016681739
1425.7430336845828 5919.450643667247
1426.5434248545298 5764.004777174037
1427.3436208337116 6089.907628494902
1428.143621675301 6186.423631650521
1428.9434274324558 6394.544412635
1429.7430381583108 5994.16402393743
1430.5424539059713 6340.079186103349
1431.3416747285337 6746.9335170258755
1432.1407006790632 6438.078089218679
1432.9395318106053 6362.248977031017
1433.7381681761835 6212.346025607587
1434.5366098288014 6486.887120393278
1435.3348568214424 6552.774194173988
1436.1329092070573 6395.2341145131195
1436.9307670385879 6544.012631985897
1437.7284303689503 6533.270030480797
1438.5258992510335 6698.367750551719
1439.3231737377118 6593.8122564124515
1440.1202538818306 6566.566496834411
1440.9171397362225 6384.81650401521
1441.7138313536925 6361.190188967315
1442.5103287870243 6221.338675787864
1443.3066320889775 6177.067518907419
1444.1027413122956 6467.442476482703
1444.8986565096966 6224.549000722501
1445.694377733882 6125.739537786548
1446.4899050375207 5985.146729886076
1447.2852384732687 5964.442338942934
1448.0803780937622 6085.234787525869
1448.8753239516063 5832.928648323929
1449.6700760993954 5713.993644229097
1450.464634589689 5721.916140546675
1451.2589994750397 6078.849002618311
1452.0531708079689 5603.671261856397
1452.8471486409799 5533.328375736143
1453.6409330265524 5898.742167547715
1454.4345240171442 5533.704950799717
1455.2279216651987 5503.485895799768
1456.0211260231263 5502.762218710204
1456.8141371433194 5643.385552821279
1457.6069550781594 5714.167564137557
1458.3995798799897 5243.5178766085655
1459.1920116011424 5356.591006084154
1459.98425029393 5310.119590886374
1460.7762960106338 5281.531576974588
1461.5681488035225 5391.821013884315
1462.3598087248392 5426.47439377169
1463.1512758268036 5518.734358108067
1463.942550161617 5066.6798475299165
1464.7336317814625 5100.3904907625165
1465.524520738496 5186.0883823915765
1466.3152170848552 5063.422017619394
1467.1057208726506 5084.912361649098
1467.8960321539817 4953.1373755478835
1468.6861509809169 4770.698670345871
1469.4760774055085 4967.1927738823215
1470.265811479785 4939.283999881642
1471.055353255755 4669.671751361317
1471.844702785409 4571.471590496693
1472.6338601207044 4537.115050581903
1473.4228253135934 4915.98682361237
1474.2115984159936 4497.601837977651
1475.0001794798063 4343.4232632505045
1475.7885685569145 4624.957928359431
1476.576765699172 4602.960849123549
1477.3647709584238 4449.147822739621
1478.1525843864802 4695.667505618972
1478.9402060351367 4518.461107134954
1479.7276359561693 4666.986807866395
1480.514874201328 4450.064937672714
1481.3019208223468 4258.079925686085
1482.0887758709323 4196.366423157415
1482.8754393987747 4589.120323759226
1483.6619114575406 4218.784782012869
1484.4481920988783 4303.207101184829
1485.2342813744108 4381.33703264096
1486.0201793357446 4475.682603714368
1486.8058860344572 4253.155906475197
1487.591401522117 4313.983157227866
1488.3767258502594 4190.395329765282
1489.1618590704056 4322.072620706147
1489.9468012340494 4044.4762138744627
1490.7315523926754 4430.169218027231
1491.5161125977356 4438.425934452682
1492.3004819006637 4303.6875026908265
1493.084660352877 4076.926516146068
1493.8686480057622 4328.571036516407
1494.6524449106964 4563.1585468882
1495.4360511190262 4443.429656235627
1496.219466682087 4258.466125149779
1497.0026916511779 4294.382477975743
1497.7857260775945 4333.925052569755
1498.5685700125996 4402.218625081114
1499.3512235074395 4103.658527822876
1500.133686613337 4050.95454068442
1500.9159593814966 4049.807094142542
1501.698041863101 4677.265449551537
1502.4799341093094 4020.3281676271363
1503.2616361712662 3979.4319588428734
1504.043148100087 4322.188636740198
1504.8244699468742 4347.550047171634
1505.6056017626997 4009.5645785697657
1506.3865435986281 3975.519395356778
1507.1672955056893 4208.241509911618
1507.9478575348967 4120.8537182192185
1508.7282297372512 4393.603785724041
1509.5084121637192 4275.219754730588
1510.2884048652577 4210.872889371594
1511.0682078927948 4144.185631874711
1511.8478212972423 4134.584488834219
1512.6272451294917 4151.810954689645
1513.4064794404076 4393.985448220277
1514.1855242808433 4355.25321768639
1514.9643797016215 4214.719312365005
1515.743045753552 4559.9842768274875
1516.5215224874191 4370.775594089524
1517.2998099539836 4207.1746407690825
1518.077908203999 4389.661628961338
1518.8558172881785 4370.360502407815
1519.633537257234 4537.953268449302
1520.4110681618404 4557.132232945804
1521.1884100526604 4587.523459325337
1521.9655629803365 4475.632587681512
1522.7425269954856 4743.443284318797
1523.5193021487103 4917.951294399777
1524.2958884905856 4423.610851015677
1525.0722860716687 4594.278313293739
1525.848494942502 4500.060585054293
1526.624515153595 4522.899002433713
1527.4003467554485 4618.841030012284
1528.175989798534 4851.998789583928
1528.9514443333064 4604.904657909821
1529.726710410203 4980.495255780157
1530.5017880796331 4544.528092123165
1531.276677391992 4663.97917439329
1532.0513783976457 4932.779659632188
1532.825891146953 4652.426425061285
1533.6002156902414 4628.572543887501
1534.3743520778207 4609.588855030606
1535.1483003599806 4656.764608068503
1535.9220605869923 4615.024648347314
1536.6956328091019 4704.0632564143225
1537.4690170765407 4408.151611626565
1538.242213439511 4661.393726528205
1539.015221948208 4469.100134395341
1539.78804265279 4326.904911962718
1540.560675603405 4214.922403234455
1541.3331208501804 4582.208029637945
1542.1053784432224 4527.122555040417
1542.8774484326168 4360.828408592071
1543.649330868422 4288.262706759529
1544.4210258006842 4232.3887642320915
1545.1925332794308 4263.932407101423
1545.9638533546604 4146.476118485968
1546.7349860763552 3998.5115981816825
1547.5059314944829 4437.488708828697
1548.27668965898 4207.412441515017
1549.0472606197673 4207.707560475659
1549.817644426752 4062.4528905479274
1550.5878411298072 4289.947054496339
1551.3578507787988 4201.551322653382
1552.1276734235635 3928.5761185311094
1552.8973091139233 4041.1674670315124
1553.6667578996767 4237.820593169015
1554.436019830604 4045.4987251345674
1555.20509495646 4044.732339161727
1555.9739833269869 3949.5995187946805
1556.7426849919011 3943.8927336873107
1557.511200000903 4342.408115193149
1558.2795284036674 4143.8152238970815
1559.0476702498509 4022.134432864582
1559.8156255890954 4308.123035436232
1560.5833944710157 4481.012478648661
1561.3509769452048 4004.696427215005
1562.1183730612447 4180.810102105196
1562.8855828686865 4131.104819223425
1563.6526064170703 4418.5100694071125
1564.4194437559127 4381.645437118531
1565.1860949347047 4113.824551983477
1565.9525600029283 4569.896549532653
1566.7188390100328 4592.588326809686
1567.4849320054564 4105.541694637811
1568.250839038612 4126.059989982128
1569.0165601588997 4211.125132278343
1569.7820954156887 4423.149693743241
1570.5474448583373 4211.964529095635
1571.31260853618 4234.936798959017
1572.0775864985299 4016.034987863152
1572.8423787946813 4429.012206637079
1573.6069854739108 4194.091808602898
1574.371406585471 4319.539878540798
1575.1356421785986 4452.736680204601
1575.899692302506 4299.186897945093
1576.6635570063845 4326.2264620739525
1577.4272363394157 4277.292635343768
1578.190730350747 4218.112077382825
1578.9540390895163 4450.40509806593
1579.7171626048384 3966.606661504903
1580.480100945806 4155.723905192533
1581.2428541614918 4269.205609968883
1582.0054223009538 4310.581137968519
1582.767805413223 4243.083684368507
1583.5300035473156 4340.323092493243
1584.292016752228 4609.950803252803
1585.0538450769309 4388.323068595719
1585.8154885703807 3988.283547465883
1586.5769472815136 3988.6526066964566
1587.3382212592405 4154.916398208541
1588.099310552463 4330.656912138453
1588.8602152100484 4318.351753118046
1589.6209352808564 4263.375887426461
1590.3814708137234 4101.255563749108
1591.14182185746 4020.4473291326985
1591.9019884608679 3957.271347173414
1592.6619706727215 3747.1540239159212
1593.4217685417734 4026.236870382313
1594.1813821167616 4306.281936396992
1594.9408114464022 3773.960254681306
1595.7000565793933 3969.6552275457916
1596.459117564409 3915.291146553494
1597.2179944501113 3804.0661625217813
1597.9766872851324 3790.0286308844006
1598.735196118092 4050.0974162774355
1599.4935209975883 3964.4093775262736
1600.2516619721973 3933.1606494233747
1601.0096190904787 3809.168063282802
1601.7673924009723 3767.3725289689346
1602.524981952196 3712.857978853501
1603.2823877926476 3790.4788315988417
1604.0396099708087 3584.4790330864007
1604.7966485351371 3561.1398092739496
1605.5535035340745 3620.908097228642
1606.3101750160404 4076.1300670134783
1607.0666630294363 3550.0820716126677
1607.822967622642 3518.804197450618
1608.5790888440224 3776.699000514852
1609.3350267419137 3857.548408608899
1610.0907813646445 3768.3728889742442
1610.8463527605145 3627.368081995011
1611.601740977805 3781.9281569203195
1612.356946064785 3690.7477715723894
1613.1119680696902 3413.9705137705523
1613.8668070407512 3551.094091375229
1614.6214630261748 3394.8159821034446
1615.375936074137 3676.2431671304876
1616.1302262328118 3677.4754074598486
1616.8843335503425 3698.0571744356153
1617.638258074854 3436.6767887203896
1618.391999854457 3571.7698076558772
1619.1455589372363 3764.7091883680578
1619.8989353712623 3596.624559828974
1620.65212920458 3323.958777351335
1621.4051404852235 3415.1506449142566
1622.1579692611976 3533.8571648553298
1622.9106155804966 3395.3736040015356
1623.663079491087 3323.7237479659816
1624.4153610409248 3544.885817119809
1625.1674602779385 3432.478271516865
1625.9193772500403 3394.708760062411
1626.6711120051277 3727.2983906154855
1627.4226645910676 3485.8221372118815
1628.174035055721 3416.334575808821
1628.9252234469168 3563.3605078714454
1629.676229812474 3446.506697521487
1630.4270542001905 3845.9462481062305
1631.1776966578382 3544.5514977838475
1631.9281572331747 3447.5269194992593
1632.678435973945 3693.9417810939945
1633.4285329278573 3470.7417813789643
1634.1784481426203 3240.4941143908372
1634.9281816659113 3312.4338459557753
1635.677733545388 3640.8467143138455
1636.4271038286934 3407.444671288028
1637.176292563452 3617.6628767606176
1637.9252997972635 3519.4510835728856
1638.674125577716 3682.607996588001
1639.4227699523672 4002.4393205292135
1640.171232968767 3207.9367344533403
1640.9195146744423 3520.6506001879766
1641.6676151168977 3784.494824872208
1642.4155343436178 3714.5433432672166
1643.1632724020765 3530.6063782637466
1643.9108293397167 3474.058890457157
1644.658205203974 3393.612232364912
1645.4054000422566 4044.8371801413377
1646.1524139019566 3437.6680779148787
1646.8992468304423 3303.1069157137777
1647.6458988750728 3357.5107143632217
1648.3923700831765 3432.0520207632626
1649.1386605020743 3379.049777157292
1649.8847701790564 3587.5365392292615
1650.6306991614038 3504.7309240742456
1651.3764474963682 3505.8830547357056
1652.1220152311944 3215.003017294546
1652.867402413096 3506.2081462264423
1653.6126090892776 3395.603244431434
1654.3576353069184 3780.817052959295
1655.1024811131829 3527.228120673045
1655.8471465552066 3490.402335349666
1656.5916316801213 3681.489528476216
1657.3359365350298 3507.0546374119804
1658.0800611670165 3386.940429048502
1658.824005623148 3437.3682857713493
1659.5677699504722 3222.0640752510294
1660.3113541960192 3529.9667155905263
1661.054758406799 3311.5178933983334
1661.7979826297997 3214.7151404363067
1662.5410269119966 3202.705830238116
1663.283891300338 3500.5813526298334
1664.0265758417645 3305.1013670908224
1664.7690805831826 3504.536647531798
1665.5114055714948 3583.988929377448
1666.2535508535748 3809.8800297744588
1666.9955164762814 3005.7425011510572
1667.7373024864555 3267.147180984194
1668.478908930916 3418.0026854932207
1669.220335856462 3257.068055700329
1669.9615833098778 3183.8715223445643
1670.7026513379296 3116.9054217725366
1671.44353998736 3316.705729632803
1672.1842493048916 3297.599266127544
1672.9247793372379 3233.7984638605226
1673.6651301310812 3395.547799407085
1674.4053017330934 3218.110987552353
1675.1452941899242 3356.3791504533556
1675.885107548207 2848.4357422077346
1676.6247418545518 2972.391154295379
1677.3641971555535 3088.616562981909
1678.1034734977893 3293.1073289663923
1678.8425709278108 3219.1254422848842
1679.5814894921605 3420.0045135907785
1680.320229237359 3341.9499592000575
1681.0587902098978 3421.9254230003817
1681.7971724562685 3202.348040793496
1682.5353760229264 3049.4269817596737
1683.2734009563173 3391.598775071052
1684.0112473028657 2982.494972021638
1684.7489151089794 3186.5208584074344
1685.4864044210462 3299.8829192242724
1686.2237152854377 2798.4018145996297
1686.960847748498 3369.14743867058
1687.6978018565642 3094.6173494063773
1688.434577655944 2987.1639821285867
1689.1711751929379 2927.496187831803
1689.9075945138156 3159.6052309143543
1690.6438356648396 3083.310076236346
1691.3798986922448 2657.7015031708415
1692.1157836422499 3058.1243159402293
1692.851490561059 2976.7469613221283
1693.587019494853 3074.3421237486295
1694.3223704897991 2839.94148802544
1695.0575435920364 2674.4078497300598
1695.792538847696 2754.646012891707
1696.527356302886 2834.8857598444183
1697.2619960036936 2682.732241293735
1697.9964579961907 2757.1673529681625
1698.730742326432 2539.0743327872233
1699.4648490404488 2650.9624010352472
1700.1987781842563 2804.7767822158344
1700.9325298038548 3015.990229766311
1701.6661039452174 3107.9803570884164
1702.3995006543082 2896.4038606674817
1703.1327199770658 3051.065119141623
1703.865761959416 2660.143416798449
1704.598626647261 3038.688808788947
1705.3313140864866 2636.416148205434
1706.0638243229587 2771.2722993582743
1706.7961574025303 2873.2371748930404
1707.528313371029 2804.9005797804507
1708.260292274268 2515.527646849157
1708.9920941580403 2742.8737388262116
1709.7237190681226 2801.72898544288
1710.4551670502697 2670.2787862721243
1711.18643815022 2448.201266879656
1711.9175324136959 2542.1828035187973
1712.6484498863938 2636.328224157506
1713.379190614005 2458.494814051062
1714.109754642188 2662.14322261695
1714.8401420165883 2611.4950788792294
1715.570352782839 3169.1481684252185
1716.3003869865497 2751.5211700486425
1717.0302446733076 2521.640322194129
1717.7599258886876 2655.138744673077
1718.4894306782444 2937.3163876891317
1719.2187590875183 2443.1952620492066
1719.9479111620203 2779.404762523215
1720.6768869472544 2557.3251006523465
1721.4056864887025 2883.7343096625054
1722.1343098318284 2967.1668398698266
1722.8627570220742 2586.463597255621
1723.591028104871 2429.5375259177904
1724.3191231256242 2370.6952393950187
1725.0470421297232 2654.497712820746
1725.7747851625427 2787.2860163298615
1726.5023522694337 2726.5241093876166
1727.2297434957363 2547.9767524474573
1727.9569588867635 2299.7770519906744
1728.6839984878152 2262.0869809375536
1729.4108623441734 2224.459391514226
1730.1375505011038 2615.4494687933156
1730.8640630038426 2489.024453912974
1731.5903998976264 2404.336317920199
1732.316561227657 2656.674546127084
1733.0425470391274 2369.4365341994826
1733.7683573772065 2583.2257472164783
1734.4939922870508 2467.0665683111333
1735.2194518137949 2496.597073102616
1735.9447360025606 2505.49885235788
1736.669844898439 2473.0709302810315
1737.3947785465189 2316.0120970236912
1738.1195369918605 2299.740835084159
1738.8441202795093 2518.6636452917855
1739.5685284544943 2584.75005410997
1740.292761561821 2523.712758274484
1741.0168196464838 2630.1995535530873
1741.7407027534518 2493.837595333616
1742.464410927687 2471.5760439068745
1743.187944214118 2338.869955770551
1743.9113026576688 2444.1304418651403
1744.634486303241 2462.8749913869606
1745.3574951957125 2427.9908862309812
1746.0803293799509 2610.2607962332872
1746.8029889008048 2544.929951856757
1747.5254738031017 2532.7806283370487
1748.2477841316504 2404.856763370963
1748.969919931249 2469.093755551446
1749.6918812466665 2367.9195512851174
1750.4136681226646 2656.0156033931435
1751.1352806039777 2479.6873934054997
1751.856718735331 2171.166681939595
1752.5779825614281 2196.0604651970298
1753.2990721269507 2525.9093504392745
1754.0199874765676 2538.906943813345
1754.7407286549314 2182.46820500933
1755.4612957066693 2332.2621660911045
1756.1816886763954 2251.768446507826
1756.9019076087097 2506.1960546541
1757.6219525481865 2411.0813503723866
1758.3418235393856 2375.0384032249394
1759.061520626854 2380.244945515382
1759.7810438551096 2608.602967772578
1760.5003932686614 2257.8135642073617
1761.2195689119999 2616.4490636436262
1761.938570829594 2376.065960460548
1762.657399065898 2332.621903116583
1763.376053665348 2202.87786343535
1764.0945346723602 2182.404609713623
1764.812842131334 2592.3882735099405
1765.5309760866512 2190.6602093012916
1766.2489365826787 2214.704114203284
1766.9667236637597 2297.272165878619
1767.684337374223 2090.317479698903
1768.401777758383 2125.6845744117627
1769.1190448605284 2154.8775102103477
1769.836138724937 2187.3703353588216
1770.5530593958665 2423.0065342324156
1771.2698069175603 2633.772608886231
1771.9863813342326 2349.7807188234997
1772.702782690094 2158.148632790778
1773.4190110293293 2414.400860618945
1774.1350663961111 2446.9179538870835
1774.8509488345844 2283.7924770164877
1775.5666583888924 2292.7074176290635
1776.2821951031437 2610.7516956493423
1776.9975590214362 2262.312089401594
1777.7127501878585 2464.7284707635217
1778.4277686464684 2374.450011123651
1779.1426144413108 2517.375366416162
1779.8572876164162 2526.750459218556
1780.571788215797 2096.3632436901967
1781.2861162834415 2294.467352942673
1782.0002718633277 2321.6872598954624
1782.7142549994132 2361.028553643921
1783.4280657356376 2297.199478326776
1784.141704115922 2243.59745677897
1784.855170184177 2324.5695143112066
1785.5684639842839 2371.5825223194684
1786.2815855601148 1958.5108055470919
1786.9945349555237 2393.5905490955793
1787.707312214343 2048.015938347976
1788.4199173803918 2076.4330006003383
1789.132350497468 2105.0796178819714
1789.8446116093583 2167.2584696171402
1790.556700759822 2136.2517402537505
1791.2686179926077 2175.2418222996766
1791.9803633514493 2194.8069394815843
1792.6919368800554 1991.7520063770182
1793.4033386221236 2371.9462727534456
1794.1145686213295 2356.519158664637
1794.8256269213307 2623.2840701506275
1795.536513565774 2357.396486359577
1796.247228598284 1998.2964890583385
1796.9577720624693 2170.2639987574435
1797.6681440019165 2254.6476803682135
1798.3783444602013 2259.361171709232
1799.0883734808776 2366.8865707230643
1799.7982311074884 2349.2433752702023
1800.5079173835475 2291.0202347723675
1801.2174323525633 2479.310335541039
1801.9267760580187 2103.6857658835497
1802.635948543386 2285.2609799758206
1803.3449498521113 2056.009964416232
1804.0537800276325 2293.9350855227276
1804.7624391133668 2176.1236945982646
1805.47092715271 1902.4347373196736
1806.1792441890484 1982.4315172547297
1806.8873902657433 2338.83845477041
1807.5953654261448 2235.8848885054877
1808.3031697135812 2153.5860349124714
1809.0108031713662 2174.250947159673
1809.71826584279 2203.216032072078
1810.425557771141 2026.5147674247746
1811.1326789996747 2093.130098782949
1811.839629571632 2159.707772925341
1812.5464095302468 2174.123235363463
1813.2530189187182 2224.329837403857
1813.959457780249 2133.4708055003566
1814.6657261580076 2395.688422938511
1815.371824095153 2297.2932978201834
1816.0777516348262 2039.252170510868
1816.78350882015 1781.0347021314342
1817.4890956942272 1917.4458396543564
1818.1945123001533 2141.1008572726814
1818.8997586809928 2133.084198267565
1819.6048348798067 1993.5208588055525
1820.3097409396287 2092.6861323712583
1821.0144769034796 2566.797636986434
1821.7190428143622 2327.97653416546
1822.423438715261 2293.6443697859095
1823.1276646491478 2104.643156132558
1823.8317206589727 2250.5740144663923
1824.5356067876692 2276.3503082161424
1825.2393230781581 2185.2685394996847
1825.942869573335 1975.594845278376
1826.646246316086 1974.3381836591439
1827.3494533492758 2282.5625959404097
1828.052490715756 2214.9787605774463
1828.7553584583547 2101.980517077994
1829.458056619891 2236.4139981912112
1830.1605852431585 2036.7836965237889
1830.8629443709433 1968.4845628413245
1831.5651340460063 2185.0133084105205
1832.2671543110919 1950.8723350469481
1832.9690052089318 2258.0871822289255
1833.6706867822395 1913.4622843843892
1834.3721990737104 2294.0225580557444
1835.0735421260233 2284.1223092413284
1835.774715981841 2119.7606295146256
1836.4757206838058 2385.8548219427944
1837.1765562745459 2029.7167820082984
1837.8772227966747 1978.1365668691847
1838.5777202927839 2112.605499148865
1839.2780488054523 2039.8645099347075
1839.9782083772352 1962.7899971527531
1840.6781990506806 1986.630868386248
1841.378020868313 2010.3632837165896
1842.0776738726418 1997.5040163262079
1842.777158106157 2021.877173995288
1843.4764736113375 1939.9491150587019
1844.1756204306403 2274.9966888716426
1844.8745986065078 2095.9377284311104
1845.5734081813607 1898.5813903537942
1846.2720491976124 2065.086805920271
1846.970521697649 1932.3669856334097
1847.6688257238511 2031.1851896132703
1848.3669613185684 2015.6213182932374
1849.0649285241452 1816.2170982846978
1849.7627273829057 2196.779247652883
1850.460357937156 2164.231001616846
1851.1578202291857 1753.9484474303786
1851.8551143012664 2148.5916512286108
1852.5522401956569 2108.726555296114
1853.2491979545957 2281.1189895252
1853.9459876203055 1885.5744394627466
1854.6426092349902 1847.6439336657008
1855.3390628408451 1951.316827450736
1856.0353484800362 2259.7791241156206
1856.7314661947203 2107.7805464393136
1857.4274160270397 1859.7061613706633
1858.123198019115 2162.1095987957074
1858.8188122130487 1882.5597425779808
1859.5142586509319 2009.6251313862915
1860.209537374838 2007.7240852477782
1860.9046484268183 2007.5318944045625
1861.599591848917 2343.2701744600176
1862.294367683151 1941.9156241773605
1862.988975971528 1998.0990426979474
1863.6834167560355 2018.6692801908
1864.3776900786452 2225.565307631054
1865.0717959813119 1945.730872995941
1865.7657345059724 1950.620913422376
1866.4595056945564 2082.080795930585
1867.1531095889586 2047.0322833868554
1867.846546231076 1781.2879024777608
1868.5398156627743 2190.38612181056
1869.2329179259123 1877.1271474498474
1869.9258530623283 1857.7160941783827
1870.618621113843 1838.2331425956586
1871.3112221222636 1795.8441935436415
1872.0036561293764 1837.6473528657884
1872.695923176956 2113.2751045146915
1873.3880233067594 2143.00485183547
1874.0799565605212 1882.296167753883
1874.7717229799673 2074.9115917044387
1875.4633226068036 2170.8849721981805
1876.1547554827175 2104.698688818119
1876.8460216493859 2027.8188716318764
1877.5371211484617 1951.69711558425
1878.2280540215852 1980.6937318708897
1878.9188203103804 1821.154798675278
1879.6094200564548 2090.12617502965
1880.299853301396 1903.777686617145
1880.9901200867826 2160.7523641317766
1881.6802204541673 1992.7724031607358
1882.3701544450942 2107.967923198973
1883.059922101087 1760.01741621148
1883.7495234636517 2223.0746473313548
1884.4389585742792 1948.5572406443182
1885.1282274744517 1862.542682605496
1885.8173302056166 1885.6276718556267
1886.506266809225 1908.7464629086112
1887.195037326701 1749.3335206580741
1887.8836417994517 1865.8110322886773
1888.5720802688702 2260.5641718222496
1889.260352776333 2128.9291422539513
1889.9484593632042 2184.29649658592
1890.63640007082 1860.7177732642763
1891.3241749405151 1818.2796159215218
1892.0117840135954 1994.822181803298
1892.6992273313572 1862.6262549975468
1893.3865049350788 1883.9490518455466
1894.0736168660223 1939.912782830602
1894.7605631654333 1995.895378392131
1895.4473438745408 1723.3770166076315
1896.133959034556 2246.6896014812005
1896.820408686679 2105.520729693784
1897.506692872088 2309.9250915644957
1898.192811631945 1868.5691512883336
1898.8787650073991 1926.6128046303716
1899.5645530395832 2178.357145075307
1900.2501757696118 2069.396742824249
1900.9356332385796 1808.2525133804315
1901.620925487574 1936.2033849912154
1902.3060525576602 2064.5270873692943
1902.9910144898859 2142.828686424718
1903.6758113252872 1787.7320044063338
1904.3604431048789 2096.3812036466907
1905.0449098696663 2144.248705623343
1905.7292116606295 1916.7585175748954
1906.4133485187394 1998.326234396211
1907.0973204849488 1686.0246661919264
1907.7811276001976 1760.125400198595
1908.4647699053967 2051.439461639464
1909.1482474414588 1997.5447125295782
1909.8315602492694 1943.4479784101136
1910.5147083696957 2250.1946646400206
1911.1976918436012 1864.9796923832394
1911.880510711815 1779.0309655790454
1912.5631650151681 2132.1413402867374
1913.2456547944657 1949.365583971649
1913.927980090495 1898.177451754186
1914.6101409440362 1842.3043872390554
1915.2921373958416 2040.338398855532
1915.9739694866603 1879.1791469493244
1916.655637257214 2232.0535837477596
1917.3371407482136 2004.199042068348
1918.0184800003572 2203.932474094752
1918.6996550543154 2192.5560478338284
1919.3806659507554 2001.1143942711303
1920.0615127303208 1985.6717210783022
1920.7421954336423 2208.7936617832484
1921.4227141013343 2180.259822939837
1922.103068773993 2143.2913289621265
1922.783259492202 2219.7982401067775
1923.4632862965227 1855.2872380173314
1924.1431492275078 1885.3187468722183
1924.8228483256917 1738.4119962664777
1925.5023836315922 1870.2474251215226
1926.1817551857057 2010.2891001527964
1926.8609630285227 2150.6328399248764
1927.5400072005123 2001.0071273594567
1928.218887742125 1765.133666200077
1928.8976046938005 1683.4799159254876
1929.5761580959588 2014.3394999114873
1930.2545479890086 1906.7406219334716
1930.9327744133352 1677.7630672183532
1931.6108374093164 1910.2631948386647
1932.2887370173066 1742.4969713779828
1932.9664732776473 2148.165157113191
1933.6440462306673 1939.5691435503006
1934.3214559166754 1886.861790303879
1934.9987023759659 2254.0853781808332
1935.675785648813 2062.263259828927
1936.3527057754836 1628.2589833617717
1937.029462796223 1687.8707438996516
1937.70605675126 1747.6493074957361
1938.3824876808085 1742.9198551216218
1939.058755625072 1911.535174739041
1939.7348606242267 1790.7358288251933
1940.4108027184448 1997.0593672151913
1941.0865819478713 2130.2762086285643
1941.7621983526478 1795.0145597493174
1942.4376519728921 1761.6221961919068
1943.1129428487038 1847.979434443187
1943.7880710201734 2096.710295230913
1944.4630365273733 1988.455473014382
1945.1378394103576 1718.2995805962987
1945.8124797091714 1658.8892299917684
1946.4869574638324 1599.302911586988
1947.161272714353 1745.530080958361
1947.8354255007234 1976.9639331679962
1948.5094158629272 1781.5837445566606
1949.1832438409183 2001.8134700894523
1949.8569094746435 2158.528025370415
1950.530412804037 2144.9519121252115
1951.2037538690092 2032.4065614648975
1951.8769327094578 1829.3464234926155
1952.5499493652678 1803.7015681944165
1953.222803876306 2163.031351122633
1953.895496282421 1894.1407654712216
1954.5680266234522 2048.397280846132
1955.2403949392155 1909.4387667244107
1955.9126012695142 1778.0405652209672
1956.5846456541403 1978.2309643152523
1957.2565281328643 1885.774338032911
1957.9282487454457 2100.0611392540063
1958.5998075316202 1941.2172209406824
1959.27120453112 1824.295282163103
1959.9424397836501 1912.9060815289292
1960.613513328908 2058.531204765151
1961.2844252065697 1887.543963390784
1961.9551754563017 1716.232977778506
1962.6257641177453 1750.8903894704677
1963.29619123054 1585.9523578780543
1963.966456834296 1692.2093800828447
1964.6365609686181 1662.7042807009311
1965.306503673086 1985.6686237430017
1965.976284987275 1694.0848259162835
1966.645904950734 1848.733016154832
1967.315363603002 1743.0851910718852
1967.9846609836077 1824.737923082041
1968.6537971320486 1741.5226361248992
1969.3227720878222 1995.8702590003606
1969.9915858904042 1786.1121929163528
1970.660238579252 1913.181905153544
1971.3287301938108 1854.6331167147364
1971.997060773514 1726.9842017756291
1972.665230357772 1707.2645640535452
1973.3332389859843 1693.6559129173195
1974.0010866975335 1652.4273380124127
1974.6687735317864 1949.462964778028
1975.3362995280932 2000.798487761438
1976.003664725793 1865.3315337698
1976.6708691642052 1556.4983472151396
1977.3379128826364 1814.2770807132001
1978.004795920373 2036.4253024500151
1978.6715183166925 1770.1023406584093
1979.3380801108524 1952.5280511613
1980.0044813420973 1693.8743015584073
1980.6707220496555 1470.4238797197827
1981.3368022727373 1821.0746704066653
1982.0027220505417 1910.5257622480954
1982.66848142225 1737.1492599842254
1983.3340804270283 1563.5620863479837
1983.999519104027 1849.8210056997013
1984.6647974923835 1853.7021860214222
1985.329915631215 1988.15288175329
1985.99487355963 1661.3055814031188
1986.6596713167146 2010.0555675034805
1987.3243089415428 1711.6715438854
1987.9887864731754 2067.008137885977
1988.6531039506553 1488.5837580172324
1989.3172614130071 1575.6948273792939
1989.9812588992481 1662.9810987763053
1990.645096448372 1443.9207267701636
1991.3087740993633 1746.974300917344
1991.9722918911848 1758.7182569307583
1992.635649862792 1872.9632322450548
1993.2988480531185 1901.1517247572508
1993.9618865010852 1828.8336516091665
1994.6247652455968 1756.4504123116371
1995.287484325545 1671.7812801381435
1995.9500437798033 1834.8003292189574
1996.6124436472292 1742.0160508531276
1997.2746839666706 1996.5845789019186
1997.936764776954 1797.3964835635402
1998.598686116895 1601.804051281327
1999.2604480252903 2199.707901051662
1999.9220505409212 1973.1969798479518
2000.5834937025593 1593.9071356987165
2001.2447775489582 1808.574758546548
2001.9059021188514 1924.6255765294416
2002.5668674509616 1575.7215670585604
2003.2276735839987 1814.2576826880043
2003.8883205566508 1989.01577411448
2004.5488084075987 1639.055751256087
2005.2091371755014 1708.4219161454948
2005.8693068990033 1590.6754520414797
2006.5293176167397 1585.226480231471
2007.1891693673224 1579.9113308945425
2007.848862189354 1571.0973969062802
2008.5083961214223 1812.7105077180527
2009.1677712020955 1638.024537802366
2009.8269874699254 1642.1003511065187
2010.4860449634598 1566.0200832503276
2011.1449437212177 1489.832701053701
2011.8036837817108 2113.848408707126
2012.4622651834325 1841.607331463198
2013.1206879648653 1919.8368374496135
2013.7789521644736 1654.4945316928977
2014.4370578207036 1932.5287878681042
2015.0950049719922 1753.7952305685528
2015.7527936567585 1809.1526445930424
2016.4104239134067 1771.6623685534717
2017.067895780323 2179.3226396022296
2017.725209295886 2113.527914647647
2018.3823644984514 2047.498516046005
2019.0393614263648 1785.810721946486
2019.6962001179545 1705.2640127183863
2020.3528806115355 2064.3542435012077
2021.0094029454067 1938.1134500910084
2021.6657671578487 1630.0090558172164
2022.321973287133 1760.6477532485321
2022.9780213715148 1603.6365276879837
2023.6339114492293 1795.9307311342432
2024.2896435585026 1807.3644945998162
2024.9452177375442 1695.1764749818624
2025.600634024544 2063.437537610396
2026.2558924576842 1867.2049698535059
2026.9109930751292 2069.436981026736
2027.565935915025 2097.381560613458
2028.2207210155066 2125.396157909535
2028.8753484146964 2134.426969008641
2029.529818150695 2039.9508200381654
2030.1841302615903 1945.036577503534
2030.8382847854573 1671.6099377763815
2031.4922817603601 1770.2200996357428
2032.1461212243357 1724.3077384083983
2032.7998032154192 1555.2486514533925
2033.4533277716218 1710.5429767499834
2034.1066949309443 1523.1511569001345
2034.7599047313688 1617.9003683233407
2035.4129572108704 1931.7045228190796
2036.0658524074006 1883.6015038145547
2036.7185903589016 1824.4232872652537
2037.3711711032956 1897.6033236897547
2038.023594678496 1733.6830299563003
2038.675861122394 1635.9362324869255
2039.3279704728757 1560.832850217494
2039.9799227678031 1485.7018334892546
2040.6317180450278 1592.923576754231
2041.2833563423865 1765.98434510383
2041.9348376977014 2060.6692026314436
2042.5861621487784 2048.74736676739
2043.2373297334088 1774.7283081888988
2043.8883404893695 1864.796442085714
2044.5391944544208 1901.2602588837392
2045.1898916663158 1962.193001494849
2045.8404321627804 2119.2529934814074
2046.4908159815368 1590.07884829754
2047.1410431602853 1631.3952470902766
2047.7911137367173 1784.7359113240884
2048.441027748504 1652.1837948551358
2049.090785233302 1519.4417515555685
2049.7403862287592 1648.079425947118
2050.389830772503 1556.7487648166323
2051.0391189021466 1889.496928322788
2051.688250655294 1794.3959232249576
2052.337226069527 1525.5268080671644
2052.986045182417 1861.9755614204805
2053.634708031521 1246.1302235436203
2054.283214654375 1850.2891836629103
2054.931565088511 1269.6909333172375
2055.579759371436 1356.6259828313362
2056.2277975406523 1662.9075017313346
2056.8756796336384 1552.1550210651728
2057.5234056878617 1441.0544500971096
2058.1709757407752 1491.5471097638795
2058.8183898298194 1708.3710844020138
2059.465647992416 1925.1211685722694
2060.1127502659747 1957.1134154964534
2060.759696687888 1899.5247912697869
2061.4064872955405 1841.9417990928923
2062.053122126292 2094.9867205074834
2062.699601217497 1813.7054154776392
2063.345924606485 1532.4032163164343
2063.992092330587 1729.1705706497094
2064.638104427102 1568.6805769516457
2065.283960933324 1633.4606576320189
2065.92966188653 1698.3168439447593
2066.5752073239855 1981.9723073974378
2067.2205972829397 1615.663277772489
2067.86583180062 1827.906818258077
2068.5109109142522 1653.519917969195
2069.15583466104 1744.2138410895163
2069.8006030781708 1554.8416522705381
2070.445216202821 1740.1348077696869
2071.089674072153 1916.4635563476422
2071.7339767233116 2010.8455284702054
2072.3781241934303 1830.3691262131797
2073.0221165196253 1884.9027763948354
2073.6659537390024 1611.7854887021635
2074.3096358886505 1968.0616400816366
2074.953163005637 1693.682299736572
2075.596535127028 1406.42709571731
2076.2397522898664 1587.0651771938983
2076.882814531182 1684.3150205567786
2077.5257218879924 1836.7084378792817
2078.1684743973 1473.1210936425073
2078.8110720960885 1423.5344652526226
2079.453515021336 1612.7278511415038
2080.095803209997 1802.0975152857875
2080.7379366990135 1697.2946227396376
2081.37991552532 2000.6890081798363
2082.0217397258275 1825.6069281245152
2082.6634093374414 1739.0327645585257
2083.3049243970418 1652.4374262335637
2083.9462849415067 1884.0262073117888
2084.587491007689 1741.1464486652287
2085.2285426324324 1736.730946163083
2085.869439852564 1821.3796987780559
2086.510182704902 1591.6654498706234
2087.1507712262483 1611.5754412190959
2087.791205453381 1482.0444517561787
2088.4314854230743 1802.1272396666998
2089.0716111720867 1807.0848475872735
2089.7115827371617 1309.1982092834626
2090.351400155023 1414.3595208891543
2090.991063462385 1519.7796912768968
2091.6305726959527 1396.650367268764
2092.2699278924047 1473.2699205875433
2092.9091290884153 1550.1063685646989
2093.548176320641 1441.9750762552114
2094.187069625721 1431.2761120791583
2094.8258090402887 1420.5531628702743
2095.464394600951 1776.0921114253592
2096.102826344313 1691.2195277133092
2096.741104306955 1945.6595274950464
2097.379228525453 1660.8799134806861
2098.017199036358 1427.2633450816033
2098.6550158762147 1895.571120700405
2099.2926790815527 1780.8331188913485
2099.9301886888825 1642.1925548769698
2100.5675447347076 1582.4553875348374
2101.2047472555114 1610.174148080567
2101.841796287761 1637.9549199058204
2102.47869186792 1703.76100969689
2103.1154340324265 1533.4149733697168
2103.752022817709 1590.9589734500892
2104.388458260184 1598.6559033292206
2105.024740396251 1675.4896243547257
2105.660869262292 1622.5065425839643
2106.296844894685 1952.7443716450332
2106.93266732978 1640.6048189912162
2107.5683366039284 1448.659698318549
2108.2038527534532 1602.6248255888602
2108.8392158146726 1562.0182239999126
2109.4744258238843 1521.3398136612716
2110.1094828173755 1683.275139229942
2110.744386831422 1717.9784904943456
2111.3791379022787 1752.8004283824007
2112.01373606619 2023.2298292108178
2112.648181359389 1817.9095583172552
2113.28247381809 1792.4311385724736
2113.916613478492 1816.5281352110153
2114.550600376786 1699.783449743994
2115.1844345491445 1515.8232393868195
2115.818116031729 1369.0706259408494
2116.451644860679 1643.3151796322068
2117.085021072133 1638.85419224323
2117.718244702204 1634.3011090880048
2118.3513157869984 1453.7812367614351
2118.984234362604 1419.5661199149936
2119.617000465092 1580.9802222370492
2120.249614130529 1545.4948692954088
2120.8820753949585 1509.956194568393
2121.5143842944162 1420.4519281872367
2122.14654086492 1685.613765201735
2122.7785451424734 1808.9173803075432
2123.4103971630702 1759.8736093883726
2124.042096962681 1710.909413447247
2124.6736445772767 1875.9200922116408
2125.305040042802 1508.0384412159679
2125.936283395191 1763.5657919266018
2126.567374670365 1726.2585705102113
2127.198313904233 1624.2402658113654
2127.8291011326855 1508.7628126195325
2128.4597363916037 1392.8644646948862
2129.0902197168507 1629.062368224918
2129.720551144279 1904.071819226759
2130.3507307097225 1584.7981375605773
2130.980758449008 1861.788869728984
2131.6106343979427 1816.7581918862616
2132.2403585923203 1771.5827634695768
2132.8699310679276 1816.1489701803534
2133.499351860526 1844.4958473049242
2134.1286210058715 1553.0866455521254
2134.7577385397053 1773.851026901534
2135.3867044977487 1994.9347248994436
2136.0155189157176 1989.9186155987531
2136.644181829308 2017.5821053439784
2137.2726932742025 1621.8651402075777
2137.901053286074 1984.3465792418676
2138.5292619005777 1532.9160179457745
2139.1573191533535 1600.8431281061203
2139.7852250800315 1711.6786256969644
2140.4129797162295 1743.4610077171924
2141.0405830975433 1378.516498380966
2141.6680352595613 1416.394882366486
2142.2953362378576 1454.3619577915438
2142.9224860679915 1577.0620435780943
2143.549484785508 1607.6909815653692
2144.1763324259373 1453.5571428598373
2144.803029024799 1599.372822032828
2145.429574617594 1551.3475753811495
2146.0559692398165 1743.0161581220593
2146.682212926942 1600.7893988439207
2147.308305714432 1687.0175039548328
2147.9342476377333 1939.8607115486222
2148.5600387322847 2094.9707950588163
2149.185679033506 1814.8377778618947
2149.8111685768017 1590.5224806457645
2150.4365073975678 1461.6646764267189
2151.061695531187 1376.14737147982
2151.686733013021 1568.4512525511159
2152.311619878423 1761.2417048951916
2152.9363561627342 1628.669538573758
2153.560941901278 1461.1653575012485
2154.1853771293663 1693.371503806251
2154.809661882293 1585.6204740543944
2155.433796195348 1993.8484646623717
2156.0577801037944 1924.2444945582902
2156.681613642895 1854.3777213131416
2157.3052968478896 1466.6497605272148
2157.928829754006 1721.949182515152
2158.552212396462 1812.7410522560435
2159.1754448104566 1670.650486850218
2159.7985270311783 1437.0902852894599
2160.4214590938027 1109.2617374894376
2161.0442410334927 1137.2162864494112
2161.6668728853874 1262.8162630214597
2162.289354684628 1388.693509598947
2162.911686466332 1543.9289031678184
2163.533868265602 1722.727857694405
2164.1559001175337 1759.205413893444
2164.7777820572046 1795.6690997482256
2165.399514119681 1659.4710092028672
2166.021096340013 1424.3031135512697
2166.6425287532384 1978.0334034737475
2167.263811394385 1401.9280823593974
2167.8849442984574 1972.4593536245436
2168.505927500455 1497.2801408584933
2169.126761035366 1795.3336484720148
2169.7474449381552 1423.7642854868275
2170.367979243778 1279.0681900614773
2170.9883639871823 1791.9450910753724
2171.608599203293 1504.3829258371559
2172.2286849270276 2071.533145501991
2172.8486211932886 2276.943544973104
2173.4684080369625 1773.9207566711411
2174.0880454929265 1460.846813821906
2174.7075335960417 1211.6880515509322
2175.3268723811543 1283.9574960877171
2175.9460618831 1356.4272585850667
2176.565102136701 1696.2929571431548
2177.1839931767627 1639.4367774883892
2177.802735038078 1582.4538836643044
2178.421327755432 1580.5619776924905
2179.0397713635866 1590.6313717926741
2179.658065897298 1544.6122173418867
2180.276211391305 1598.6248424267153
2180.8942078803357 1596.4939224685443
2181.5120553991 1745.6426726446946
2182.129753982299 1709.3711237539276
2182.7473036646206 1673.0265626295525
2183.3647044807367 1828.1527945032842
2183.9819564653044 1771.7896161866524
2184.599059652968 1715.3522061172685
2185.216014078367 1624.4013603575818
2185.832819776113 1822.19243545816
2186.4494767808137 1331.4845047599715
2187.065985127063 1560.976440394683
2187.682344849436 1475.7942497675822
2188.298555982501 1580.1657965812403
2188.9146185608097 1684.6163913845187
2189.530532618901 1847.6009746012485
2190.1462981912937 1737.6290322930217
2190.761915312507 1815.2766054669246
2191.377384017036 1676.6286839658649
2191.9927043393654 1749.0632605526712
2192.6078763139667 1972.4582985441127
2193.2228999753006 1425.4463401573205
2193.837775357808 1643.5729108859582
2194.452502495922 1300.408581430988
2195.0670814240602 1492.1368088328632
2195.6815121766285 1322.2438376431714
2196.2957947880186 1319.457062792261
2196.9099292926057 1316.6692546675727
2197.523915724758 1682.4996747171183
2198.137754118825 1618.1976393875689
2198.7514445091456 2081.7318201316375
2199.3649869300443 2147.5934841797925
2199.9783814158327 2213.6991694226826
2200.5916280008096 1975.7168772745022
2201.2047267192593 1920.0100145425586
2201.8176776054515 1652.0173600046535
2202.430480693649 1739.5160196396962
2203.0431360180955 1827.263743870991
2203.6556436130195 1821.3158835480579
2204.268003512645 1727.590156693051
2204.8802157511727 1633.6848939680335
2205.492280362796 1880.6897417277341
2206.1041973816937 1700.0519014943086
2206.715966842032 1684.3217454273167
2207.3275887779655 1662.8443480434066
2207.93906322363 1642.5493270997122
2208.550390213153 1700.7940364399697
2209.1615697806465 1853.2804660785816
2209.7726019602105 1537.5715126218004
2210.3834867859277 1235.227576823761
2210.9942242918787 1618.566728949703
2211.6048145121167 1795.8926284030463
2212.2152574806914 2489.1230161781177
2212.825553231638 2422.3241221141816
2213.435701798975 2355.6209437792336
2214.045703216707 1698.8850022925824
2214.655557518832 1044.332231475081
2215.2652647393297 1409.6134906538773
2215.874824912169 1209.5555168982823
2216.4842380713 1655.6710865744167
2217.09350425067 1353.2873819777062
2217.7026234842033 1872.0555429798108
2218.311595805819 1881.5412150572151
2218.9204212494133 1576.8162478134973
2219.52909984888 2064.650094386928
2220.137631638092 2022.4882391926828
2220.7460166509154 1980.1108773958028
2221.354254921198 1438.5771236924259
2221.9623464827764 1659.5024371006973
2222.5702913694713 1774.5254549797974
2223.178089615096 1738.7922897927888
2223.7857412534486 1458.3302301686947
2224.39324631831 1219.1125426506233
2225.000604843457 1479.740626243101
2225.607816862641 1837.4491460381614
2226.214882409611 1915.4662477328075
2226.8218015180973 1890.8586871762004
2227.4285742218217 1523.3125593798443
2228.0352005544864 1680.5065337182973
2228.6416805497847 1403.4351485482289
2229.248014241399 1563.5241079428133
2229.8542016629945 1342.5887327283742
2230.460242848223 1642.064640038033
2231.0661378307304 1492.8295690200853
2231.671886644139 1343.4600178664655
2232.277489322065 1244.0558486803216
2232.8829458981127 1207.0541271587872
2233.48825640587 1718.4333995051634
2234.0934208789095 2351.307918138167
2234.6984393507955 2055.731925201383
2235.3033118550793 1745.2283925630622
2235.9080384252975 1539.3678934481018
2236.5126190949723 1327.4163463610237
2237.1170538976166 1290.491088212656
2237.721342866729 1345.6459893111046
2238.32548603579 1532.5977811613616
2238.9294834382763 1747.6627087345491
2239.533335107646 1603.9438911370642
2240.1370410773434 1640.4072905890112
2240.740601380803 1447.9099430673457
2241.3440160514474 1604.791036106965
2241.9472851226783 1892.8164173594182
2242.550408627896 1591.2357099227183
2243.1533866004793 1841.492888351624
2243.756219073799 1641.129599287597
2244.3589060812064 1437.4872467002508
2244.961447656049 1366.413630771868
2245.5638438316564 1509.5647311361877
2246.166094641343 1758.066663594919
2246.7682001184166 1447.301293396508
2247.3701602961664 1619.2065999253605
2247.971975207871 1699.4541357428304
2248.5736448867974 1631.295709910251
2249.175169366197 1562.9398441963529
2249.7765486793123 1707.1517457034508
2250.3777828593684 1739.8015038928752
2250.9788719395783 1586.1003056891084
2251.579815953146 1728.8590102433864
2252.1806149332606 1435.9905742970548
2252.781268913097 1651.8869954243007
2253.381777925817 1747.0099742078976
2253.9821420045737 1842.2531398572767
2254.5823611825035 1746.1701030213148
2255.1824354927303 1531.7478175440724
2255.782364968365 1362.7730409677172
2256.38214964251 1193.6068566318083
2256.9817895482483 1460.003487368304
2257.5812847186553 1459.6365535617176
2258.180635186791 1436.7822159236878
2258.779840985704 1559.7984238178437
2259.37890214843 1482.8981457761151
2259.97781870799 1603.972791861765
2260.5765906973957 1725.2771017532602
2261.175218149645 1527.6237642379706
2261.773701097718 1667.9221707983736
2262.3720395745895 1646.6697753782787
2262.970233613216 1625.324110330654
2263.568283246548 1615.9940209303986
2264.1661885075137 1467.1833984460993
2264.763949429038 1509.164131628242
2265.3615660440246 1731.7429323089393
2265.959038385374 1477.859882663756
2266.5563664859637 1799.5458822192177
2267.153550378669 1481.5934590859201
2267.7505900963424 1447.070569857377
2268.3474856718312 1412.589738370592
2268.9442371379664 1484.113743222525
2269.5408445275643 1407.7968553424787
2270.1373078734377 1363.4514682239073
2270.7336272083758 1319.0152319893728
2271.32980256516 1465.8823098075995
2271.925833976562 1723.384991212369
2272.5217214753357 1765.0230003447955
2273.117465094223 1493.3796954706243
2273.7130648659586 1367.2383958557443
2274.308520823257 1556.3248473818894
2274.903832998827 1756.5590127886694
2275.4990014253563 1311.0987065692843
2276.094026135528 1722.886930275592
2276.6889071620117 1339.807967905366
2277.2836445374614 1739.8838104585552
2277.878238294519 1702.6205425397613
2278.472688465812 1479.3858068803825
2279.066995083962 1255.763980739816
2279.6611581815705 1599.4283893080349
2280.255177791232 1442.3183643564248
2280.8490539455233 1577.0443360941179
2281.442786677013 1712.0880207692662
2282.0363760182554 1793.0269426355128
2282.6298220017943 1818.1713516736556
2283.223124660155 1843.4807463645072
2283.816284025859 1545.8237310071206
2284.4093001314086 1805.4650858444406
2285.002173009292 1389.838560431449
2285.5949026919952 1656.204428597855
2286.1874892119777 1509.133277434878
2286.7799326016993 1611.2945513288037
2287.3722328936 1334.8052162356007
2287.964390120109 1279.4816140812902
2288.556404313642 1688.4781409444647
2289.1482755066027 2000.377182131488
2289.7400037313873 1664.4589630707273
2290.3315890203703 1463.720773951113
2290.9230314059205 1509.1162480803218
2291.5143309203904 1554.6322553285927
2292.1054875961236 1549.6623952770308
2292.6965014654506 1890.0661279591288
2293.287372560684 1421.061909780076
2293.878100914131 1377.3211166125725
2294.468686558086 1333.5312606208904
2295.059129524827 1439.9830118659725
2295.649429846617 1421.6556824979364
2296.239587555716 1403.2481623553092
2296.8296026843636 1612.112924770541
2297.419475264791 1445.9551042474516
2298.0092053292137 1279.3980835595116
2298.598792909839 1760.466815304065
2299.1882380388597 1668.9546779261138
2299.777540748455 2213.330639882745
2300.3667010707904 1688.8404741283434
2300.9557190380256 2139.0402748936663
2301.544594682302 2275.0434041795916
2302.1333280357503 2014.463149766672
2302.721919130485 1753.637903793393
2303.3103679986198 1899.4169725242143
2303.898674672242 1998.9056382877013
2304.486839183437 1453.0275372560745
2305.0748615642697 1620.4222366215813
2305.6627418468015 1568.862740719208
2306.2504800630704 1341.2257136854944
2306.8380762451143 1488.3065383228811
2307.425530424949 1571.7810620493203
2308.012842634582 1655.4349370719585
2308.6000129060103 2037.041292104639
2309.187041271214 1774.553582345973
2309.773927762164 1511.4930002868402
2310.3606724108213 1775.462598399857
2310.9472752491274 1355.3432591262947
2311.5337363090184 1719.4127488762545
2312.120055622414 1303.135486890998
2312.706233221221 1708.97350528842
2313.2922691373424 1365.364685424876
2313.8781634026564 1396.5706073924323
2314.463916049037 1427.8313300871678
2315.049527108342 1766.663706823608
2315.6349966124235 1928.453776754724
2316.2203245931123 1881.2456851732088
2316.8055110822315 1599.5500042479478
2317.3905561115935 1317.18677217319
2317.9754597129977 1300.4608586715408
2318.560221918229 1296.1260025541271
2319.1448427590603 1291.809559237908
2319.729322267256 1446.0271912272515
2320.313660474563 1417.907888033782
2320.8978574127195 1616.0786617236688
2321.481913113452 1814.8544661338485
2322.0658276084705 1316.8588458370593
2322.6496009294806 1430.6643963299975
2323.233233108165 1610.0531976136658
2323.8167241762058 1506.7624077822322
2324.4000741652617 1419.8999774679655
2324.983283106987 1913.972147654157
2325.5663510330232 1897.7781944561234
2326.1492779749933 1462.0540632712105
2326.7320639645204 1805.6083835503282
2327.3147090332004 1321.3039926301196
2327.897213212629 1447.1816832050831
2328.4795765343843 1573.12255580822
2329.0617990300307 1577.4717156261395
2329.643880731124 1833.8457594545082
2330.22582166921 1552.4564251935549
2330.807621875816 1389.3341590549765
2331.3892813824623 1226.0701939606492
2331.9708002206517 1252.6401495494579
2332.5521784218818 1452.5750424494406
2333.133416017634 1652.9783781835874
2333.7145130393765 1435.182987792523
2334.295469518571 2027.9170758196706
2334.876285486658 1934.6190800140012
2335.456960975076 1935.9083837487935
2336.037496015242 1937.2341008709996
2336.6178906385667 1639.9714786170402
2337.198144876451 1688.147265983677
2337.778258760278 1496.2965003126717
2338.3582323214214 1621.702440421894
2338.938065591243 1747.3591392653805
2339.517758601087 1842.2635820096773
2340.0973113822965 1847.7006943966576
2340.676723966193 1578.8203212747044
2341.255996384094 1547.6295286223312
2341.835128667295 1945.019243373777
2342.4141208470883 1896.819790017822
2342.992972954751 1621.64064797936
2343.5716850215467 1460.3113687903501
2344.1502570787306 741.5435593946607
2344.7286891575386 1329.3592807490281
2345.3069812892045 1992.906033600037
2345.885133504944 1844.856897097089
2346.4631458359618 1463.1271827656155
2347.04101831345 1516.3674101383444
2347.6187509685915 1386.5546565728337
2348.196343832553 1280.9788773446385
2348.7737969364935 1382.126577524097
2349.351110311558 1483.4276476871119
2349.9282839888765 1599.7594939382523
2350.5053179995757 1212.6010557594416
2351.0822123747585 1381.5517031910983
2351.658967145526 1335.3738612541222
2352.2355823429643 1289.1964375600128
2352.812057998144 1586.9714564552175
2353.3883941421263 1544.6087419552193
2353.9645908059647 1683.3491576488098
2354.540648020693 1465.1028739934623
2355.116565817336 1616.490407132239
2355.6923442269126 1768.229525498296
2356.2679832804224 1625.3502159882705
2356.8434830088518 1487.4210948528535
2357.41884344318 1570.3700865463475
2357.994064614377 1450.5696411004508
