#exp_cfg={"servo_angle": 0.0, "laser_lim": 100.0, "servo_angle_to": 18.0, "laser_wup": 0.0, "bt_dev": "EnSpectr-25AE3", "laser_wdn_max": 0.0, "frames": 10.0, "servo_used": 0, "servo_calib_use": 0, "laser_wdn_min": 0.0, "servo_pix_from": 90.0, "cooler_tout": 300.0, "servo_angle_from": 0.0, "servo_calib": "[-1.9174921013161362e-09, 3.9322238269163779e-05, -0.27385609119055809, 653.59552119713567]", "laser_autoctl": 0, "servo_pix_to": 3682.0, "laser_pw": 100.0, "cooler_on": 0, "laser_volt": 4.0, "cooler_autoctl": 0, "cooler_curr": 70.0, "cooler_startup": 10.0, "laser_fixed_pw": 0, "gain": 1.3, "offset": 2.53059635486, "servo_calib_degree": 3.0, "laser_curr": 55.0, "shutter": 8200.0, "servo_calib_step": 1.0, "laser_fixed_curr": 0, "exp": 2000.0, "ccd_volt": 4.7, "bt_addr": "00:06:66:62:5A:E3", "servo_delay": 500.0, "laser_autooff": 1}
#proc_cfg={"flat_auto_wnd": 200.0, "flat_auto_fr": 200.0, "flat_auto_shift": 5.0, "yconv": 1, "flatten": 1, "flatten_strength": 100.0, "xfrom": 300.0, "auto_max_frame": 2000.0, "auto_signal": 48000.0, "flat_auto_tol": 0.1, "autoclip": 1, "xrel_range": 0.0, "flat_auto_to": 4000.0, "intensity_adj": 1.0, "xrel": 7852.0, "rmhot": 1, "flat_auto_slit": 4.999999999999997, "auto_ini_exp": 300.0, "auto_off": 0, "xto": 2860.0, "flat_auto_ref": "", "flat_auto_rank": 1, "autobackg": 0, "xrel_adj": 0.0, "auto_black_lvl": 1, "base_wnd": 100.0, "sub_baseline": 0, "xconv": 2, "auto_max_exp": 1000.0, "auto_total_exp": 10000.0, "auto_exp": 0, "rmripple": 0, "black_lvl": 8282.04375, "shutter_clip_adj": 0.0, "auto_bckg": 0, "flat_auto_thr": 0.9, "subbackg": 1}
316.8218498245369 16426.345815862765
317.89969571804795 16145.42747798528
318.977263876126 16304.314423164658
320.05455438786703 16114.650485374523
321.1315673423287 16201.391510183425
322.2083028285215 16193.453006405185
323.2847609354267 16102.485313017114
324.3609417519747 16097.131548356268
325.43684536705587 15948.52484484678
326.5124718695279 16000.429522779916
327.58782134820103 15870.215100465299
328.66289389184385 15967.148773811487
329.7376895891921 15751.482984033782
330.8122085289342 15767.2125962311
331.88645079971866 15711.912205850103
332.9604164901575 15579.165704949532
334.03410568881554 15517.070880308383
335.1075184842266 15641.420974207595
336.18065496487543 15395.193133301786
337.2535152192122 15420.52997735769
338.32609933564163 15438.642969305185
339.39840740253203 15324.254913129995
340.4704395082099 15310.845187240786
341.5421957409617 15086.050803128514
342.6136761890357 15238.688105488438
343.6848809406365 15125.978022946389
344.75581008392874 14972.961996257882
345.82646370703696 14934.099215516402
346.8968418980512 14838.08613894376
347.96694474501055 14916.232229048366
349.0367723359268 14931.123730689458
350.106324758759 14829.77267125175
351.1756021014353 14690.816545383965
352.2446044518383 14738.104422403718
353.31333189781435 14814.872435656125
354.38178452716966 14710.885283643016
355.449962427665 14667.141328127798
356.51786568702846 14543.012543936187
357.58549439294256 14731.437389925191
358.6528486330535 14636.71167345643
359.71992849496564 14548.037500850856
360.7867340662433 14499.280631384663
361.8532654344144 14535.045205255188
362.9195226869597 14496.660141689266
363.9855059113288 14352.637250431804
365.05121519492604 14208.18471393322
366.11665062511565 14373.206851212124
367.1818122892273 14286.285327694568
368.2467002745434 14309.428960334873
369.31131466831175 14208.962945537767
370.375655557742 14122.43464378743
371.4397230299983 14186.87830971355
372.5035171722102 14118.932466721351
373.5670380714637 14012.92960751084
374.6302858148101 14146.734568006816
375.6932604892554 14076.166733882996
376.7559621817709 14079.493434404058
377.81839097928605 13947.249919050562
378.8805469686886 13910.372480360224
379.94243023683157 13927.482711479432
381.0040408705263 13943.60655570717
382.0653789565458 13723.530603810967
383.1264445816196 13822.382937375567
384.1872378324406 13785.149510469715
385.2477587956637 13772.804861189832
386.3080075579037 13652.304727196204
387.3679842057336 13572.520021626153
388.4276888256918 13638.452264802085
389.48712150426945 13639.057936139536
390.54628232792857 13515.396320551925
391.6051713830857 13426.367852603882
392.66378875611736 13493.913429396536
393.7221345333637 13477.663215743663
394.7802088011249 13386.13933727259
395.838011645661 13398.313841685362
396.89554315319765 13336.90859766367
397.9528034099112 13210.240577093296
399.00979250194723 13189.250861815546
400.06651051541485 13215.82856498191
401.1229575363741 13169.406244247424
402.17913365085224 13137.907208445216
403.23503894483656 13215.374956882046
404.2906735042761 13173.852895426437
405.3460374150818 13011.109551336045
406.401130763119 13018.69866412219
407.455953634224 13025.910673476033
408.5105061141876 12975.763176878088
409.56478828876243 12832.773883801512
410.6188002436629 12831.627207304917
411.6725420645689 12839.58905215826
412.72601383711117 12934.962657968554
413.77921564689314 12988.846729180988
414.8321475794728 12798.992480028564
415.88480972036814 12818.652573673182
416.93720215506437 12788.369858122167
417.9893249690049 12669.973538620976
419.04117824759123 12630.70151066047
420.09276207619223 12677.559915455322
421.144076540133 12734.323392669452
422.1951217247042 12602.497991781369
423.24589771515275 12696.00924996614
424.2964045966928 12597.570751034491
425.34664245449494 12693.377166850021
426.3966113736933 12611.969448500404
427.4463114393875 12560.335620516948
428.49574273662984 12546.61748739012
429.5449053504417 12388.523832558214
430.5937993658026 12531.801637584069
431.6424248676558 12459.454358937417
432.6907819409007 12305.058488165902
433.73887067040596 12383.350490433844
434.7866911409965 12455.010439043846
435.8342434374608 12334.024977089492
436.88152764455117 12302.42963635658
437.9285438469724 12291.897782484915
438.9752921294057 12158.522249934345
440.02177257648145 12297.423550687457
441.06798527279716 12103.015875289995
442.1139303029122 12352.869523282894
443.1596077513459 12422.110834254057
444.2050177025794 12216.428360149144
445.25016024105753 12109.527714404054
446.2950354511886 12100.722913860085
447.33964341733736 12185.19862565904
448.383984223834 12020.649334010533
449.4280579549686 11978.840809316218
450.471864694995 12042.590001881112
451.5154045281306 12059.625686100044
452.5586775385509 12031.982686701227
453.60168381039693 11962.366429109326
454.64442342776783 12130.344372535837
455.6868964747264 12022.872421187107
456.7291030353008 11968.311657891922
457.77104319347563 12099.682363351494
458.8127170332027 11980.17133655542
459.854124638392 11981.684776276797
460.895266092919 12058.592898820607
461.93614148061897 11968.608835165058
462.97675088529104 12096.46693997143
464.01709439069236 12039.299856671194
465.0571720805492 12005.351799381366
466.0969840385442 12007.994316852953
467.1365303483253 12204.697874037232
468.17581109350067 12096.845958105294
469.2148263576437 11935.95631863976
470.2535762242878 12037.138231615669
471.29206077693016 12129.913211535217
472.33028009902773 12109.136715743043
473.3682342740012 12114.091211209718
474.40592338523857 11969.086359884628
475.4433475160804 12056.627343949105
476.4805067498364 12028.224778925538
477.51740116978 11988.265299972687
478.5540308591426 12128.354153455886
479.59039590112116 12085.58907328621
480.6264963788726 12062.082377177652
481.6623323755193 12124.85830937159
482.6979039741436 12135.66626839017
483.7332112577915 12263.958311830364
484.76825430947247 12305.876519003641
485.80303321215797 12222.47614926194
486.837548048783 12297.42765630649
487.8717989022425 12390.513047913935
488.90578585539697 12259.300651678464
489.9395089910686 12412.881587893447
490.97296839203955 12327.906650138988
492.00616414106116 12172.510239164445
493.0390963208429 12278.79850835825
494.0717650140559 12349.068958278986
495.10417030333883 12302.210257179078
496.1363122712901 12303.221867070462
497.16819100046814 12080.612183206824
498.1998065734024 12064.605777538034
499.2311590725767 12038.427931900598
500.26224858044407 11958.516454028715
501.2930751794156 11940.573919451925
502.3236389518679 11972.603777545137
503.35393998014115 11739.627766108613
504.38397834653733 11807.232860799977
505.4137541333221 11799.086492711867
506.4432674227228 11615.0502624829
507.4725182969323 11566.79542962447
508.5015068381035 11605.204054909376
509.53023312835467 11668.865377384338
510.55869724976765 11553.164124364474
511.58689928438434 11441.530718069527
512.6148393142121 11374.422534471192
513.6425174212218 11562.262131490404
514.6699336873462 11523.860532850802
515.6970881944835 11555.41983788605
516.7239810244901 11482.304217403223
517.7506122591931 11555.128120602692
518.7769819803761 11552.342168875606
519.8030902697901 11602.560100857867
520.8289372091476 11545.663256849206
521.8545228801249 11716.631000847892
522.8798473643619 11609.013341019878
523.9049107434621 11621.72539973736
524.9297130989908 11596.15873498192
525.9542545124805 11550.879692192368
526.9785350654201 11591.443052012877
528.0025548392696 11531.13309074653
529.0263139154504 11435.424578957489
530.0498123753423 11572.445375354766
531.073050300296 11409.716699362627
532.0960277716204 11371.174693770921
533.1187448705896 11387.306489596756
534.1412016784416 11477.571189115999
535.1633982763833 11471.582919096505
536.1853347455726 11366.427287734
537.2070111671401 11424.338635412003
538.2284276221817 11407.623757329839
539.2495841917516 11357.710772905197
540.2704809568677 11303.06353926893
541.2911179985167 11409.236108084904
542.3114953976419 11362.844483395242
543.3316132351592 11384.916190933776
544.3514715919409 11358.887124735282
545.3710705488247 11400.426931310587
546.3904101866156 11429.303255761984
547.4094905860784 11507.583384772832
548.4283118279418 11488.107575769798
549.4468739929034 11571.425593385824
550.4651771616191 11579.075814316691
551.4832214147063 11536.059452784426
552.501006832761 11644.641146342336
553.5185334963226 11560.403505987128
554.5358014859103 11674.859680686372
555.5528108820035 11681.205003253712
556.5695617650363 11565.078509434183
557.5860542154242 11641.16390282501
558.6022883135283 11539.117342049933
559.6182641396881 11487.222759707072
560.6339817741991 11561.080481748106
561.6494412973225 11535.406662176192
562.6646427892883 11525.532230862402
563.6795863302796 11234.988552922761
564.694272000459 11270.436812012826
565.7086998799423 11434.73536510952
566.7228700488104 11240.58934740014
567.7367825871115 11140.075170649792
568.7504375748576 11062.713148863626
569.7638350920224 11018.261167789708
570.7769752185486 10981.941726140949
571.7898580343353 10964.982497913828
572.802483619258 10831.805876376855
573.8148520531431 11050.12420292989
574.8269634157932 10840.445019142251
575.8388177869692 10811.600005417004
576.8504152463938 10766.56997608777
577.8617558737587 10919.972048260472
578.8728397487175 10720.813338817155
579.883666950891 10687.233300726399
580.8942375598654 10844.57695115163
581.9045516551851 10868.356495334981
582.9146093163617 11056.810972844822
583.924410622878 10662.13539961813
584.9339556541727 10761.814748424313
585.9432444896538 10854.748520766689
586.9522772086875 10701.519259427707
587.9610538906127 10814.88034118324
588.9695746147318 10710.469357688984
589.9778394603054 10723.52080357493
590.985848506567 10657.304833775177
591.9936018327098 10617.36735276873
593.0010995178891 10457.074915002446
594.0083416412344 10610.57534446305
595.0153282818283 10456.736712449741
596.0220595187293 10420.866767943178
597.0285354309508 10416.28362152421
598.0347560974806 10425.750225581882
599.0407215972609 10336.641722689777
600.0464320092051 10368.087674202452
601.0518874121954 10389.665496605123
602.0570878850685 10296.241361254386
603.062033506636 10396.473965648314
604.0667243556636 10292.005582560323
605.0711605108936 10194.06060346267
606.0753420510264 10479.236111369752
607.0792690547278 10294.957047420983
608.082941600629 10279.033479833732
609.0863597673306 10248.183884263388
610.0895236333909 10355.136564769196
611.0924332773357 10512.472519379038
612.0950887776617 10399.306472630626
613.0974902128219 10404.378110155078
614.0996376612384 10552.790456211647
615.1015312013005 10652.2519210079
616.1031709113595 10720.569840467839
617.1045568697336 10637.012538463137
618.1056891547069 10686.16391291909
619.1065678445229 10792.061517006372
620.1071930173985 11026.84058633162
621.1075647515099 10967.387091229135
622.1076831250048 10953.509764725535
623.1075482159849 11036.530196079908
624.1071601025305 10981.843961029157
625.1065188626781 10969.5403841837
626.105624574433 11152.817692610426
627.1044773157682 11087.975951384073
628.1030771646128 11003.611705373274
629.1014241988742 11111.016491698052
630.0995184964158 11142.375164467414
631.0973601350688 11055.967704856677
632.0949491926294 11305.955779294734
633.0922857468631 11019.99815732159
634.089369875499 11140.84285249472
635.0862016562278 11114.871528606429
636.0827811667077 10991.029406343592
637.0791084845641 11079.267253230766
638.0751836873878 11030.568895361721
639.0710068527369 11132.802504040099
640.0665780581294 11004.135408882463
641.0618973810506 10967.545225660366
642.0569648989604 11081.468071223524
643.0517806892676 10876.529689830988
644.0463448293649 10955.541317243207
645.040657396592 10817.723757077949
646.0347184682723 10810.982649210306
647.0285281216875 10741.798244774622
648.0220864340772 10719.803431402768
649.0153934826558 10620.080951329497
650.0084493446047 10665.59726740525
651.0012540970674 10721.945917831685
651.9938078171526 10686.480792099643
652.9861105819346 10624.156920271582
653.9781624684565 10739.937557020125
654.9699635537254 10546.399361452499
655.9615139147136 10562.226078989643
656.9528136283589 10426.733317432529
657.9438627715699 10516.834238874417
658.9346614212154 10462.128551176062
659.925209654135 10190.293640963982
660.9155075471263 10270.198121837642
661.9055551769616 10221.43506998502
662.895352620375 10451.437954932067
663.8848999540678 10286.177825147282
664.8741972547068 10013.016701832497
665.863244598926 9984.51903237684
666.8520420633213 10095.679922286412
667.8405897244611 9941.683716569869
668.8288876588758 9762.410567987828
669.8169359430613 9946.38943994952
670.8047346534822 9955.470945494682
671.7922838665672 9780.828105099814
672.7795836587156 9875.321834952694
673.766634106285 10062.97799837946
674.7534352856092 9786.97996314756
675.7399872729766 9856.53387863488
676.7262901446538 9963.599232870449
677.712343976862 9879.329510419151
678.6981488457986 9883.309956137857
679.6837048276229 9825.268924577449
680.6690119984596 9839.345106657642
681.6540704344043 9742.02619928445
682.6388802115107 9722.884683993074
683.6234414058108 9747.91260248005
684.6077540932874 9656.812808024482
685.591818349907 9588.790602911482
686.575634251587 9643.156412658194
687.5592018742263 9592.66543587185
688.5425212936734 9415.089581966673
689.5255925857564 9525.628400746506
690.5084158262707 9543.352281649264
691.4909910909646 9563.049997668702
692.4733184555644 9512.982224734778
693.4553979957618 9643.794642757475
694.4372297872123 9673.624160783056
695.4188139055404 9574.34045125596
696.4001504263324 9605.247559697153
697.3812394251509 9840.711891108058
698.3620809775111 9762.82565298549
699.3426751589104 9871.83867616451
700.3230220448004 9827.566523815587
701.3031217106054 9936.377583213914
702.2829742317172 10196.641056706876
703.2625796834873 9814.156643957136
704.2419381412474 9816.24941172418
705.22104968028 10014.51736595351
706.1999143758458 9933.912299765989
707.178532303169 10046.221500603922
708.1569035374378 10191.863880443994
709.1350281538107 10308.709948794527
710.1129062274158 10206.200079744565
711.0905378333373 10487.991216644392
712.0679230466376 10621.254196449587
713.0450619423427 10789.020614038338
714.0219545954424 11138.98737340943
714.9986010808989 11066.347035003238
715.9750014736292 11428.135033461014
716.9511558485392 11705.510969915817
717.9270642804786 11992.758970841982
718.9027268442787 12241.138234321244
719.8781436147328 12332.12542424591
720.8533146666014 12355.719019509135
721.828240074612 12545.255752498933
722.8029199134635 12438.06623694242
723.7773542578125 12490.222587680835
724.751543182294 12422.399920493825
725.7254867615029 12357.161270865354
726.6991850700015 12077.942758905849
727.6726381823228 12105.869604014846
728.6458461729599 12313.965486699815
729.6188091163858 12265.376716905506
730.5915270870246 12507.359804257243
731.5640001592856 12594.427796932518
732.536228407529 12826.378808735815
733.5082119060917 13197.782546128898
734.4799507292755 13333.140258601063
735.4514449513481 13517.707521749788
736.4226946465496 13795.143401717103
737.3936998890786 13960.877946713375
738.3644607531078 13660.75362105149
739.3349773127793 13567.752140031027
740.3052496421951 13325.808907215755
741.27527781543 12856.672980587618
742.2450619065221 12371.876297697683
743.2146019894826 12082.916115055956
744.183898138288 11723.092648835514
745.1529504268801 11260.171360845889
746.1217589291682 10728.122502907472
747.0903237190341 10396.03300433335
748.058644870318 10088.56412104217
749.0267224568397 9775.333751343403
749.994556552374 9516.755191799344
750.9621472306771 9354.469652455347
751.9294945654583 9262.053876903266
752.8965986304011 9152.954623504133
753.8634594991636 8903.429927278255
754.8300772453586 8987.545601342097
755.7964519425768 8809.748241893125
756.762583664371 8841.861738041573
757.7284724842611 8792.002367923189
758.6941184757416 8657.12849185921
759.6595217122667 8604.027460993999
760.6246822672638 8627.969075133153
761.5896002141235 8417.39433022753
762.5542756262093 8524.506537392263
763.5187085768503 8593.028638818174
764.4828991393406 8422.438068983927
765.4468473869474 8465.029861208788
766.4105533929032 8467.150948456077
767.3740172304078 8397.892707334899
768.3372389726283 8424.185969665348
769.3002186926988 8302.999738063647
770.2629564637282 8334.873553274065
771.2254523587872 8235.532199621233
772.1877064509154 8264.780681541628
773.1497188131179 8170.185986636336
774.1114895183728 8098.554658405029
775.0730186396268 8066.627934171791
776.0343062497905 8076.845949700686
776.9953524217381 8061.718241908311
777.9561572283274 8086.465721772531
778.9167207423689 8091.6583644010925
779.8770430366476 7970.609903530317
780.8371241839159 8014.097230706939
781.7969642568951 8014.866415425345
782.7565633282757 8270.335146417234
783.7159214707099 8010.369736198137
784.6750387568281 8129.71773277091
785.6339152592227 8071.8315043834355
786.5925510504512 7989.3357562051
787.5509462030477 7994.2601133763965
788.5091007895098 8003.524232839675
789.4670148823006 8017.5546574142545
790.4246885538596 7997.063716258931
791.3821218765861 7991.821260296364
792.3393149228505 7908.713934856794
793.2962677649975 8077.343557776449
794.2529804753303 7975.057609459242
795.20945312613 7954.1078833191295
796.1656857896378 7798.635314742804
797.1216785380675 7769.192345963759
798.0774314435985 7948.042618062315
799.0329445783846 8041.237573909527
799.9882180145414 7889.122192663026
800.9432518241574 7787.451367174892
801.89804607929 7905.507169477751
802.852600851962 7900.187227024022
803.8069162141637 7798.406938889585
804.760992237856 7889.072246464899
805.714828994971 7852.052046966494
806.6684265574077 7939.40939840752
807.6217849970271 7809.307615259944
808.574904385674 7760.541407061697
809.527784795142 7843.537930689969
810.4804262972102 8028.536347620097
811.4328289636178 7790.508650619682
812.3849928660748 7674.894380436403
813.3369180762638 7688.561528498862
814.2886046658241 7817.564609106101
815.2400527063783 7710.659479688
816.1912622695108 7714.74519271275
817.1422334267718 7808.215110726899
818.0929662496856 7597.03898757289
819.0434608097457 7486.956674128342
819.9937171784059 7576.671122811165
820.9437354271013 7558.556459381002
821.8935156272255 7631.319227529854
822.8430578501484 7562.624212202047
823.7923621672016 7332.987329000013
824.7414286496896 7474.306644277244
825.6902573688876 7552.962533524982
826.6388483960363 7534.004687111601
827.5872018023492 7356.237370378524
828.5353176590033 7484.630282058979
829.4831960371503 7283.462629117328
830.4308370079016 7319.912296375433
831.3782406423525 7384.908057882925
832.3254070115545 7395.84097168426
833.2723361865319 7261.957328292255
834.2190282382799 7158.256774830015
835.1654832377644 7350.209704320213
836.1117012559116 7228.264657014234
837.0576823636256 7469.04694396824
838.003426631778 7207.174781790944
838.9489341312074 7165.939171124352
839.8942049327197 7295.5548435963965
840.8392391070975 7406.37610017914
841.7840367250865 7288.284724303555
842.7285978573982 7162.442320461213
843.672922574724 7381.532898555789
844.6170109477152 7222.681522596176
845.560863046996 7172.974041723588
846.5044789431595 7251.050113505624
847.4478587067697 7269.567891712648
848.3910024083561 7431.776171297529
849.333910118421 7290.058705982247
850.2765819074339 7207.988186845965
851.2190178458332 7324.486538769512
852.161218004032 7381.670041078987
853.1031824524016 7394.6345989327865
854.0449112612987 7325.837743132026
854.9864045010327 7390.985309543399
855.9276622418947 7334.381596577994
856.8686845541379 7348.871750343872
857.8094715079915 7273.921011745125
858.7500231736467 7463.862743723394
859.690339621271 7311.019377818328
860.6304209209939 7282.523206077043
861.5702671429244 7190.410213939198
862.5098783571284 7290.70985497324
863.4492546336569 7249.109850979919
864.3883960425155 7144.079817087442
865.3273026536863 7159.525812777011
866.2659745371238 7042.505608920017
867.2044117627465 7269.871019793436
868.1426144004472 7087.5811449338025
869.0805825200823 7196.676335299698
870.0183161914847 7154.897578365964
870.9558154844526 7233.093731284338
871.8930804687552 7237.026859305171
872.8301112141307 7018.86215837173
873.7669077902865 7220.507891905031
874.7034702669062 7299.051588484875
875.6397987136315 7172.798295206261
876.5758932000863 7197.611007441303
877.5117537958522 7315.580768284301
878.4473805704911 7171.253186877159
879.3827735935283 7120.690558550753
880.3179329344603 7193.086372688292
881.2528586627541 7274.496257734379
882.1875508478479 7311.1082430909355
883.1220095591489 7228.984682348333
884.0562348660296 7116.526174148741
884.9902268378391 7268.086542154726
885.9239855438955 7103.993844889008
886.8575110534839 7018.607602054921
887.7908034358588 7134.96566349463
888.7238627602474 7063.438728742571
889.6566890958475 7120.055922637059
890.5892825118208 6951.3153386262275
891.5216430773125 7110.127416293801
892.4537708614189 7136.971806277632
893.3856659332196 7056.41944248515
894.3173283617652 7013.4620345314925
895.2487582160684 7073.46746318181
896.179955565116 7048.63614275765
897.110920477864 6932.761738888648
898.0416530232451 6993.22537629055
898.9721532701478 6903.800783652696
899.9024212874428 7151.640911194876
900.8324571439662 6930.781937660021
901.7622609085302 6938.783289271142
902.6918326499072 6892.342129242604
903.6211724368477 7034.294558676367
904.5502803380696 7178.860476259591
905.4791564222614 7193.716316428402
906.4078007580792 6942.0399801641015
907.3362134141571 7032.859585931654
908.2643944590909 7159.245064772304
909.1923439614493 7024.464716211277
910.1200619897754 7104.875822130009
911.0475486125779 7268.222685384576
911.9748038983344 7101.453522649722
912.9018279155007 7065.182610258975
913.8286207324982 6962.907614079809
914.7551824177117 7197.000120234091
915.6815130395116 7124.132124696933
916.6076126662283 7027.343165155672
917.533481366163 7059.137570548145
918.4591192075914 7102.872631721046
919.3845262587565 7102.450590143785
920.3097025878706 6956.057041254407
921.2346482631237 7040.806491346282
922.1593633526682 6981.007601577694
923.0838479246304 7024.243087281985
924.0081020471061 7132.134179333591
924.9321257881656 6790.816195128289
925.8559192158464 6927.458810695613
926.7794823981512 6764.235645061075
927.7028154030686 6681.3142912699095
928.6259182985414 6680.600534253164
929.5487911524906 6908.119030439886
930.4714340328119 6778.381686454428
931.3938470073608 6637.165125690619
932.3160301439748 6643.070736622052
933.2379835104548 6693.9285869190835
934.1597071745709 6766.122258095706
935.0812012040769 6709.570691095815
936.002465666681 6806.335098292215
936.9235006300696 6799.241125194909
937.8443061619055 6756.124555789873
938.7648823298077 6603.724753523694
939.6852292013809 6683.578227269247
940.6053468441951 6777.732507044158
941.5252353257874 6524.489135325539
942.4448947136698 6689.301984864408
943.364325075323 6649.141269533959
944.2835264782043 6676.424795638867
945.2024989897309 6654.910537609023
946.1212426773054 6711.922698859933
947.0397576082851 6791.543335440091
947.9580438500125 6924.85278073784
948.8761014697939 6902.764505455391
949.7939305349064 6932.834499865307
950.7115311125999 6714.154199390201
951.6289032700952 6774.395258344576
952.5460470745875 6922.810344942123
953.4629625932339 6793.337722953007
954.3796498931715 6915.632816185467
955.2961090415029 6949.7833701110885
956.2123401053068 6872.320824291404
957.1283431516276 6934.174408606415
958.0441182474842 6822.070673441702
958.9596654598663 7081.566851988772
959.8749848557309 7003.4970624378575
960.7900765020167 6874.972151996832
961.7049404656209 6761.061276813493
962.6195768134185 6932.3471886532325
963.5339856122537 6823.923488658295
964.4481669289453 6906.451836938977
965.3621208302793 6787.104484645513
966.2758473830145 6802.239929693977
967.1893466538822 6914.550895604586
968.1026187095813 6680.506639262526
969.0156636167867 6693.01863447294
969.9284814421426 6771.178825906192
970.8410722522622 6664.6812871077445
971.753436113735 6701.586868194214
972.6655730931161 6588.926276720775
973.5774832569368 6652.7401621369545
974.4891666716958 6570.004791659575
975.4006234038698 6503.654127415316
976.3118535198955 6498.83511888803
977.2228570861935 6635.831839793018
978.1336341691494 6542.572875076076
979.0441848351202 6350.0135013843255
979.9545091504333 6504.1215735927835
980.864607181391 6543.009922560459
981.7744789942699 6475.178942790179
982.6841246553086 6484.640050580032
983.5935442307236 6517.365125829463
984.5027377867027 6540.658756302895
985.4117053894024 6547.4509863755175
986.3204471049557 6352.918105467345
987.2289629994648 6486.725264468398
988.1372531390007 6592.595775134799
989.0453175896091 6522.716886300021
989.9531564173067 6475.187743954879
990.860769688079 6401.203211885195
991.7681574678918 6354.213914437859
992.6753198226706 6506.32651172174
993.582256818323 6352.728707828114
994.4889685207218 6322.965744402035
995.3954549957143 6602.7359381320975
996.301716309119 6491.596301357722
997.2077525267232 6444.368204033939
998.1135637142943 6338.464467928936
999.0191499375615 6523.768161535744
999.924511262232 6504.2023577019645
1000.8296477539861 6506.114338539087
1001.7345594784656 6392.434134362257
1002.6392465012996 6327.449292481435
1003.5437088880753 6477.151358051631
1004.4479467043584 6481.868262874933
1005.3519600156869 6153.711386903442
1006.2557488875718 6465.6810752724405
1007.1593133854858 6429.960934049823
1008.0626535748888 6243.859447868132
1008.9657695212009 6240.395752422087
1009.8686612898182 6513.577548041464
1010.7713289461135 6465.161091083438
1011.6737725554212 6323.8902064994745
1012.5759921830577 6403.9581703767935
1013.4779878943027 6306.431153491159
1014.379759754418 6447.670304217854
1015.2813078286254 6307.718803603904
1016.18263218213 6260.194071663138
1017.0837328801026 6220.640366154917
1017.9846099876886 6410.713757187646
1018.8852635700023 6245.904283068052
1019.7856936921362 6113.345298623516
1020.6859004191447 6392.0984750839825
1021.5858838160675 6211.461654312334
1022.4856439479063 6220.9721708594425
1023.3851808796389 6132.8454749789535
1024.2844946762143 6317.723003373834
1025.183585402554 6211.368544519302
1026.082453123554 6047.052423839221
1026.9810979040776 6297.416629568097
1027.8795198089647 6095.343835910831
1028.777718903024 6275.84748773428
1029.6756952510368 6123.073914112109
1030.5734489177648 6147.1821231993845
1031.4709799679313 6138.032974901451
1032.3682884662358 6361.590629253514
1033.2653744773506 6073.839852784133
1034.1622380659192 6130.192529794216
1035.058879296559 6278.812587535185
1035.9552982338591 6338.078184154848
1036.8514949423825 6309.555667758717
1037.7474694866614 6323.324831170028
1038.6432219312028 6297.507946346604
1039.5387523404825 6592.154541727381
1040.4340607789582 6512.781820176022
1041.3291473110476 6606.343775914202
1042.2240120011465 6798.623564305303
1043.1186549136273 6809.132268124917
1044.0130761128294 6814.24776372559
1044.9072756630649 6907.325356682786
1045.8012536286205 7023.260356472283
1046.6950100737577 7139.739200443839
1047.588545062701 7416.005300097694
1048.481858659663 7299.360091442102
1049.3749509288118 7580.202504496815
1050.2678219343034 7424.861401496388
1051.1604717402515 7497.445166546039
1052.0529004107575 7362.996825704419
1052.9451080098825 7527.468655593313
1053.8370946016694 7437.826808931786
1054.7288602501267 7470.497001398886
1055.6204050192446 7330.292904769105
1056.511728972977 7374.023515611824
1057.402832175254 7160.527150487574
1058.2937146899785 7038.131897273449
1059.1843765810263 6987.736529806508
1060.0748179122456 6991.403241646532
1060.9650387474576 6839.990982395461
1061.855039150456 6782.574558351576
1062.7448191850071 6658.896375165905
1063.6343789148505 6651.813703223243
1064.5237184037014 6730.079570178677
1065.412837715241 6464.763250894482
1066.3017369131267 6323.16793498058
1067.190416060992 6317.058228718561
1068.0788752224398 6229.964077230939
1068.9671144610438 6205.34454436768
1069.8551338403558 6339.55863625267
1070.7429334239023 6349.426952951345
1071.6305132751695 6075.2227503262475
1072.517873457633 6274.898620529857
1073.4050140347335 6187.8495073837785
1074.2919350698776 6274.23254517135
1075.1786366264623 6174.122711544274
1076.0651187678395 6262.2223211777
1076.95138155735 6102.502669951879
1077.8374250582929 6197.962827180394
1078.7232493339507 6298.742212555175
1079.608854447577 6289.613774262773
1080.4942404623907 6217.946860205922
1081.3794074415982 6339.880981503254
1082.2643554483657 6461.427069658958
1083.149084545841 6369.33711089677
1084.033594797138 6299.520018785826
1084.9178862653516 6422.1023739440725
1085.8019590135427 6731.961216507011
1086.6858131047484 6408.400457508763
1087.5694486019802 6670.343039744497
1088.4528655682225 6659.885876956652
1089.3360640664287 6884.826779833505
1090.2190441595321 6775.245412150085
1091.1018059104317 6845.457029509156
1091.98434938201 7017.198834882389
1092.866674637111 7083.290816963035
1093.748781738559 6995.525006723881
1094.6306707491512 6881.833260950167
1095.5123417316554 7090.1711829684355
1096.3937947488157 7013.791545872603
1097.2750298633455 7022.735262888642
1098.156047137938 6919.882586628113
1099.0368466352556 7006.5795275846995
1099.9174284179317 7166.815300883664
1100.7977925485757 6822.96212557603
1101.6779390897755 6834.035405139197
1102.5578681040806 6794.656218655659
1103.4375796540226 6815.650919254646
1104.3170738021054 6719.382265763804
1105.1963506108077 6441.99172752743
1106.0754101425773 6503.115537000741
1106.9542524598382 6525.51188281986
1107.8328776249855 6341.683918583542
1108.7112857003904 6202.731355592471
1109.5894767483987 6198.3284465063125
1110.4674508313292 6255.42137495789
1111.3452080114657 6071.003596322322
1112.2227483510815 6139.60048811962
1113.1000719124077 6107.758971820733
1113.9771787576592 6103.877010119218
1114.854068949022 5940.5269876642615
1115.7307425486542 6029.394781578681
1116.6071996186893 6004.715017894992
1117.483440221229 6185.283880742232
1118.3594644183577 5922.723921781986
1119.235272272128 5904.756360815213
1120.1108638445658 6029.299383913388
1120.9862391976712 6155.416059640398
1121.8613983934229 6019.710613252509
1122.7363414937627 5995.240432706227
1123.6110685606182 5995.180447123681
1124.485579655884 6134.3093806195375
1125.359874841426 6028.525319025973
1126.2339541790916 5955.874673750356
1127.1078177306936 6186.73972642507
1127.9814655580267 5916.197126583204
1128.854897722851 6004.232169144159
1129.7281142869106 5932.497432017315
1130.6011153119125 5990.070741008788
1131.473900859548 6225.287230380034
1132.3464709914697 5959.3082545337165
1133.2188257693178 6000.0047557797
1134.0909652546961 5904.818549069945
1134.96288950919 5802.0850252484015
1135.8345985943506 6105.010538162616
1136.7060925717087 5757.230432296745
1137.57737150277 5856.375111821252
1138.4484354490069 6126.070726945854
1139.3192844718778 5828.50374956431
1140.1899186327992 5738.0003274083565
1141.060337993178 6004.847911841972
1141.930542614382 5892.411131638406
1142.8005325577597 5902.425456176291
1143.670307884635 5666.023622504893
1144.5398686563003 5877.080448963068
1145.409214934025 5902.917987850774
1146.2783467790541 5643.914321514051
1147.1472642526023 5825.396608839158
1148.0159674158622 6025.961388482057
1148.8844563300026 5850.693627326646
1149.7527310561618 5767.746198813463
1150.6207916554504 5738.438847981897
1151.4886381889592 5664.233705013268
1152.3562707177498 5977.287659741445
1153.2236893028585 5772.210799639946
1154.090894005296 5702.763388265709
1154.9578848860474 5797.738843744836
1155.8246620060709 5784.33908682677
1156.6912254262988 5703.282631864178
1157.5575752076438 5648.503213479779
1158.42371141098 5915.849347814551
1159.2896340971656 5876.28315534484
1160.1553433270346 5749.604316672348
1161.0208391613887 5762.440022214604
1161.8861216610057 5738.539956443192
1162.75119088664 5738.018513459394
1163.6160468990201 5683.157957622646
1164.4806897588442 5618.2356628034995
1165.3451195267917 5787.590809020727
1166.2093362635114 5714.859647843663
1167.0733400296285 5706.772052968703
1167.9371308857444 5592.5105293586075
1168.8007088924278 5618.367556802423
1169.6640741102328 5669.37456200766
1170.5272265996773 5485.977769995489
1171.390166421259 5530.399214214252
1172.252893635452 5659.713344158929
1173.1154083026995 5797.483604584775
1173.977710483421 5738.316588246977
1174.8398002380145 5505.622238983535
1175.7016776268483 5763.937294893069
1176.563342710264 5665.776658331268
1177.4247955485826 5569.772178181969
1178.2860362020947 5781.728856224929
1179.147064731069 5474.391158735969
1180.0078811957483 5697.612713790415
1180.8684856563486 5638.064608379023
1181.7288781730604 5707.576312760321
1182.589058806052 5695.969808162705
1183.4490276154593 5930.010941713333
1184.3087846614017 5617.6298035531945
1185.1683300039676 5884.016761760821
1186.027663703222 6027.935186993249
1186.8867858192025 5778.74177679264
1187.7456964119228 5851.545765119888
1188.6043955413716 5872.413164463761
1189.4628832675116 5979.398737608898
1190.3211596502842 6028.599459831153
1191.179224749596 6030.043891625613
1192.0370786253388 5735.270994084106
1192.8947213373758 6060.543638429697
1193.7521529455407 6208.385743724686
1194.6093735096438 5885.674898555901
1195.466383089477 5932.235072103467
1196.3231817447977 5845.907574899439
1197.1797695353398 6086.357025477311
1198.0361465208189 5799.785650619503
1198.8923127609214 5883.719148471356
1199.7482683153048 6007.040351062258
1200.6040132436028 6032.031757784192
1201.459547605431 5899.49098773682
1202.3148714603722 5987.685484997147
1203.1699848679855 5977.236370466902
1204.0248878878065 6002.504845920434
1204.8795805793507 5608.130765767473
1205.7340630020935 5947.304538835293
1206.5883352155033 5927.4847826336045
1207.4423972790064 5979.1874312117525
1208.2962492520237 5724.343870293294
1209.1498911939307 5825.475192110403
1210.0033231640937 5834.487460672736
1210.8565452218427 5844.279231362467
1211.7095574264913 5574.2467557119435
1212.5623598373222 5630.999251211774
1213.4149525135963 5598.741195041041
1214.2673355145507 5722.175229891602
1215.1195088993936 5528.290500240683
1215.9714727273113 5533.584879082133
1216.8232270574663 5759.713020447309
1217.6747719489904 5293.514971020276
1218.5261074609934 5417.964120317834
1219.3772336525653 5553.773049035472
1220.2281505827668 5596.446601339493
1221.0788583106296 5584.057717772972
1221.9293568951707 5416.755269414201
1222.7796463953746 5241.371940745596
1223.629726870202 5395.426815873036
1224.4795983785934 5560.81655399014
1225.3292609794553 5452.540400314807
1226.1787147316809 5275.185723905996
1227.0279596941327 5353.032965405933
1227.8769959256424 5212.5524760363
1228.7258234850306 5426.274489232252
1229.5744424310833 5158.267900898352
1230.422852822563 5437.756356353213
1231.2710547182105 5566.313681950554
1232.119048176739 5418.163915698985
1232.9668332568417 5146.4475004889
1233.8144100171812 5450.927297180802
1234.6617785163999 5437.479827246244
1235.508938813111 5094.835047492576
1236.3558909659114 5099.404513544605
1237.2026350333617 5401.758399567849
1238.049171074008 5392.828190737177
1238.8954991463652 5209.83865937891
1239.741619308932 5220.128759943376
1240.587531620169 4327.563265106559
1241.4332361385277 5364.947724469175
1242.2787329224248 5229.421035060371
1243.1240220302534 5163.1271045515905
1243.9691035203869 5181.875678159862
1244.813977451171 5454.340858818292
1245.6586438809263 5467.744231382187
1246.5031028679496 5119.72820055633
1247.3473544705157 5439.941588610387
1248.1913987468706 5431.232321808535
1249.0352357552383 5199.109887681274
1249.8788655538228 5357.02498155947
1250.7222882007918 5577.768590134856
1251.565503754302 5661.538733862812
1252.4085122724755 5294.62952232289
1253.2513138134182 5673.679147524061
1254.0939084352049 5695.032947207657
1254.9362961958905 5654.413389352945
1255.7784771535007 5630.14660817902
1256.6204513660432 5770.309779417229
1257.4622188915 5975.694921296452
1258.3037797878242 5732.454007882761
1259.1451341129468 5718.307548221123
1259.9862819247755 5874.692272807877
1260.8272232811978 5859.71536727218
1261.6679582400666 6033.784135127213
1262.5084868592203 5712.802750321988
1263.34880919647 5715.594561405824
1264.1889253095997 5886.370423768738
1265.0288352563712 5987.340127065918
1265.8685390945266 5829.422527673148
1266.7080368817751 5947.454432516141
1267.5473286758115 6112.2901899227145
1268.386414534294 5980.185884623492
1269.2252945148703 5564.041947079783
1270.0639686751547 5766.7188899961675
1270.9024370727402 5714.401779975955
1271.7406997651997 5669.348850309312
1272.5787568100714 5546.578528413942
1273.4166082648808 5672.480771198536
1274.2542541871244 5723.0660579500745
1275.091694634275 6000.966611369171
1275.9289296637817 5550.303257842416
1276.7659593330663 5848.198232198698
1277.6027836995308 5661.4768781031635
1278.4394028205552 5877.173745060374
1279.2758167534867 5862.980427925081
1280.112025555658 5787.041238517535
1280.9480292843746 5855.007866374564
1281.7838279969128 5650.05935544316
1282.6194217505326 5825.406606908839
1283.4548106024686 5694.498137847979
1284.289994609926 5790.359989078049
1285.1249738300921 6039.554478752418
1285.959748320127 5767.151682418846
1286.7943181371702 5939.814367249051
1287.6286833383328 5857.174824941671
1288.4628439807038 5981.4438008224215
1289.2968001213521 5761.040070336363
1290.1305518173194 5967.783106229675
1290.9640991256183 6053.590927215056
1291.7974421032523 5975.847622366845
1292.630580807183 6043.445307503419
1293.463515294361 6203.150469888624
1294.29624562171 6320.72885897535
1295.12877184613 6147.039322050241
1295.961094024493 6211.443471989849
1296.79321221365 6465.190508534076
1297.6251264704333 6485.482336596744
1298.4568368516466 6728.551174908013
1299.2883434140658 6631.714827059623
1300.1196462144526 6488.101809304346
1300.9507453095375 6785.561015305442
1301.7816407560313 6785.0194779749945
1302.6123326106172 6873.03886741117
1303.4428209299622 6840.279419637254
1304.2731057707024 7210.557807153564
1305.1031871894502 6903.688684918152
1305.933065242798 7050.956796381672
1306.7627399873181 7010.004753802235
1307.5922114795467 7457.988342596208
1308.4214797760123 7479.1247323417865
1309.2505449332057 7087.763664342255
1310.0794070076026 7111.246805959692
1310.9080660556538 7448.7204126164725
1311.736522133786 7462.57641492539
1312.5647752983987 7247.068575672747
1313.3928256058734 7054.230026706127
1314.2206731125661 7422.757921340427
1315.048317874809 7373.190200235472
1315.8757599489109 7246.958844134942
1316.7029993911547 7362.1870067417185
1317.5300362578055 7594.757428084291
1318.356870605101 7369.560951649965
1319.183502489257 7322.608015030989
1320.0099319664623 7525.671956173317
1320.836159092889 7528.751791659146
1321.66218392468 7589.830694419838
1322.4880065179532 7309.883020369087
1323.3136269288134 7512.463991481954
1324.1390452133292 7564.152305104051
1324.9642614275563 7519.390766552504
1325.7892756275214 7281.069210131667
1326.6140878692295 7176.740654331792
1327.4386982086617 7745.81802044788
1328.2631067017755 7248.1336383300195
1329.0873134045069 7189.175986999983
1329.911318372764 7012.642946123265
1330.735121662441 6988.480728086707
1331.558723329399 6780.148301421177
1332.3821234294774 6652.746421111112
1333.2053220185007 6710.614691844904
1334.0283191522612 6494.556193760232
1334.851114886529 6662.698524508177
1335.6737092770582 6324.224020061922
1336.4961023795695 6294.317841950736
1337.3182942497697 6092.283020887764
1338.1402849433325 6162.3700462994275
1338.962074515921 5939.714697091338
1339.7836630231632 5770.981089286338
1340.6050505206676 6371.608482858388
1341.426237064028 6082.846602012239
1342.2472227088037 5788.492755785579
1343.0680075105338 5574.329349795542
1343.888591524741 5744.737350600243
1344.7089748069138 5851.708653948678
1345.5291574125276 5687.834081806775
1346.3491393970307 5395.6059554329295
1347.168920815846 5660.793095583382
1347.9885017243778 5690.5503117986
1348.8078821780036 5485.880707616563
1349.6270622320844 5574.178643638837
1350.4460419419447 5309.111736592516
1351.2648213629054 5520.216204478833
1352.0834005502438 5121.745382149105
1352.90177955923 5187.521857252866
1353.7199584451064 5371.973060020171
1354.5379372630887 5260.095907123615
1355.355716068374 5255.382487296653
1356.1732949161305 5074.502540271214
1356.9906738615155 5206.141294493033
1357.8078529596478 5173.075084633087
1358.6248322656375 5310.63901541535
1359.441611834567 5002.73860164493
1360.2581917214866 5285.219797824934
1361.0745719814367 5052.088937064973
1361.890752669433 4908.5584839504245
1362.7067338404577 4915.985979185369
1363.5225155494845 5173.989322688097
1364.3380978514506 5281.240686550393
1365.1534808012839 4852.942721470745
1365.9686644538815 4719.030297723817
1366.783648864117 5149.862263754864
1367.5984340868417 5212.881779797194
1368.413020176893 5137.920776426627
1369.2274071890715 4973.471332586866
1370.0415951781652 5111.380644005063
1370.8555841989346 5044.063714606904
1371.6693743061223 4854.114355590149
1372.48296555444 4652.059186158362
1373.2963579985844 5038.637774407977
1374.1095516932255 5020.13024411522
1374.9225466930166 4678.5272747147155
1375.7353430525782 5066.290685270547
1376.5479408265164 4834.365968357706
1377.36034006941 5067.893679762428
1378.1725408358216 5070.898741564921
1378.9845431802805 4770.768838069014
1379.796347157304 5221.9394457056915
1380.6079528213813 5212.20946452681
1381.4193602269788 4957.140493480727
1382.230569428546 4840.562853761972
1383.0415804805016 5210.23267415392
1383.852393437246 5154.275072414102
1384.6630083531563 5098.795407276333
1385.4734252825892 5066.308842651641
1386.2836442798798 5164.34823505892
1387.0936653993322 5121.500823750928
1387.9034886952395 5166.759172614106
1388.713114221864 5192.024976420106
1389.5225420334482 5178.981415688482
1390.331772184214 5101.697092389195
1391.1408047283585 4868.98966870962
1391.9496397200564 5024.34551243028
1392.758277213461 5268.265436801162
1393.5667172627054 5310.9394224875205
1394.3749599218918 5033.290768971887
1395.1830052451114 4908.228013262808
1395.9908532864265 5121.331803193189
1396.7985040998774 5283.173277486878
1397.6059577394808 5000.5542123823
1398.4132142592352 5061.326412681956
1399.2202737131156 5001.559183890735
1400.027136155073 5315.040282968683
1400.8338016390353 5078.7544749648605
1401.6402702189134 5072.501741695568
1402.446541948586 5100.950465628581
1403.2526168819204 4931.8503876474415
1404.058495072757 4994.956638425329
1404.8641765749107 4929.079325323124
1405.6696614421799 5144.716523521344
1406.4749497283356 5578.231605439547
1407.280041487129 4995.684381817428
1408.084936772295 4833.377681279345
1408.8896356375335 5301.880301198637
1409.6941381365323 5181.453872884389
1410.498444322955 4921.190285389607
1411.3025542504402 5106.083661730079
1412.106467972606 5004.5431169094445
1412.9101855430508 5095.669269441009
1413.7137070153458 4808.9011641329025
1414.5170324430437 5098.739256760269
1415.320161879672 5251.392627307208
1416.1230953787435 5487.434458364614
1416.925832993742 4964.9957252850645
1417.7283747781275 4887.640832578947
1418.5307207853439 5150.504659408106
1419.3328710688093 5116.124392837031
1420.134825681922 4874.684100319056
1420.9365846780584 5061.404559779838
1421.7381481105713 5515.566602031631
1422.539516032788 5316.836442496597
1423.3406884980232 5126.847917193348
1424.1416655595604 5202.069599477509
1424.942447270665 5350.505465134533
1425.7430336845828 5571.186149286122
1426.5434248545298 5376.274863626031
1427.3436208337116 5725.796481139778
1428.143621675301 5798.98694294712
1428.9434274324558 6040.309601514657
1429.7430381583108 5721.422065722993
1430.5424539059713 5921.671970529067
1431.3416747285337 6462.373656654088
1432.1407006790632 6166.711628643816
1432.9395318106053 6175.056981851523
1433.7381681761835 5946.596759071541
1434.5366098288014 6335.414529236792
1435.3348568214424 6392.674882184232
1436.1329092070573 6172.214307129839
1436.9307670385879 6255.69075087091
1437.7284303689503 6536.996665979786
1438.5258992510335 6462.2285061996945
1439.3231737377118 6368.221841623623
1440.1202538818306 6323.695082682622
1440.9171397362225 6302.094886983422
1441.7138313536925 6208.330993114097
1442.5103287870243 6056.903068286052
1443.3066320889775 5869.751214989104
1444.1027413122956 6301.491115494502
1444.8986565096966 6034.390026693998
1445.694377733882 6034.447607284192
1446.4899050375207 5764.215699727736
1447.2852384732687 5872.971879519073
1448.0803780937622 5877.677657646679
1448.8753239516063 5555.072635768723
1449.6700760993954 5410.0261626147285
1450.464634589689 5585.81132754492
1451.2589994750397 5867.16866371363
1452.0531708079689 5401.635145898848
1452.8471486409799 5333.452812351853
1453.6409330265524 5695.836255745776
1454.4345240171442 5327.7665195280215
1455.2279216651987 5313.592138474131
1456.0211260231263 5343.400097014468
1456.8141371433194 5344.362468883475
1457.6069550781594 5469.393534199717
1458.3995798799897 5099.461055591713
1459.1920116011424 5219.969322584894
1459.98425029393 5182.105972527579
1460.7762960106338 5169.11489745567
1461.5681488035225 5331.668437711255
1462.3598087248392 5245.216320259163
1463.1512758268036 5451.508742315448
1463.942550161617 5043.703751983388
1464.7336317814625 5038.323630481217
1465.524520738496 5195.17985595119
1466.3152170848552 4939.368410873778
1467.1057208726506 5005.773771607001
1467.8960321539817 4876.286397284259
1468.6861509809169 4793.2716996938225
1469.4760774055085 4777.257648210596
1470.265811479785 4881.0468571783695
1471.055353255755 4639.53692068716
1471.844702785409 4615.195945895181
1472.6338601207044 4570.887326131675
1473.4228253135934 4753.7762304419775
1474.2115984159936 4447.447961662838
1475.0001794798063 4263.277970087061
1475.7885685569145 4628.237147874601
1476.576765699172 4405.04699895235
1477.3647709584238 4434.770124763654
1478.1525843864802 4664.783374339844
1478.9402060351367 4531.771966741306
1479.7276359561693 4506.281260231485
1480.514874201328 4325.863566698468
1481.3019208223468 4201.728019869609
1482.0887758709323 4038.9520218276134
1482.8754393987747 4455.275483733554
1483.6619114575406 4052.937270052488
1484.4481920988783 4254.435935225936
1485.2342813744108 4260.3093027609475
1486.0201793357446 4484.318539738692
1486.8058860344572 4134.3558768327875
1487.591401522117 4237.812774622712
1488.3767258502594 4185.396816771752
1489.1618590704056 4216.699672285398
1489.9468012340494 3808.8775510171554
1490.7315523926754 4320.491737391737
1491.5161125977356 4237.626472329949
1492.3004819006637 4184.936405836144
1493.084660352877 4062.9707838839595
1493.8686480057622 4210.272405492963
1494.6524449106964 4386.32922067763
1495.4360511190262 4419.899115820497
1496.219466682087 4193.115501437092
1497.0026916511779 4288.154580886861
1497.7857260775945 4252.355244933939
1498.5685700125996 4306.243676259083
1499.3512235074395 3978.89482753038
1500.133686613337 4026.1444316922853
1500.9159593814966 4071.7292255592465
1501.698041863101 4617.042102005649
1502.4799341093094 3948.0615603854662
1503.2616361712662 3904.109674446584
1504.043148100087 4193.3145535667745
1504.8244699468742 4187.886634261585
1505.6056017626997 4189.338554172224
1506.3865435986281 3886.0670778005397
1507.1672955056893 4240.565537646743
1507.9478575348967 4040.2750713044124
1508.7282297372512 4279.084634874167
1509.5084121637192 4175.713793904184
1510.2884048652577 4155.492447152598
1511.0682078927948 4024.490333666795
1511.8478212972423 4134.935267014485
1512.6272451294917 4083.555016010213
1513.4064794404076 4304.431599582017
1514.1855242808433 4319.74784252329
1514.9643797016215 4238.7821433130375
1515.743045753552 4374.829682222703
1516.5215224874191 4243.34997935486
1517.2998099539836 4073.6040295182092
1518.077908203999 4368.0876535569505
1518.8558172881785 4159.852118013584
1519.633537257234 4514.522316000412
1520.4110681618404 4310.932455327088
1521.1884100526604 4495.0425714869725
1521.9655629803365 4461.927588261241
1522.7425269954856 4726.057110656662
1523.5193021487103 4948.30281853882
1524.2958884905856 4354.121431719113
1525.0722860716687 4501.438773091914
1525.848494942502 4547.046166339461
1526.624515153595 4496.2380140899195
1527.4003467554485 4606.293249110684
1528.175989798534 4766.274633028036
1528.9514443333064 4568.343832819724
1529.726710410203 4887.266395260825
1530.5017880796331 4537.491087962155
1531.276677391992 4491.716561649501
1532.0513783976457 4812.227225784841
1532.825891146953 4570.6884968990535
1533.6002156902414 4653.016494503421
1534.3743520778207 4519.105173466091
1535.1483003599806 4624.351022966191
1535.9220605869923 4625.900134536718
1536.6956328091019 4622.7007059050575
1537.4690170765407 4453.735588795362
1538.242213439511 4643.771976280257
1539.015221948208 4483.110095831691
1539.78804265279 4257.708512428273
1540.560675603405 4124.535279627237
1541.3331208501804 4603.095316236097
1542.1053784432224 4562.965870136713
1542.8774484326168 4315.713269114004
1543.649330868422 4242.494615318808
1544.4210258006842 4276.412492118068
1545.1925332794308 4246.816327444003
1545.9638533546604 4223.04203253471
1546.7349860763552 4028.879199940383
1547.5059314944829 4462.877517938995
1548.27668965898 4158.92608162631
1549.0472606197673 4235.652050579031
1549.817644426752 4048.3837471855054
1550.5878411298072 4294.706694614082
1551.3578507787988 4109.501091445953
1552.1276734235635 4063.598769914187
1552.8973091139233 4131.5970807216345
1553.6667578996767 4363.637156138209
1554.436019830604 4079.93727000506
1555.20509495646 4012.256061935301
1555.9739833269869 3917.727439535207
1556.7426849919011 3952.482422243744
1557.511200000903 4305.4230380448735
1558.2795284036674 4087.8012684456976
1559.0476702498509 3985.7360569986545
1559.8156255890954 4188.613444644444
1560.5833944710157 4509.939894944936
1561.3509769452048 4074.928143642415
1562.1183730612447 4130.326174796055
1562.8855828686865 4166.464215913708
1563.6526064170703 4446.8987212241755
1564.4194437559127 4397.313701012513
1565.1860949347047 3985.283426629
1565.9525600029283 4424.607676442125
1566.7188390100328 4463.774859271607
1567.4849320054564 4160.965622292971
1568.250839038612 4122.585855780451
1569.0165601588997 4156.983340292039
1569.7820954156887 4345.8574236251825
1570.5474448583373 4162.233946891962
1571.31260853618 4187.741445412344
1572.0775864985299 4088.451484774975
1572.8423787946813 4314.157764065358
1573.6069854739108 4169.339500942786
1574.371406585471 4305.727586734337
1575.1356421785986 4446.01050709888
1575.899692302506 4245.289959058967
1576.6635570063845 4278.734602119682
1577.4272363394157 4277.667059730135
1578.190730350747 4257.397695121132
1578.9540390895163 4467.664444210487
1579.7171626048384 3963.731418022372
1580.480100945806 4048.029142777261
1581.2428541614918 4274.796467921106
1582.0054223009538 4324.006246474751
1582.767805413223 4223.872577184976
1583.5300035473156 4193.024080114242
1584.292016752228 4385.398847983425
1585.0538450769309 4401.786534180868
1585.8154885703807 4029.904564156116
1586.5769472815136 3975.930758191463
1587.3382212592405 4259.507456401863
1588.099310552463 4327.101070126503
1588.8602152100484 4266.887017130879
1589.6209352808564 4174.446750693926
1590.3814708137234 4082.5790970931403
1591.14182185746 4075.4040079299098
1591.9019884608679 4047.7946424772135
1592.6619706727215 3855.512381753701
1593.4217685417734 4028.594206164963
1594.1813821167616 4368.63061390804
1594.9408114464022 3855.4765511238047
1595.7000565793933 3968.716738202153
1596.459117564409 4078.8019256746584
1597.2179944501113 3809.735042317072
1597.9766872851324 3899.523191729001
1598.735196118092 4121.948830107218
1599.4935209975883 4033.6659660468877
1600.2516619721973 4143.646543654552
1601.0096190904787 3959.4692713840464
1601.7673924009723 3870.002580679884
1602.524981952196 3793.6488016000185
1603.2823877926476 3907.917115586445
1604.0396099708087 3782.548438455565
1604.7966485351371 3616.810752186557
1605.5535035340745 3829.9242092072936
1606.3101750160404 4062.509027091033
1607.0666630294363 3745.3477957331224
1607.822967622642 3555.251135229007
1608.5790888440224 3799.8030895277234
1609.3350267419137 3956.2070692587004
1610.0907813646445 3800.8632765609304
1610.8463527605145 3767.5959682070825
1611.601740977805 3856.6110385403895
1612.356946064785 3759.428757890969
1613.1119680696902 3429.762221707909
1613.8668070407512 3742.425787736768
1614.6214630261748 3619.724020093677
1615.375936074137 3903.9112635689517
1616.1302262328118 3775.1100945388
1616.8843335503425 3846.0373243036875
1617.638258074854 3604.828732840711
1618.391999854457 3803.0581142782503
1619.1455589372363 3850.3644604410692
1619.8989353712623 3806.5524475784814
1620.65212920458 3441.9251061265086
1621.4051404852235 3607.7983370655284
1622.1579692611976 3808.032204176622
1622.9106155804966 3460.3943284356806
1623.663079491087 3575.466600687738
1624.4153610409248 3832.6280286777546
1625.1674602779385 3576.020900052071
1625.9193772500403 3516.090559909335
1626.6711120051277 3921.858514494945
1627.4226645910676 3696.786258350675
1628.174035055721 3480.4146025431983
1628.9252234469168 3787.4667681159626
1629.676229812474 3548.639780684972
1630.4270542001905 3897.235145210752
1631.1776966578382 3678.7059061762
1631.9281572331747 3683.6748966643872
1632.678435973945 3837.1077725753507
1633.4285329278573 3680.0070477678573
1634.1784481426203 3432.894961610122
1634.9281816659113 3616.0458450208416
1635.677733545388 3906.4985912521925
1636.4271038286934 3644.633298268581
1637.176292563452 3763.5209761522324
1637.9252997972635 3646.9738503005747
1638.674125577716 3840.3419775814355
1639.4227699523672 4114.445867583925
1640.171232968767 3414.642328421685
1640.9195146744423 3760.5007717089597
1641.6676151168977 3818.5452874417715
1642.4155343436178 3930.1153475008286
1643.1632724020765 3639.7165999517297
1643.9108293397167 3582.5630478260564
1644.658205203974 3569.020834327108
1645.4054000422566 3566.456580026674
1646.1524139019566 3563.5921566322104
1646.8992468304423 3386.30259982754
1647.6458988750728 3484.9131012343096
1648.3923700831765 3549.8383448657355
1649.1386605020743 3490.6726332683807
1649.8847701790564 3825.0179602736753
1650.6306991614038 3727.8379489843246
1651.3764474963682 3729.843681983374
1652.1220152311944 3331.776237177159
1652.867402413096 3602.9772248481145
1653.6126090892776 3541.035696087426
1654.3576353069184 3766.632382340277
1655.1024811131829 3656.9472412798896
1655.8471465552066 3678.711530783791
1656.5916316801213 3713.24311724768
1657.3359365350298 3690.193352936646
1658.0800611670165 3550.0469801096356
1658.824005623148 3522.373077333809
1659.5677699504722 3396.793505440387
1660.3113541960192 3627.817179566304
1661.054758406799 3538.6680557144973
1661.7979826297997 3316.343681096789
1662.5410269119966 3429.75098136241
1663.283891300338 3815.2963970909914
1664.0265758417645 3357.7214869231225
1664.7690805831826 3560.748654680506
1665.5114055714948 3675.618637925152
1666.2535508535748 3971.679955327764
1666.9955164762814 3216.5818752166315
1667.7373024864555 3516.45984981226
1668.478908930916 3514.928686972236
1669.220335856462 3366.84539606222
1669.9615833098778 3372.601566968039
1670.7026513379296 3410.2843626450385
1671.44353998736 3530.5795111412563
1672.1842493048916 3573.5645896778924
1672.9247793372379 3347.507088418219
1673.6651301310812 3603.4885110853493
1674.4053017330934 3454.7979753174404
1675.1452941899242 3487.5519946711947
1675.885107548207 3058.4247135549117
1676.6247418545518 3184.0295484184717
1677.3641971555535 3313.3684468176702
1678.1034734977893 3517.352806403421
1678.8425709278108 3304.2676645665474
1679.5814894921605 3606.5359241007454
1680.320229237359 3529.336105950619
1681.0587902098978 3606.5597859019135
1681.7971724562685 3315.0946520313323
1682.5353760229264 3271.7616827855345
1683.2734009563173 3554.9520054532004
1684.0112473028657 3226.746312934115
1684.7489151089794 3500.227049706608
1685.4864044210462 3558.177416990629
1686.2237152854377 3057.603241944499
1686.960847748498 3575.014852039075
1687.6978018565642 3243.4571822229577
1688.434577655944 3269.466246742944
1689.1711751929379 3120.1180322071673
1689.9075945138156 3425.7272796977973
1690.6438356648396 3263.934590646368
1691.3798986922448 2978.125701075313
1692.1157836422499 3308.9427594246818
1692.851490561059 3270.7417429053517
1693.587019494853 3241.700913347412
1694.3223704897991 2955.615327123771
1695.0575435920364 2913.492601535235
1695.792538847696 3501.363688684795
1696.527356302886 3153.112499612166
1697.2619960036936 2945.5588904871875
1697.9964579961907 2962.3503589368956
1698.730742326432 2748.0201703657453
1699.4648490404488 2946.4008785158608
1700.1987781842563 3115.0274964424552
1700.9325298038548 3297.8371785558434
1701.6661039452174 3286.5983374337475
1702.3995006543082 3163.186197606414
1703.1327199770658 3351.0673820682123
1703.865761959416 2897.9040891297022
1704.598626647261 3336.931105218122
1705.3313140864866 2986.4211567890025
1706.0638243229587 2999.304618657844
1706.7961574025303 3234.1730014111145
1707.528313371029 2994.2244224680812
1708.260292274268 2798.7975477335485
1708.9920941580403 3004.9285030182405
1709.7237190681226 3060.268164870119
1710.4551670502697 3037.0257031615542
1711.18643815022 2733.7088573334267
1711.9175324136959 2881.564202000424
1712.6484498863938 3029.652554274932
1713.379190614005 2768.24789094574
1714.109754642188 2997.3540785087453
1714.8401420165883 2805.8200563905402
1715.570352782839 3130.1709000617457
1716.3003869865497 3014.6533255382137
1717.0302446733076 2738.0861890717765
1717.7599258886876 2940.3713546480258
1718.4894306782444 3269.0664191627125
1719.2187590875183 2708.7617402638566
1719.9479111620203 3195.443595178621
1720.6768869472544 2780.69988683683
1721.4056864887025 3164.955820279293
1722.1343098318284 3274.1119034011026
1722.8627570220742 2936.429791969724
1723.591028104871 2767.0426954703394
1724.3191231256242 2646.1194071459063
1725.0470421297232 2888.7792617846635
1725.7747851625427 3026.246633357825
1726.5023522694337 3034.148186295392
1727.2297434957363 3034.308412612155
1727.9569588867635 2644.655873841767
1728.6839984878152 3157.238914155786
1729.4108623441734 3093.313134480186
1730.1375505011038 3029.6109617002667
1730.8640630038426 2687.416826849192
1731.5903998976264 2746.5975364903356
1732.316561227657 2921.31881523593
1733.0425470391274 2684.4053396457402
1733.7683573772065 2858.35485089592
1734.4939922870508 2797.9880305119514
1735.2194518137949 2874.306811330297
1735.9447360025606 2876.7803746741015
1736.669844898439 2808.915951694253
1737.3947785465189 2665.1563542335957
1738.1195369918605 2587.3352263418883
1738.8441202795093 2747.6374103223425
1739.5685284544943 2842.1912790115207
1740.292761561821 2929.04570863722
1741.0168196464838 3016.637071162177
1741.7407027534518 2930.3175466609296
1742.464410927687 2800.9701530785383
1743.187944214118 2772.0544087276703
1743.9113026576688 2747.08691902581
1744.634486303241 2725.3356165567743
1745.3574951957125 2807.5570900403636
1746.0803293799509 2887.0259151439022
1746.8029889008048 2921.340898612644
1747.5254738031017 2893.36703763787
1748.2477841316504 2664.6786078970863
1748.969919931249 2749.26784245442
1749.6918812466665 2750.476767930574
1750.4136681226646 2967.7244206029527
1751.1352806039777 2849.070046753458
1751.856718735331 2508.3509007154457
1752.5779825614281 2531.2823042394407
1753.2990721269507 3060.57723392668
1754.0199874765676 2908.3641699189625
1754.7407286549314 2507.136821694803
1755.4612957066693 2727.496578901599
1756.1816886763954 2582.5702674288673
1756.9019076087097 2799.766005218763
1757.6219525481865 2817.5136889993896
1758.3418235393856 2751.201827453109
1759.061520626854 2757.3959593998106
1759.7810438551096 2920.1172351196305
1760.5003932686614 2638.449632184687
1761.2195689119999 2914.912694461701
1761.938570829594 2867.692447504258
1762.657399065898 2771.9197066657184
1763.376053665348 2640.090357506561
1764.0945346723602 2526.378096738437
1764.812842131334 2925.6143850921717
1765.5309760866512 2524.167302777055
1766.2489365826787 2560.333355895788
1766.9667236637597 2731.578095525348
1767.684337374223 2324.496896687723
1768.401777758383 2567.198084859115
1769.1190448605284 2529.608175918648
1769.836138724937 2442.1094970526583
1770.5530593958665 2744.6507106323706
1771.2698069175603 3005.006931451763
1771.9863813342326 2856.552821969818
1772.702782690094 2488.024474148931
1773.4190110293293 2866.471762934802
1774.1350663961111 2814.1020123630656
1774.8509488345844 2616.175185558778
1775.5666583888924 2770.6672270681333
1776.2821951031437 2928.4387022813416
1776.9975590214362 2658.5774630840483
1777.7127501878585 2822.8623105670163
1778.4277686464684 2708.0233345502033
1779.1426144413108 2881.665600521032
1779.8572876164162 2891.3527591508314
1780.571788215797 2380.217673310689
1781.2861162834415 2765.027840776319
1782.0002718633277 2547.3794483394718
1782.7142549994132 2716.578692744193
1783.4280657356376 2719.9837172814073
1784.141704115922 2508.6526014597052
1784.855170184177 2592.265564579545
1785.5684639842839 2649.177570112136
1786.2815855601148 2271.072590526744
1786.9945349555237 2800.232039457217
1787.707312214343 2445.245630495073
1788.4199173803918 2423.3387609194333
1789.132350497468 2401.6048698075365
1789.8446116093583 2496.5559092275953
1790.556700759822 2554.495366186518
1791.2686179926077 2645.212855032594
1791.9803633514493 2468.9875657081207
1792.6919368800554 2392.645823497348
1793.4033386221236 2795.3245034980127
1794.1145686213295 2772.180170068549
1794.8256269213307 2896.2064524435073
1795.536513565774 2583.1018016226385
1796.247228598284 2239.815870213287
1796.9577720624693 2506.418636979022
1797.6681440019165 2674.947846638807
1798.3783444602013 2538.628271442247
1799.0883734808776 2733.677523490494
1799.7982311074884 2750.1453110630673
1800.5079173835475 2632.062209645631
1801.2174323525633 2738.09217989924
1801.9267760580187 2646.746826058915
1802.635948543386 2638.614579651705
1803.3449498521113 2456.725367132625
1804.0537800276325 2707.3106511887095
1804.7624391133668 2647.711385291445
1805.47092715271 2307.2116662150343
1806.1792441890484 2340.218158513022
1806.8873902657433 2754.938730418621
1807.5953654261448 2658.0894196387126
1808.3031697135812 2495.5101836562217
1809.0108031713662 2556.32541951766
1809.71826584279 2663.758130474245
1810.425557771141 2545.633980834418
1811.1326789996747 2524.683053877473
1811.839629571632 2503.5696407406463
1812.5464095302468 2484.801611239111
1813.2530189187182 2603.556808094658
1813.959457780249 2443.5877912867054
1814.6657261580076 2786.087726210953
1815.371824095153 2547.527672513292
1816.0777516348262 2699.0689828379136
1816.78350882015 2193.6906934884914
1817.4890956942272 2257.5377111645503
1818.1945123001533 2555.8622396017317
1818.8997586809928 2589.109173039961
1819.6048348798067 2497.5599104218554
1820.3097409396287 2529.095212522565
1821.0144769034796 2921.2313984796415
1821.7190428143622 2711.101775948845
1822.423438715261 2710.500104236469
1823.1276646491478 2440.1857546611263
1823.8317206589727 2535.8151578190564
1824.5356067876692 2565.0245313907712
1825.2393230781581 2574.0154681069243
1825.942869573335 2277.0057448608322
1826.646246316086 2407.812157790667
1827.3494533492758 2617.7431460359335
1828.052490715756 2600.708458046681
1828.7553584583547 2513.8946056858886
1829.458056619891 2612.2596853751033
1830.1605852431585 2463.267141642772
1830.8629443709433 2312.5913557694385
1831.5651340460063 2569.708670160849
1832.2671543110919 2382.1150256709375
1832.9690052089318 2690.4061023910517
1833.6706867822395 2308.9140575338815
1834.3721990737104 2615.4361752077943
1835.0735421260233 2626.0928490783053
1835.774715981841 2478.1549746553087
1836.4757206838058 2798.911638122757
1837.1765562745459 2426.4280669371283
1837.8772227966747 2388.3143339121916
1838.5777202927839 2514.2745695714575
1839.2780488054523 2308.435887356906
1839.9782083772352 2481.948894206442
1840.6781990506806 2772.2388762337096
1841.378020868313 2478.767567025797
1842.0776738726418 2582.4366353194505
1842.777158106157 2467.9793025529
1843.4764736113375 2300.195845642037
1844.1756204306403 2585.374125620222
1844.8745986065078 2607.368779125503
1845.5734081813607 2330.3619400398343
1846.2720491976124 2395.4406329948556
1846.970521697649 2373.2810245925048
1847.6688257238511 2502.888114462637
1848.3669613185684 2435.9524181517377
1849.0649285241452 2172.3129771056183
1849.7627273829057 2627.613544335062
1850.460357937156 2502.554103572529
1851.1578202291857 2172.19738200673
1851.8551143012664 2451.3202891305073
1852.5522401956569 2483.738326416587
1853.2491979545957 2711.269781021111
1853.9459876203055 2277.088675392445
1854.6426092349902 2231.578513447424
1855.3390628408451 2397.550335740673
1856.0353484800362 2732.1981261416413
1856.7314661947203 2578.8248385997404
1857.4274160270397 2166.081704358782
1858.123198019115 2441.920919210535
1858.8188122130487 2282.887148887616
1859.5142586509319 2417.196092012026
1860.209537374838 2422.546916727539
1860.9046484268183 2459.1062800230134
1861.599591848917 2669.3110137034287
1862.294367683151 2403.7244684313955
1862.988975971528 2351.5709423386006
1863.6834167560355 2472.4447213860212
1864.3776900786452 2672.6971212073645
1865.0717959813119 2282.532039494409
1865.7657345059724 2240.58415130148
1866.4595056945564 2464.746968419179
1867.1531095889586 2591.5386412212674
1867.846546231076 2217.874192394446
1868.5398156627743 2605.476420845045
1869.2329179259123 2301.329021781192
1869.9258530623283 2744.018849933419
1870.618621113843 2325.4170595569203
1871.3112221222636 2171.9672999531504
1872.0036561293764 2487.2128136198667
1872.695923176956 2443.392366494998
1873.3880233067594 2658.96814873686
1874.0799565605212 2245.4797053936613
1874.7717229799673 2347.636124615232
1875.4633226068036 2623.68132057198
1876.1547554827175 2541.9786940143035
1876.8460216493859 2236.7368001946998
1877.5371211484617 2427.6935203155085
1878.2280540215852 2640.1694518142535
1878.9188203103804 2327.1256470301455
1879.6094200564548 2439.6871293527975
1880.299853301396 2318.329028580646
1880.9901200867826 2649.2607663088174
1881.6802204541673 2531.3696633208847
1882.3701544450942 2455.026576641409
1883.059922101087 2239.817545945295
1883.7495234636517 2624.9051467498557
1884.4389585742792 2262.5085450629877
1885.1282274744517 2252.443248661207
1885.8173302056166 2333.2982813241547
1886.506266809225 2414.264890338251
1887.195037326701 2165.019081605868
1887.8836417994517 2261.23716070954
1888.5720802688702 2672.3696120754116
1889.260352776333 2634.098058340387
1889.9484593632042 2625.381254968338
1890.63640007082 2324.556460224829
1891.3241749405151 2230.4745671966934
1892.0117840135954 2434.2870050959414
1892.6992273313572 2308.7463762572934
1893.3865049350788 2278.2888003615885
1894.0736168660223 2796.6486591830026
1894.7605631654333 2401.6653848548676
1895.4473438745408 2153.7741871617936
1896.133959034556 2724.2712492362125
1896.820408686679 2457.9706676179626
1897.506692872088 2665.2927564014417
1898.192811631945 2358.7525281494845
1898.8787650073991 2275.1610343603897
1899.5645530395832 2613.9550816900437
1900.2501757696118 2626.575200599492
1900.9356332385796 2688.7641921523514
1901.620925487574 2751.2612818226053
1902.3060525576602 2494.2357894691295
1902.9910144898859 2530.2677802230637
1903.6758113252872 2247.3971782068293
1904.3604431048789 2327.179248256538
1905.0449098696663 2553.8898872561613
1905.7292116606295 2302.2253357438317
1906.4133485187394 2477.364632318282
1907.0973204849488 2046.7412408972657
1907.7811276001976 2200.8466954965525
1908.4647699053967 2392.761542111103
1909.1482474414588 2324.5344614348833
1909.8315602492694 2256.0616115464477
1910.5147083696957 2530.9324851648203
1911.1976918436012 2308.700931717782
1911.880510711815 2283.835728900401
1912.5631650151681 2615.2218119962686
1913.2456547944657 2315.7562892077535
1913.927980090495 2239.9274925437803
1914.6101409440362 2321.802738004616
1915.2921373958416 2536.8046290095303
1915.9739694866603 2301.1500366912474
1916.655637257214 2646.9426186896794
1917.3371407482136 2351.8341987240956
1918.0184800003572 2680.583980706884
1918.6996550543154 2552.7557872532952
1919.3806659507554 2291.0627052896502
1920.0615127303208 2415.0316254169297
1920.7421954336423 2656.0493098627003
1921.4227141013343 2660.2819988834044
1922.103068773993 2390.2058581264105
1922.783259492202 2644.5196270240076
1923.4632862965227 2364.022004328517
1924.1431492275078 2276.0907302750948
1924.8228483256917 2236.626000641326
1925.5023836315922 2339.911395264983
1926.1817551857057 2492.914240285821
1926.8609630285227 2646.2590782964007
1927.5400072005123 2410.1078260191166
1928.218887742125 2285.0251348437996
1928.8976046938005 2250.708750038558
1929.5761580959588 2534.3368224297496
1930.2545479890086 2279.001136885384
1930.9327744133352 1985.610175141867
1931.6108374093164 2346.4340036617923
1932.2887370173066 2655.3624436159303
1932.9664732776473 2119.0030772119226
1933.6440462306673 2296.0604031349594
1934.3214559166754 2204.989024518291
1934.9987023759659 2738.1311675452116
1935.675785648813 2482.405722051174
1936.3527057754836 1990.0531605541055
1937.029462796223 2050.0456781043717
1937.70605675126 2110.2143479608712
1938.3824876808085 2148.690062977842
1939.058755625072 2290.1461216844423
1939.7348606242267 2189.800990236363
1940.4108027184448 2427.1280041974587
1941.0865819478713 2450.9486609342634
1941.7621983526478 2286.3441698056977
1942.4376519728921 2152.94580667674
1943.1129428487038 2351.927517788266
1943.7880710201734 2561.857663777687
1944.4630365273733 2526.172510467201
1945.1378394103576 2074.7712543015236
1945.8124797091714 2038.3489137329811
1946.4869574638324 2001.7829747929984
1947.161272714353 2156.1091458148994
1947.8354255007234 2465.173401334991
1948.5094158629272 2184.214935388519
1949.1832438409183 2458.01260431205
1949.8569094746435 2505.723116691429
1950.530412804037 2660.1152996227356
1951.2037538690092 2508.259989233288
1951.8769327094578 2200.7676862250396
1952.5499493652678 2294.9549173696623
1953.222803876306 2550.6311315011744
1953.895496282421 2432.884318371199
1954.5680266234522 2366.4511662415675
1955.2403949392155 2426.515302484695
1955.9126012695142 2068.2324614651793
1956.5846456541403 2360.331869898461
1957.2565281328643 2388.223358480941
1957.9282487454457 2529.5694815944007
1958.5998075316202 2514.771520056323
1959.27120453112 2308.261410196533
1959.9424397836501 2294.428406210444
1960.613513328908 2486.4277104105067
1961.2844252065697 2469.785103622626
1961.9551754563017 2041.7299348299014
1962.6257641177453 2163.074979478537
1963.29619123054 2150.791691698063
1963.966456834296 2071.4921244520433
1964.6365609686181 2081.583034744785
1965.306503673086 2372.2833503964657
1965.976284987275 2171.557018456309
1966.645904950734 2281.098616855138
1967.315363603002 2002.0660378449677
1967.9846609836077 2249.5979031958664
1968.6537971320486 2130.020299689085
1969.3227720878222 2432.881035545317
1969.9915858904042 2331.911137905049
1970.660238579252 2417.664891481363
1971.3287301938108 2362.2814592219743
1971.997060773514 2206.203272932162
1972.665230357772 2160.0602129754525
1973.3332389859843 2098.2586268730015
1974.0010866975335 2029.6113341135901
1974.6687735317864 2292.256852406294
1975.3362995280932 2389.5595333718816
1976.003664725793 2341.8529680627616
1976.6708691642052 2062.217756507562
1977.3379128826364 2197.9477624346664
1978.004795920373 2442.2355379323994
1978.6715183166925 2607.0152575603074
1979.3380801108524 2008.4267068700651
1980.0044813420973 2177.190525663723
1980.6707220496555 1830.2988611315127
1981.3368022727373 2181.213328649157
1982.0027220505417 2300.946308497906
1982.66848142225 1788.7527057803964
1983.3340804270283 2058.85777121706
1983.999519104027 2305.5136239168023
1984.6647974923835 2324.9085246454406
1985.329915631215 2357.375668753457
1985.99487355963 2164.612974628569
1986.6596713167146 2397.090369876713
1987.3243089415428 2169.560010864003
1987.9887864731754 2492.0224008227588
1988.6531039506553 2058.246611134048
1989.3172614130071 2040.8182156233124
1989.9812588992481 2023.3918496397896
1990.645096448372 1836.0130081536124
1991.3087740993633 2234.603195659856
1991.9722918911848 2113.0146540017913
1992.635649862792 2167.738222978713
1993.2988480531185 2312.9804054345936
1993.9618865010852 2242.5942623110345
1994.6247652455968 2172.1652447432057
1995.287484325545 2142.9510372708387
1995.9500437798033 2119.8950475613206
1996.6124436472292 2140.770436933873
1997.2746839666706 2400.9292508432673
1997.936764776954 2154.1317855734424
1998.598686116895 2081.9242069406982
1999.2604480252903 2500.872412676682
1999.9220505409212 2438.0006242067907
2000.5834937025593 2024.2599739477707
2001.2447775489582 2184.820445065381
2001.9059021188514 2254.86905491178
2002.5668674509616 1968.109439678668
2003.2276735839987 2256.4760401046206
2003.8883205566508 2530.6738014527623
2004.5488084075987 2069.4889081194433
2005.2091371755014 2221.8677530677714
2005.8693068990033 1982.3987033603837
2006.5293176167397 2051.3077569671123
2007.1891693673224 2120.5193995388017
2007.848862189354 2023.0138405275604
2008.5083961214223 2093.739951689382
2009.1677712020955 1988.0050629890943
2009.8269874699254 2123.6835669971197
2010.4860449634598 2074.2799010067474
2011.1449437212177 2024.86901048988
2011.8036837817108 2488.659747387771
2012.4622651834325 2266.160832975612
2013.1206879648653 2317.7668929274037
2013.7789521644736 2428.383442497442
2014.4370578207036 1862.1573274880714
2015.0950049719922 2156.7045862621794
2015.7527936567585 2446.811425208994
2016.4104239134067 2202.171026305596
2017.067895780323 2739.4951134116654
2017.725209295886 2605.6345520231816
2018.3823644984514 2471.337785838091
2019.0393614263648 2226.1601163444684
2019.6962001179545 2066.4387677486334
2020.3528806115355 2505.8945063190613
2021.0094029454067 2250.142600124576
2021.6657671578487 1877.3229611668369
2022.321973287133 2303.481976498426
2022.9780213715148 2048.72946315416
2023.6339114492293 2182.704035995285
2024.2896435585026 2171.113658535687
2024.9452177375442 2213.4025448240145
2025.600634024544 2518.938237154722
2026.2558924576842 2237.1030404569674
2026.9109930751292 2513.5215172938106
2027.565935915025 2129.9703645151208
2028.2207210155066 2525.424642234467
2028.8753484146964 2499.255645369343
2029.529818150695 2423.8953217452263
2030.1841302615903 2348.1343350601232
2030.8382847854573 2010.8679527977843
2031.4922817603601 2311.2284592515634
2032.1461212243357 2125.816188121062
2032.7998032154192 1944.0650977570779
2033.4533277716218 2123.9129046826356
2034.1066949309443 1952.286887984889
2034.7599047313688 2047.396619578914
2035.4129572108704 2391.2493235769634
2036.0658524074006 2171.6853779168164
2036.7185903589016 2263.7252783624826
2037.3711711032956 2299.757551717739
2038.023594678496 2247.703599749113
2038.675861122394 2006.797255562129
2039.3279704728757 1983.54436837953
2039.9799227678031 1960.4209787984444
2040.6317180450278 2107.0544210339135
2041.2833563423865 2111.983950383067
2041.9348376977014 2615.035101129616
2042.5861621487784 2307.6696241675427
2043.2373297334088 2173.274603663233
2043.8883404893695 2245.9218314300274
2044.5391944544208 2376.579686414708
2045.1898916663158 2386.5118452206643
2045.8404321627804 2547.2639601609326
2046.4908159815368 1988.1627034632415
2047.1410431602853 2121.5857333918248
2047.7911137367173 1990.5006009150559
2048.441027748504 1982.5294384945487
2049.090785233302 1974.4766467978866
2049.7403862287592 2073.0117605106825
2050.389830772503 1979.6289873163864
2051.0391189021466 1886.2142049930503
2051.688250655294 2270.539723648843
2052.337226069527 2035.6994715854958
2052.986045182417 2245.3095053381403
2053.634708031521 2308.974426043171
2054.283214654375 2372.896399661072
2054.931565088511 1939.4348740243918
2055.579759371436 1961.4549933214275
2056.2277975406523 2142.7794848302756
2056.8756796336384 2010.3241367256712
2057.5234056878617 1877.432708617024
2058.1709757407752 2050.415076247459
2058.8183898298194 2486.0231735724237
2059.465647992416 2295.099169991321
2060.1127502659747 2392.8595912914925
2060.759696687888 2008.9639636907534
2061.4064872955405 2272.116018469772
2062.053122126292 2414.1467216087117
2062.699601217497 2256.5076684071573
2063.345924606485 2098.936847611433
2063.992092330587 2207.4110623384986
2064.638104427102 2082.282630953753
2065.283960933324 2119.4561360280795
2065.92966188653 2156.6897189199335
2066.5752073239855 2470.0841419231488
2067.2205972829397 1944.8420375644655
2067.86583180062 2235.7016754251435
2068.5109109142522 2301.5697354072518
2069.15583466104 2146.6918919120626
2069.8006030781708 1975.728474060156
2070.445216202821 2148.6829340907666
2071.089674072153 2340.015128641196
2071.7339767233116 2237.3019694528093
2072.3781241934303 2198.403902065832
2073.0221165196253 2375.252520738043
2073.6659537390024 2166.344766321343
2074.3096358886505 2256.6816371052305
2074.953163005637 2013.345784955252
2075.596535127028 1832.6902555187626
2076.2397522898664 1926.594770741427
2076.882814531182 2140.9106470712245
2077.5257218879924 2407.080854471339
2078.1684743973 1970.4462013435345
2078.8110720960885 1910.8384376421654
2079.453515021336 2073.909698175582
2080.095803209997 2237.1138118042973
2080.7379366990135 2250.9637226566424
2081.37991552532 2264.7695327918505
2082.0217397258275 2270.5045474691824
2082.6634093374414 1952.716872035963
2083.3049243970418 2170.3913677883143
2083.9462849415067 2163.6715715119467
2084.587491007689 2259.7861998681337
2085.2285426324324 2174.958989529895
2085.869439852564 2127.094461814532
2086.510182704902 1947.374660282431
2087.1507712262483 2218.771534545644
2087.791205453381 1848.7950183153473
2088.4314854230743 2293.244277516658
2089.0716111720867 2134.988059970669
2089.7115827371617 1769.7684304960362
2090.351400155023 1832.9009675522752
2090.991063462385 1896.2388808592473
2091.6305726959527 1853.8302314812286
2092.2699278924047 1936.7462151036966
2092.9091290884153 2019.9101655564937
2093.548176320641 1800.1368962590532
2094.187069625721 1781.6439082168665
2094.8258090402887 1763.1097039933236
2095.464394600951 2188.179765445116
2096.102826344313 2147.177578022842
2096.741104306955 1958.0856993969187
2097.379228525453 1768.5770067895724
2098.017199036358 1809.3961955253653
2098.6550158762147 2032.383139000852
2099.2926790815527 2255.8387124338255
2099.9301886888825 2066.9194821899728
2100.5675447347076 2145.980294134878
2101.2047472555114 2063.6211160964094
2101.841796287761 1981.0909879381325
2102.47869186792 2284.507326906213
2103.1154340324265 2022.1639758687998
2103.752022817709 2076.674098746307
2104.388458260184 2101.565592707485
2105.024740396251 2056.241258043905
2105.660869262292 2069.288028075015
2106.296844894685 2287.788951486517
2106.93266732978 2188.842955698302
2107.5683366039284 1954.4627882245015
2108.2038527534532 2234.877705535673
2108.8392158146726 2260.450257831381
2109.4744258238843 1896.8738261274161
2110.1094828173755 2108.6096613184277
2110.744386831422 2416.081928680062
2111.3791379022787 2245.580619991688
2112.01373606619 2299.28005511784
2112.648181359389 2261.2058149581917
2113.28247381809 2195.136431899563
2113.916613478492 2199.1335804233595
2114.550600376786 2284.358436125896
2115.1844345491445 2081.6341187134767
2115.818116031729 2001.2052782466446
2116.451644860679 2149.449784839523
2117.085021072133 1873.6293177084221
2117.718244702204 2002.307242279483
2118.3513157869984 2013.870310098068
2118.984234362604 1853.0014489414182
2119.617000465092 2053.915181531508
2120.249614130529 2084.9172866338745
2120.8820753949585 2115.971935330351
2121.5143842944162 1943.5766410798155
2122.14654086492 2001.7706290370606
2122.7785451424734 2250.7081162220634
2123.4103971630702 2181.85813332434
2124.042096962681 2113.0880970266307
2124.6736445772767 2405.6353957168185
2125.305040042802 1975.500838926159
2125.936283395191 2091.9437786862004
2126.567374670365 2087.257182986157
2127.198313904233 2060.055505928962
2127.8291011326855 1931.4087499120483
2128.4597363916037 1802.263321401117
2129.0902197168507 2015.197102638716
2129.720551144279 2196.5677658901577
2130.3507307097225 2378.0435059392394
2130.980758449008 2438.1286981215867
2131.6106343979427 1910.978649005648
2132.2403585923203 2281.215627219078
2132.8699310679276 2400.9146587398036
2133.499351860526 2176.0864415769984
2134.1286210058715 2118.432747629733
2134.7577385397053 2257.625029097072
2135.3867044977487 2397.0713919887926
2136.0155189157176 2436.1003694632946
2136.644181829308 2425.254092476359
2137.2726932742025 1987.2375719262186
2137.901053286074 2360.0452467624254
2138.5292619005777 1886.3400108759438
2139.1573191533535 1857.845630421042
2139.7852250800315 2303.378006688384
2140.4129797162295 2032.3958320033757
2141.0405830975433 1754.6437457224645
2141.6680352595613 1796.6627549034595
2142.2953362378576 1838.7827158322852
2142.9224860679915 1980.8077718491481
2143.549484785508 2091.5019728467632
2144.1763324259373 1909.9904229319072
2144.803029024799 2038.4990250792357
2145.429574617594 1987.0628151284523
2146.0559692398165 2149.9003956001893
2146.682212926942 2025.7599960177624
2147.308305714432 2057.6183920533076
2147.9342476377333 2256.0004390609615
2148.5600387322847 2398.5698675012586
2149.185679033506 2093.1544188523685
2149.8111685768017 1958.215458516196
2150.4365073975678 1818.1599949838019
2151.061695531187 2064.769434329404
2151.686733013021 2448.7153013269563
2152.311619878423 2072.7213574938182
2152.9363561627342 2009.59983641277
2153.560941901278 1787.3792980837152
2154.1853771293663 2139.164342800441
2154.809661882293 2135.741067318134
2155.433796195348 2419.744146148478
2156.0577801037944 1786.1917442886559
2156.681613642895 2389.97701961045
2157.3052968478896 1855.825723648243
2157.928829754006 2214.201762565396
2158.552212396462 2171.323118589192
2159.1754448104566 2171.0588715621557
2159.7985270311783 1937.783742817074
2160.4214590938027 1425.9087294094047
2161.0442410334927 1632.1814942583328
2161.6668728853874 1697.5040196450118
2162.289354684628 1763.0176578557616
2162.911686466332 2047.9785992917816
2163.533868265602 2197.444712125023
2164.1559001175337 2397.6406156730704
2164.7777820572046 2288.0466542398294
2165.399514119681 2066.5546982384776
2166.021096340013 1804.4190692721986
2166.6425287532384 1790.902094050284
2167.263811394385 1777.4659556982765
2167.8849442984574 2283.221174503594
2168.505927500455 1949.1881405371241
2169.126761035366 2065.0039033766207
2169.7474449381552 1781.3442736470347
2170.367979243778 1610.9465800163548
2170.9883639871823 2322.17506402856
2171.608599203293 1872.6094732692102
2172.2286849270276 2574.308529537123
2172.8486211932886 2407.9810404544937
2173.4684080369625 2146.254088662803
2174.0880454929265 1604.092958137997
2174.7075335960417 1726.2947967315645
2175.3268723811543 1811.770639407097
2175.9460618831 1897.4876869999994
2176.565102136701 2044.4603237970873
2177.1839931767627 2014.6150598586871
2177.802735038078 1984.719855351505
2178.421327755432 1835.5960020451773
2179.0397713635866 1989.9606367149736
2179.658065897298 1945.7855499327281
2180.276211391305 2075.124163626512
2180.8942078803357 2048.134613240341
2181.5120553991 2087.9653542628175
2182.129753982299 1702.7713970329733
2182.7473036646206 2014.7717550737095
2183.3647044807367 2131.315499039793
2183.9819564653044 1758.4394363435372
2184.599059652968 2170.1286159436736
2185.216014078367 2193.041945551327
2185.832819776113 2299.6910472580867
2186.4494767808137 2406.461721265773
2187.065985127063 1948.857229074946
2187.682344849436 1870.8282667641088
2188.298555982501 2280.656033789736
2188.9146185608097 2149.5436270264954
2189.530532618901 2232.7663232503032
2190.1462981912937 2109.5123575966913
2190.761915312507 2220.12399642796
2191.377384017036 2017.8351634750277
2191.9927043393654 2027.8920252142016
2192.6078763139667 1716.081992694289
2193.2228999753006 1866.6533813894944
2193.837775357808 2017.5617356185953
2194.452502495922 1718.5688706012447
2195.0670814240602 1957.2965200336755
2195.6815121766285 1642.5261535943628
2196.2957947880186 1555.6480910667465
2196.9099292926057 1468.6000615235253
2197.523915724758 2093.158451385821
2198.137754118825 1993.4945433495486
2198.7514445091456 2282.3907899964865
2199.3649869300443 2343.6525140448257
2199.9783814158327 2405.155749660132
2200.5916280008096 2503.541557673148
2201.2047267192593 2291.98855607037
2201.8176776054515 2079.9345568979015
2202.430480693649 1903.468208622063
2203.0431360180955 2204.8381495325457
2203.6556436130195 2319.1101771191043
2204.268003512645 1728.396067753981
2204.8802157511727 1916.4753804938293
2205.492280362796 1905.9624862564626
2206.1041973816937 1895.4654463189713
2206.715966842032 2122.5832143771945
2207.3275887779655 2111.556736070741
2207.93906322363 1948.4500022259442
2208.550390213153 2292.798188446987
2209.1615697806465 2248.620839917343
2209.7726019602105 1809.151341697363
2210.3834867859277 1605.7804147630904
2210.9942242918787 1850.9504013189794
2211.6048145121167 2060.874143391168
2212.2152574806914 2896.951170022441
2212.825553231638 1900.0214598571517
2213.435701798975 2838.79520373624
2214.045703216707 2028.0731362063939
2214.655557518832 1557.900151270348
2215.2652647393297 1630.1764124176968
2215.874824912169 1497.0486379972658
2216.4842380713 1882.4020538330892
2217.09350425067 1736.7814148154666
2217.7026234842033 2277.4023610775494
2218.311595805819 2146.2071120339965
2218.9204212494133 1971.7398332757784
2219.52909984888 2277.0453748275113
2220.137631638092 2298.075767777771
2220.7460166509154 2319.004010367983
2221.354254921198 1886.7672369046008
2221.9623464827764 2138.249481540285
2222.5702913694713 1987.9605167868388
2223.178089615096 1920.0742199735244
2223.7857412534486 1852.0620770179903
2224.39324631831 1531.0989347204918
2225.000604843457 1854.0068903262982
2225.607816862641 2282.747193492575
2226.214882409611 2160.3745943586828
2226.8218015180973 2251.5696044023825
2227.4285742218217 1855.3359893092038
2228.0352005544864 1983.785924172982
2228.6416805497847 1693.8501884759087
2229.248014241399 1919.2810157175104
2229.8542016629945 1705.780465717004
2230.460242848223 2046.060534269036
2231.0661378307304 1894.8821296177673
2231.671886644139 1743.578296376924
2232.277489322065 1618.2736956137942
2232.8829458981127 1534.991055474928
2233.48825640587 1979.6658249448003
2234.0934208789095 2583.59791676405
2234.6984393507955 2243.0221836348073
2235.3033118550793 2043.4297490539623
2235.9080384252975 1912.181240301484
2236.5126190949723 1783.7264075166604
2237.1170538976166 1748.6267244005844
2237.721342866729 1668.1724232251756
2238.32548603579 1852.4615727776697
2238.9294834382763 1998.9502943968305
2239.533335107646 1944.8406544636177
2240.1370410773434 1959.5682848667489
2240.740601380803 1867.1461965635656
2241.3440160514474 1940.6156039929967
2241.9472851226783 2224.5021276950038
2242.550408627896 2077.714242859657
2243.1533866004793 2441.7920921988616
2243.756219073799 2088.639205953591
2244.3589060812064 1892.7664646472197
2244.961447656049 1768.9379183960295
2245.5638438316564 1754.3034587932748
2246.166094641343 1736.7297248235932
2246.7682001184166 1719.1663372214011
2247.3701602961664 1848.3511904965703
2247.971975207871 1925.8579016267952
2248.5736448867974 2260.4345100405235
2249.175169366197 2039.5362620638166
2249.7765486793123 1822.5862373402827
2250.3777828593684 2126.359425870277
2250.9788719395783 1819.4455477548877
2251.579815953146 1962.3639114045022
2252.1806149332606 1596.5243737033454
2252.781268913097 1891.6570991201265
2253.381777925817 1688.110980890245
2253.9821420045737 2046.4340354852636
2254.5823611825035 1990.8681207242098
2255.1824354927303 2041.5508008396114
2255.782364968365 1788.2900117516158
2256.38214964251 1534.7344171530156
2256.9817895482483 1615.376865830112
2257.5812847186553 1907.8695537386643
2258.180635186791 1699.0760201247133
2258.779840985704 1811.788091907174
2259.37890214843 1968.3868503154813
2259.97781870799 2406.9830452837473
2260.5765906973957 2084.9856573164548
2261.175218149645 2129.1048422620556
2261.773701097718 2266.9109591539946
2262.3720395745895 1803.2468956677803
2262.970233613216 1594.4274684543957
2263.568283246548 1843.9843349495509
2264.1661885075137 1786.2557171251278
2264.763949429038 1778.4250361315305
2265.3615660440246 2280.382270733719
2265.959038385374 1741.4219612386973
2266.5563664859637 2288.185684342758
2267.153550378669 1772.9224207065195
2267.7505900963424 2234.0404860180015
2268.3474856718312 1737.9421425997461
2268.9442371379664 1898.2246255482337
2269.5408445275643 1762.8048379906363
2270.1373078734377 1760.857209877066
2270.7336272083758 1758.9100504206049
2271.32980256516 1795.9911486346264
2271.925833976562 2001.718074151413
2272.5217214753357 1879.4561599998538
2273.117465094223 1756.9116419884208
2273.7130648659586 1697.1388595346853
2274.308520823257 1772.6660962716946
2274.903832998827 2159.504441379019
2275.4990014253563 1953.4332334044648
2276.094026135528 2126.605280565245
2276.6889071620117 1711.4552066651427
2277.2836445374614 2108.7626605105097
2277.878238294519 1890.7528710519794
2278.472688465812 1693.2154798452975
2279.066995083962 1495.3226506227484
2279.6611581815705 1916.706632739547
2280.255177791232 2236.314927070064
2280.8490539455233 1908.015166844291
2281.442786677013 2162.269302623285
2282.0363760182554 2234.28754960111
2282.6298220017943 1787.920009896709
2283.223124660155 2374.522677834067
2283.816284025859 1766.8229393672325
2284.4093001314086 2304.8926869856023
2285.002173009292 1620.7408348553824
2285.5949026919952 1967.2674590713523
2286.1874892119777 2008.7471309042744
2286.7799326016993 1948.1839758891688
2287.3722328936 1535.3145454705132
2287.964390120109 1464.4559497513387
2288.556404313642 1969.6738317491668
2289.1482755066027 2423.648966259735
2289.7400037313873 2039.177252259054
2290.3315890203703 1723.5042661584205
2290.9230314059205 1765.1567924355973
2291.5143309203904 1806.9317456222623
2292.1054875961236 1836.9958886238896
2292.6965014654506 2435.8443463912913
2293.287372560684 1853.2294222203848
2293.878100914131 1819.465523031225
2294.468686558086 1785.688104141104
2295.059129524827 1846.5106033862212
2295.649429846617 1771.303511583911
2296.239587555716 1695.8831516080922
2296.8296026843636 2003.9776124183331
2297.419475264791 1934.8281351437968
2298.0092053292137 1865.4297991023705
2298.598792909839 2202.9897579430867
2299.1882380388597 2183.8744948328454
2299.777540748455 2436.9846177576196
2300.3667010707904 2331.923148030235
2300.9557190380256 2226.601274767142
2301.544594682302 1950.1160303148777
2302.1333280357503 1673.3030560752625
2302.721919130485 1969.8955568920926
2303.3103679986198 2551.5493793838764
2303.898674672242 2271.7636620131148
2304.486839183437 1718.058431500247
2305.0748615642697 1837.3466016882078
2305.6627418468015 1889.2811534950192
2306.2504800630704 1863.919842380293
2306.8380762451143 1807.8304042135217
2307.425530424949 1927.2918258383968
2308.012842634582 2047.0124283448429
2308.6000129060103 2382.003848012525
2309.187041271214 2644.657765647687
2309.773927762164 2433.8404649259373
2310.3606724108213 2222.59145151728
2310.9472752491274 1886.1645942091775
2311.5337363090184 2009.2931228653458
2312.120055622414 1745.3797345734292
2312.706233221221 1898.1150780963567
2313.2922691373424 1502.308221123394
2313.8781634026564 1681.3292087455611
2314.463916049037 1860.7618002451695
2315.049527108342 2025.798365878456
2315.6349966124235 2316.315756559841
2316.2203245931123 2330.5472058917803
2316.8055110822315 2090.6184306347
2317.3905561115935 1850.1070087443288
2317.9754597129977 1599.1200432127446
2318.560221918229 1589.3253875108314
2319.1448427590603 1579.5431410639515
2319.729322267256 1740.7405141886725
2320.313660474563 1862.5375886907652
2320.8978574127195 2074.595453976622
2321.481913113452 2287.317977657383
2322.0658276084705 1781.6371564859542
2322.6496009294806 2079.8841994854947
2323.233233108165 2057.747694977298
2323.8167241762058 1814.3456156535456
2324.4000741652617 1972.0206765698033
2324.983283106987 2129.9781382328592
2325.5663510330232 2357.9324425171153
2326.1492779749933 1942.915701795043
2326.7320639645204 2049.2863785766717
2327.3147090332004 2451.6249861060664
2327.897213212629 1834.7268464422255
2328.4795765343843 2153.485824094497
2329.0617990300307 1534.5032992037836
2329.643880731124 2306.689655613014
2330.22582166921 1873.3032374454738
2330.807621875816 1673.1606863386319
2331.3892813824623 1472.8416181496139
2331.9708002206517 1521.693606148841
2332.5521784218818 2090.4300689453066
2333.133416017634 2007.5769988847733
2333.7145130393765 1739.1000241172296
2334.295469518571 2139.642984104305
2334.876285486658 2355.174541157344
2335.456960975076 2261.312164692029
2336.037496015242 2167.279147965372
2336.6178906385667 1949.0019913818269
2337.198144876451 1999.2520944458524
2337.778258760278 1907.2574016560036
2338.3582323214214 2009.1024260654926
2338.938065591243 2111.133720769809
2339.517758601087 2275.29597567875
2340.0973113822965 2058.9180279176007
2340.676723966193 2145.5936109533563
2341.255996384094 2023.4683445195483
2341.835128667295 2328.005925919821
2342.4141208470883 2117.5562691520595
2342.992972954751 1989.8201619516108
2343.5716850215467 2045.5790913999467
2344.1502570787306 1948.6702875027574
2344.7286891575386 1851.4786479016661
2345.3069812892045 2428.5511688977185
2345.885133504944 2199.071378776424
2346.4631458359618 1861.1280298746765
2347.04101831345 1616.68903003026
2347.6187509685915 1875.726584667263
2348.196343832553 1890.8169542215742
2348.7737969364935 1930.3678470813124
2349.351110311558 1697.5292003704967
2349.9282839888765 1721.368415676538
2350.5053179995757 1474.2185515739407
2351.0822123747585 1667.8719007701861
2351.658967145526 1630.6850832819312
2352.2355823429643 1593.5310648333118
2352.812057998144 2016.1872527039177
2353.3883941421263 1496.4383582656342
2353.9645908059647 1965.7161626132577
2354.540648020693 1911.4797028375851
2355.116565817336 1645.7049185528074
2355.6923442269126 2116.792394376435
2356.2679832804224 1901.8852083381994
2356.8434830088518 1727.1245445127574
2357.41884344318 1872.2654188376546
2357.994064614377 2127.454159807955
