#exp_cfg={"servo_angle": 0.0, "laser_lim": 100.0, "servo_angle_to": 18.0, "laser_wup": 0.0, "bt_dev": "EnSpectr-25AE3", "laser_wdn_max": 0.0, "frames": 10.0, "servo_used": 0, "servo_calib_use": 0, "laser_wdn_min": 0.0, "servo_pix_from": 90.0, "cooler_tout": 300.0, "servo_angle_from": 0.0, "servo_calib": "[-1.9174921013161362e-09, 3.9322238269163779e-05, -0.27385609119055809, 653.59552119713567]", "laser_autoctl": 0, "servo_pix_to": 3682.0, "laser_pw": 100.0, "cooler_on": 0, "laser_volt": 4.0, "cooler_autoctl": 0, "cooler_curr": 70.0, "cooler_startup": 10.0, "laser_fixed_pw": 0, "gain": 1.3, "offset": 2.53059635486, "servo_calib_degree": 3.0, "laser_curr": 55.0, "shutter": 8200.0, "servo_calib_step": 1.0, "laser_fixed_curr": 0, "exp": 2000.0, "ccd_volt": 4.7, "bt_addr": "00:06:66:62:5A:E3", "servo_delay": 500.0, "laser_autooff": 1}
#proc_cfg={"flat_auto_wnd": 200.0, "flat_auto_fr": 200.0, "flat_auto_shift": 5.0, "yconv": 1, "flatten": 1, "flatten_strength": 100.0, "xfrom": 300.0, "auto_max_frame": 2000.0, "auto_signal": 48000.0, "flat_auto_tol": 0.1, "autoclip": 1, "xrel_range": 0.0, "flat_auto_to": 4000.0, "intensity_adj": 1.0, "xrel": 7852.0, "rmhot": 1, "flat_auto_slit": 4.999999999999997, "auto_ini_exp": 300.0, "auto_off": 0, "xto": 2860.0, "flat_auto_ref": "", "flat_auto_rank": 1, "autobackg": 0, "xrel_adj": 0.0, "auto_black_lvl": 1, "base_wnd": 100.0, "sub_baseline": 0, "xconv": 2, "auto_max_exp": 1000.0, "auto_total_exp": 10000.0, "auto_exp": 0, "rmripple": 0, "black_lvl": 8273.3125, "shutter_clip_adj": 0.0, "auto_bckg": 0, "flat_auto_thr": 0.9, "subbackg": 1}
316.8218498245369 22065.042259564867
317.89969571804795 21758.961451767074
318.977263876126 21855.863225403176
320.05455438786703 21562.072951168608
321.1315673423287 21517.004362505908
322.2083028285215 21676.24763739155
323.2847609354267 21449.138793339327
324.3609417519747 21412.220078136164
325.43684536705587 21263.439003934283
326.5124718695279 21267.640983309007
327.58782134820103 21174.363093347456
328.66289389184385 21118.84138790691
329.7376895891921 20910.384138577858
330.8122085289342 20882.299129139174
331.88645079971866 20790.315556399317
332.9604164901575 20689.35709779454
334.03410568881554 20616.28894948784
335.1075184842266 20745.09424302641
336.18065496487543 20350.722119494112
337.2535152192122 20275.750590820397
338.32609933564163 20343.288410695623
339.39840740253203 20184.50112303215
340.4704395082099 20133.05261024214
341.5421957409617 20080.068507945838
342.6136761890357 20094.527081617576
343.6848809406365 19984.78977569649
344.75581008392874 19812.176042320967
345.82646370703696 19800.35612479003
346.8968418980512 19659.327303329024
347.96694474501055 19830.533718204173
349.0367723359268 19787.52149076238
350.106324758759 19607.360299736007
351.1756021014353 19577.9005371686
352.2446044518383 19515.26354916061
353.31333189781435 19581.328477821957
354.38178452716966 19484.857458129864
355.449962427665 19466.766552927133
356.51786568702846 19347.846934943176
357.58549439294256 19503.857695755105
358.6528486330535 19523.168984577445
359.71992849496564 19353.20419559608
360.7867340662433 19309.761187862132
361.8532654344144 19251.14095023122
362.9195226869597 19320.8103237779
363.9855059113288 19145.279758709763
365.05121519492604 18999.441621167516
366.11665062511565 19029.499088544515
367.1818122892273 18972.533768140864
368.2467002745434 18961.64327658825
369.31131466831175 18943.359451665583
370.375655557742 18777.22187810951
371.4397230299983 18780.581055664417
372.5035171722102 18709.899332990124
373.5670380714637 18670.647171241122
374.6302858148101 18781.88512030134
375.6932604892554 18674.363580526
376.7559621817709 18645.97290361832
377.81839097928605 18476.04800781731
378.8805469686886 18505.97211777764
379.94243023683157 18482.288554914565
381.0040408705263 18441.98737358582
382.0653789565458 18235.00740560682
383.1264445816196 18232.489352061624
384.1872378324406 18190.148384846398
385.2477587956637 18274.589805038246
386.3080075579037 18101.51506932144
387.3679842057336 17958.26593633485
388.4276888256918 18024.819136584676
389.48712150426945 17982.632797948754
390.54628232792857 17891.88583192121
391.6051713830857 17854.297970533004
392.66378875611736 17828.71616221215
393.7221345333637 17720.984466257818
394.7802088011249 17731.142385386916
395.838011645661 17711.458573636708
396.89554315319765 17644.63837501659
397.9528034099112 17592.94996960255
399.00979250194723 17592.063920573135
400.06651051541485 17529.524361454973
401.1229575363741 17609.75095573375
402.17913365085224 17478.0623462507
403.23503894483656 17546.210297410642
404.2906735042761 17397.158569629875
405.3460374150818 17277.81948755413
406.401130763119 17369.793433400187
407.455953634224 17349.187683156517
408.5105061141876 17292.628700054513
409.56478828876243 17078.31187396973
410.6188002436629 17093.609695793835
411.6725420645689 17146.071694489478
412.72601383711117 17071.951058356484
413.77921564689314 17214.746923029183
414.8321475794728 17055.11872758653
415.88480972036814 17064.667226514714
416.93720215506437 16966.079284961746
417.9893249690049 16914.177134895457
419.04117824759123 16872.365484247162
420.09276207619223 16878.564906808708
421.144076540133 16874.427139577856
422.1951217247042 16825.84480723647
423.24589771515275 16849.005091163108
424.2964045966928 16730.69922577743
425.34664245449494 16814.174144768047
426.3966113736933 16714.814449718127
427.4463114393875 16672.361998996428
428.49574273662984 16651.905653722333
429.5449053504417 16454.667376167512
430.5937993658026 16646.45550312156
431.6424248676558 16426.50060246363
432.6907819409007 16407.28099139395
433.73887067040596 16495.44335468849
434.7866911409965 16555.03975995394
435.8342434374608 16427.686255197215
436.88152764455117 16390.677953358427
437.9285438469724 16346.78239685788
438.9752921294057 16272.89147413569
440.02177257648145 16297.738997177239
441.06798527279716 16196.02743067948
442.1139303029122 16346.861813477168
443.1596077513459 16430.796587830515
444.2050177025794 16280.315953487114
445.25016024105753 16266.851266162723
446.2950354511886 16276.772011762394
447.33964341733736 16265.335776732343
448.383984223834 16137.875543855287
449.4280579549686 16083.72638531219
450.471864694995 16140.963057997695
451.5154045281306 16131.252705607854
452.5586775385509 16121.619332423474
453.60168381039693 16017.45736254434
454.64442342776783 16149.903708543774
455.6868964747264 16136.288424956763
456.7291030353008 16036.996539949167
457.77104319347563 16193.091188016744
458.8127170332027 16065.514818602465
459.854124638392 16132.380175815513
460.895266092919 16213.45473662178
461.93614148061897 16140.294159621102
462.97675088529104 16204.20560878833
464.01709439069236 16190.820509711764
465.0571720805492 16174.93470172863
466.0969840385442 16151.526556158311
467.1365303483253 16259.139213985274
468.17581109350067 16142.657265582893
469.2148263576437 16124.930780700815
470.2535762242878 16170.615399064272
471.29206077693016 16295.536161296835
472.33028009902773 16231.212474442877
473.3682342740012 16262.882898580041
474.40592338523857 16264.763898296089
475.4433475160804 16221.415624902653
476.4805067498364 16231.306805122626
477.51740116978 16170.105473308256
478.5540308591426 16284.3456089442
479.59039590112116 16437.44558645042
480.6264963788726 16197.95419691377
481.6623323755193 16393.61166457149
482.6979039741436 16342.259627873695
483.7332112577915 16404.228838833784
484.76825430947247 16536.794925494316
485.80303321215797 16528.552366941643
486.837548048783 16530.451362820968
487.8717989022425 16594.410381320897
488.90578585539697 16603.96970586499
489.9395089910686 16675.026306038453
490.97296839203955 16564.472434970412
492.00616414106116 16381.331712543775
493.0390963208429 16403.646851639707
494.0717650140559 16497.194363288247
495.10417030333883 16509.705784948535
496.1363122712901 16500.489763289403
497.16819100046814 16328.758943193065
498.1998065734024 16253.263350686088
499.2311590725767 16344.182868560389
500.26224858044407 16192.973678310944
501.2930751794156 16205.284560699956
502.3236389518679 16176.538703854007
503.35393998014115 16053.29608391741
504.38397834653733 16070.714974366309
505.4137541333221 16030.505281514595
506.4432674227228 16011.815150334933
507.4725182969323 15947.562408612614
508.5015068381035 15937.815837484388
509.53023312835467 15888.93686925468
510.55869724976765 15812.796080823851
511.58689928438434 15732.937886355
512.6148393142121 15556.777215583672
513.6425174212218 15720.426203629922
514.6699336873462 15676.747362684324
515.6970881944835 15742.36781936446
516.7239810244901 15661.573174372412
517.7506122591931 15628.313041004076
518.7769819803761 15624.275751183488
519.8030902697901 15555.242539030773
520.8289372091476 15596.74934669405
521.8545228801249 15750.88885402564
522.8798473643619 15618.768919451813
523.9049107434621 15638.598976978625
524.9297130989908 15645.0786381348
525.9542545124805 15590.314920635774
526.9785350654201 15583.223947446802
528.0025548392696 15561.577076490948
529.0263139154504 15448.893921136789
530.0498123753423 15657.864456598425
531.073050300296 15525.915406413977
532.0960277716204 15543.440377670631
533.1187448705896 15553.443086393028
534.1412016784416 15575.305808812755
535.1633982763833 15581.148693425988
536.1853347455726 15516.999792361257
537.2070111671401 15462.29805953526
538.2284276221817 15528.583241907083
539.2495841917516 15505.316522660889
540.2704809568677 15429.406886189015
541.2911179985167 15587.063017415368
542.3114953976419 15616.662243700717
543.3316132351592 15600.217740796554
544.3514715919409 15592.871768611527
545.3710705488247 15653.537046928235
546.3904101866156 15714.459095085806
547.4094905860784 15843.371309749553
548.4283118279418 15732.052819551018
549.4468739929034 15917.348386990674
550.4651771616191 15828.00199648464
551.4832214147063 15689.237091300893
552.501006832761 15933.271973310799
553.5185334963226 15964.181714337214
554.5358014859103 15939.589227348395
555.5528108820035 15936.797548143859
556.5695617650363 15837.19773858301
557.5860542154242 15956.61862276629
558.6022883135283 15863.84819236591
559.6182641396881 15698.223947122751
560.6339817741991 15773.635697921613
561.6494412973225 15755.84598136147
562.6646427892883 15830.94680958542
563.6795863302796 15565.048410402911
564.694272000459 15537.903254004774
565.7086998799423 15683.578014800198
566.7228700488104 15496.062569663836
567.7367825871115 15387.881188157688
568.7504375748576 15361.204033246342
569.7638350920224 15288.162073011761
570.7769752185486 15281.262413548544
571.7898580343353 15142.852698865961
572.802483619258 15069.24076911055
573.8148520531431 15245.150112952106
574.8269634157932 15200.832617452068
575.8388177869692 15063.589066022207
576.8504152463938 15066.020188628088
577.8617558737587 15119.78114558855
578.8728397487175 14968.397108203219
579.883666950891 15023.632970119681
580.8942375598654 14987.743566662855
581.9045516551851 15091.416742785572
582.9146093163617 15150.61660388394
583.924410622878 14949.836969339187
584.9339556541727 14950.00211932541
585.9432444896538 15043.108374828142
586.9522772086875 14901.910698706744
587.9610538906127 15021.531662683949
588.9695746147318 14843.150484100726
589.9778394603054 14902.847395149554
590.985848506567 14841.573286990792
591.9936018327098 14813.211922264192
593.0010995178891 14664.431789588529
594.0083416412344 14732.708511524756
595.0153282818283 14591.746683655085
596.0220595187293 14635.731862761593
597.0285354309508 14530.483185638612
598.0347560974806 14544.38689678616
599.0407215972609 14560.25235554082
600.0464320092051 14557.034134311656
601.0518874121954 14492.539331812752
602.0570878850685 14429.875455976968
603.062033506636 14392.787014587762
604.0667243556636 14459.327036066126
605.0711605108936 14344.075607537427
606.0753420510264 14628.265876610007
607.0792690547278 14495.384658287681
608.082941600629 14448.526470825605
609.0863597673306 14425.24623346116
610.0895236333909 14595.36881931618
611.0924332773357 14756.90142493392
612.0950887776617 14584.020295411412
613.0974902128219 14723.278218258341
614.0996376612384 14758.13322505089
615.1015312013005 14907.126470128893
616.1031709113595 14986.300927328997
617.1045568697336 14860.183571809092
618.1056891547069 15061.301350336938
619.1065678445229 15022.462338234622
620.1071930173985 15379.114010039377
621.1075647515099 15218.701007691347
622.1076831250048 15199.098602030464
623.1075482159849 15283.634756858233
624.1071601025305 15262.197206778364
625.1065188626781 15209.03409078565
626.105624574433 15481.972269316688
627.1044773157682 15337.204782090854
628.1030771646128 15334.706871258119
629.1014241988742 15271.27253515723
630.0995184964158 15412.635053006696
631.0973601350688 15393.716827860073
632.0949491926294 15620.90080633836
633.0922857468631 15299.1793433034
634.089369875499 15477.532654864899
635.0862016562278 15478.813248353716
636.0827811667077 15343.08605958935
637.0791084845641 15460.204992578889
638.0751836873878 15349.053626677332
639.0710068527369 15470.655834676993
640.0665780581294 15415.703207938946
641.0618973810506 15328.973232400156
642.0569648989604 15472.759125283614
643.0517806892676 15271.838718638905
644.0463448293649 15281.652738650959
645.040657396592 15291.338536265073
646.0347184682723 15204.839263305079
647.0285281216875 15105.299214314009
648.0220864340772 15243.737660752176
649.0153934826558 15149.299666537923
650.0084493446047 15116.850370650713
651.0012540970674 15112.524536779627
651.9938078171526 15099.580965309948
652.9861105819346 15055.135538623916
653.9781624684565 15278.867595503267
654.9699635537254 15028.20541393019
655.9615139147136 15103.286046179832
656.9528136283589 14936.786810563854
657.9438627715699 15038.620487285953
658.9346614212154 14870.19274500302
659.925209654135 14644.026564130289
660.9155075471263 14710.162456392418
661.9055551769616 14769.795556286821
662.895352620375 14835.043615138988
663.8848999540678 14634.889051542177
664.8741972547068 14604.601809553482
665.863244598926 14589.140800826179
666.8520420633213 14698.551012374248
667.8405897244611 14517.309810154995
668.8288876588758 14288.418972192385
669.8169359430613 14572.691247326762
670.8047346534822 14546.587181500561
671.7922838665672 14400.891244079085
672.7795836587156 14460.56977566888
673.766634106285 14616.013623630477
674.7534352856092 14365.191343192248
675.7399872729766 14425.167243748274
676.7262901446538 14385.795359538912
677.712343976862 14336.597034225251
678.6981488457986 14495.216295201177
679.6837048276229 14227.845726489753
680.6690119984596 14381.257976923429
681.6540704344043 14357.664297601465
682.6388802115107 14260.035203148538
683.6234414058108 14297.54868053443
684.6077540932874 14157.154989968743
685.591818349907 14144.888668243308
686.575634251587 14108.113235638459
687.5592018742263 14050.910483868056
688.5425212936734 13883.406308833428
689.5255925857564 13995.201634368259
690.5084158262707 13951.032537710786
691.4909910909646 13947.412299990518
692.4733184555644 13851.11511162229
693.4553979957618 13921.56404651551
694.4372297872123 13974.995279554754
695.4188139055404 14019.346505026431
696.4001504263324 13950.010888242037
697.3812394251509 14194.44773540398
698.3620809775111 14092.828951602878
699.3426751589104 14151.173412955151
700.3230220448004 14160.395381160366
701.3031217106054 14241.757468092645
702.2829742317172 14466.528515889362
703.2625796834873 14176.576781061773
704.2419381412474 14212.200531935683
705.22104968028 14326.243817398357
706.1999143758458 14377.251356867604
707.178532303169 14332.472724319687
708.1569035374378 14480.722492978943
709.1350281538107 14656.475033978491
710.1129062274158 14653.076466793902
711.0905378333373 15035.749578042141
712.0679230466376 14998.348292498584
713.0450619423427 15271.79106076372
714.0219545954424 15477.974351508508
714.9986010808989 15514.816264445903
715.9750014736292 15877.99132668325
716.9511558485392 16368.2842915829
717.9270642804786 16489.12847478545
718.9027268442787 16674.735818097244
719.8781436147328 16858.415725399624
720.8533146666014 16930.802898873124
721.828240074612 17037.999407489202
722.8029199134635 17012.867342005098
723.7773542578125 17009.54692478034
724.751543182294 16967.255514381115
725.7254867615029 16960.511502322297
726.6991850700015 16791.16975665218
727.6726381823228 16997.388599354286
728.6458461729599 17213.96577040297
729.6188091163858 17362.93422355318
730.5915270870246 17706.818910673486
731.5640001592856 18004.828750458742
732.536228407529 18566.563795634927
733.5082119060917 18880.949799600035
734.4799507292755 19309.849478111122
735.4514449513481 19553.810032894944
736.4226946465496 19875.86728491313
737.3936998890786 19957.27135461043
738.3644607531078 19729.059560285554
739.3349773127793 19481.47804869491
740.3052496421951 19284.640581017313
741.27527781543 18546.186491070224
742.2450619065221 17953.984287942923
743.2146019894826 17567.888684918213
744.183898138288 16866.993223015175
745.1529504268801 16210.209229050184
746.1217589291682 15616.355308323196
747.0903237190341 15168.623868156637
748.058644870318 14810.263071379788
749.0267224568397 14318.855447878537
749.994556552374 13984.905476305657
750.9621472306771 13748.73964775978
751.9294945654583 13559.868515223989
752.8965986304011 13392.855269776812
753.8634594991636 13192.15837971188
754.8300772453586 13173.940411745652
755.7964519425768 12979.105663052944
756.762583664371 13083.10702304375
757.7284724842611 12952.63107851126
758.6941184757416 12773.945899086542
759.6595217122667 12781.955211018081
760.6246822672638 12679.306646283452
761.5896002141235 12500.257305165293
762.5542756262093 12586.451253867526
763.5187085768503 12589.064667914452
764.4828991393406 12518.980742382917
765.4468473869474 12501.994990669418
766.4105533929032 12529.500534737745
767.3740172304078 12511.025307540012
768.3372389726283 12485.509470205103
769.3002186926988 12347.032572014963
770.2629564637282 12382.24208641511
771.2254523587872 12413.440886502256
772.1877064509154 12278.63503384613
773.1497188131179 12120.014982932818
774.1114895183728 12227.109046088211
775.0730186396268 12230.269669993551
776.0343062497905 12118.668162805683
776.9953524217381 12120.272815613416
777.9561572283274 12161.815198097032
778.9167207423689 12137.23095133678
779.8770430366476 12017.447108096505
780.8371241839159 12113.88162221578
781.7969642568951 12067.92072376292
782.7565633282757 12305.898252593983
783.7159214707099 12059.195101271587
784.6750387568281 12154.511661175968
785.6339152592227 12075.323151739954
786.5925510504512 12035.722071786306
787.5509462030477 12070.483469491757
788.5091007895098 12058.114526024463
789.4670148823006 11998.400638309939
790.4246885538596 12021.103900046834
791.3821218765861 11973.541695858965
792.3393149228505 11861.773145714618
793.2962677649975 11953.3708097698
794.2529804753303 12008.971381122425
795.20945312613 12080.46372336189
796.1656857896378 11877.72833867428
797.1216785380675 11827.454789311105
798.0774314435985 12025.67718992861
799.0329445783846 12058.91064771904
799.9882180145414 12056.579062818379
800.9432518241574 11947.718902620092
801.89804607929 11959.210431856742
802.852600851962 11978.682306050552
803.8069162141637 11949.461685657594
804.760992237856 11901.957583547053
805.714828994971 11871.200218714765
806.6684265574077 11956.844064242714
807.6217849970271 11796.677999287891
808.574904385674 11808.689763663695
809.527784795142 11872.284542152403
810.4804262972102 12062.827870126664
811.4328289636178 11762.776895991276
812.3849928660748 11610.756455451785
813.3369180762638 11657.049802991642
814.2886046658241 11795.358977522354
815.2400527063783 11717.172711536183
816.1912622695108 11666.852403645871
817.1422334267718 11803.950584714616
818.0929662496856 11518.046924414808
819.0434608097457 11450.90067918708
819.9937171784059 11537.531006842224
820.9437354271013 11463.869241989485
821.8935156272255 11683.708906820106
822.8430578501484 11524.160130510787
823.7923621672016 11364.47336955339
824.7414286496896 11503.741549405593
825.6902573688876 11452.78672430595
826.6388483960363 11469.044833810885
827.5872018023492 11358.319192668203
828.5353176590033 11487.46506960484
829.4831960371503 11334.653217596633
830.4308370079016 11292.387949936376
831.3782406423525 11378.251419820808
832.3254070115545 11369.589999642882
833.2723361865319 11237.809826739578
834.2190282382799 11182.125198885971
835.1654832377644 11248.360831488597
836.1117012559116 11147.503091197537
837.0576823636256 11358.436167582924
838.003426631778 11133.648815086715
838.9489341312074 11091.00990930168
839.8942049327197 11238.942821520714
840.8392391070975 11377.039368313583
841.7840367250865 11192.02606867202
842.7285978573982 11105.093212370419
843.672922574724 11319.326210200514
844.6170109477152 11200.988046338347
845.560863046996 11188.489154531857
846.5044789431595 11176.679190205097
847.4478587067697 11264.72609494571
848.3910024083561 11381.876070219016
849.333910118421 11263.629923448028
850.2765819074339 11103.730205252514
851.2190178458332 11370.263927169373
852.161218004032 11381.21835368253
853.1031824524016 11317.89073035253
854.0449112612987 11221.640590523157
854.9864045010327 11298.671133729169
855.9276622418947 11278.736177447932
856.8686845541379 11271.180722384282
857.8094715079915 11266.07678354494
858.7500231736467 11428.217273904336
859.690339621271 11250.747649966932
860.6304209209939 11334.789398771496
861.5702671429244 11074.916597425941
862.5098783571284 11194.967887271216
863.4492546336569 11210.055419815155
864.3883960425155 11065.70118926128
865.3273026536863 10996.405645240453
866.2659745371238 11012.964971985231
867.2044117627465 11223.548904894811
868.1426144004472 11019.365383961087
869.0805825200823 11177.408576842876
870.0183161914847 11153.835689389567
870.9558154844526 11103.728862074433
871.8930804687552 11158.227503241445
872.8301112141307 10938.580547868776
873.7669077902865 11159.023033852875
874.7034702669062 11138.16469628096
875.6397987136315 11117.399061924456
876.5758932000863 11103.182854898438
877.5117537958522 11272.066941939382
878.4473805704911 11031.590464720166
879.3827735935283 11052.054507207913
880.3179329344603 11194.88008980099
881.2528586627541 11257.294525459962
882.1875508478479 11307.651200104136
883.1220095591489 11107.038583591171
884.0562348660296 11115.80444515544
884.9902268378391 11244.351577532438
885.9239855438955 11166.254047623746
886.8575110534839 10948.96078867693
887.7908034358588 11066.01491209875
888.7238627602474 11081.403301123191
889.6566890958475 11071.386471365584
890.5892825118208 10967.937229105679
891.5216430773125 11056.838499540509
892.4537708614189 11032.751771538122
893.3856659332196 10946.265035563989
894.3173283617652 10898.679843215697
895.2487582160684 11109.905232856869
896.179955565116 11065.73328284553
897.110920477864 10871.852135252575
898.0416530232451 10876.172457663772
898.9721532701478 10904.36778626836
899.9024212874428 11131.163021545157
900.8324571439662 10906.59904753541
901.7622609085302 10833.726491292446
902.6918326499072 10842.906451792182
903.6211724368477 10941.644701918218
904.5502803380696 11003.025738345563
905.4791564222614 11123.91363667157
906.4078007580792 10976.303430340431
907.3362134141571 10980.24293339985
908.2643944590909 11196.197366994707
909.1923439614493 10969.36767747304
910.1200619897754 11112.1138565272
911.0475486125779 11288.061335683418
911.9748038983344 11145.403341801188
912.9018279155007 11141.558438822625
913.8286207324982 11010.57047946455
914.7551824177117 11218.77107550431
915.6815130395116 11136.344317493447
916.6076126662283 11047.683499046623
917.533481366163 11086.560672149235
918.4591192075914 11178.089996326911
919.3845262587565 11183.183334912575
920.3097025878706 11086.24038436969
921.2346482631237 11104.365328467513
922.1593633526682 11083.53419768749
923.0838479246304 11052.712689418742
924.0081020471061 11193.665902489041
924.9321257881656 10841.137435170156
925.8559192158464 10906.631170190396
926.7794823981512 10820.267227083914
927.7028154030686 10840.738172235167
928.6259182985414 10738.922673113198
929.5487911524906 10918.841266329404
930.4714340328119 10877.483982004287
931.3938470073608 10554.349141625524
932.3160301439748 10604.140962684598
933.2379835104548 10706.419074104784
934.1597071745709 10813.821990113898
935.0812012040769 10698.787518117064
936.002465666681 10759.79386893438
936.9235006300696 10787.464747558202
937.8443061619055 10674.560724372739
938.7648823298077 10589.956536965472
939.6852292013809 10581.90006981661
940.6053468441951 10700.670997288205
941.5252353257874 10500.792766791223
942.4448947136698 10625.316669588661
943.364325075323 10659.988240777519
944.2835264782043 10699.528118067614
945.2024989897309 10642.774182707555
946.1212426773054 10659.36854280303
947.0397576082851 10776.790267184791
947.9580438500125 10862.061686446925
948.8761014697939 10826.596344164975
949.7939305349064 10984.011424887498
950.7115311125999 10751.623672903537
951.6289032700952 10785.060759442758
952.5460470745875 10912.037207108053
953.4629625932339 10849.577685627051
954.3796498931715 10993.534884295503
955.2961090415029 11002.40797352658
956.2123401053068 10865.263598387859
957.1283431516276 10858.414940365705
958.0441182474842 10883.860038038885
958.9596654598663 11043.995947096399
959.8749848557309 10923.918598511822
960.7900765020167 10878.734108434783
961.7049404656209 10789.059631840446
962.6195768134185 10885.943667060194
963.5339856122537 10860.352869988052
964.4481669289453 10969.678676117928
965.3621208302793 10891.374412551646
966.2758473830145 10704.138027976904
967.1893466538822 10871.205024656232
968.1026187095813 10765.598005496924
969.0156636167867 10730.553476145815
969.9284814421426 10768.658710334472
970.8410722522622 10673.186880437173
971.753436113735 10627.740686373352
972.6655730931161 10570.408991324319
973.5774832569368 10702.897168288164
974.4891666716958 10442.722646128306
975.4006234038698 10419.631178633237
976.3118535198955 10365.480023600394
977.2228570861935 10591.371816983024
978.1336341691494 10524.805791888459
979.0441848351202 10323.246819708878
979.9545091504333 10521.318966250688
980.864607181391 10513.343432003872
981.7744789942699 10422.483545008085
982.6841246553086 10426.48780313101
983.5935442307236 10397.467499807843
984.5027377867027 10458.940257628354
985.4117053894024 10431.039697873202
986.3204471049557 10313.931311062372
987.2289629994648 10389.785531076272
988.1372531390007 10605.460002989668
989.0453175896091 10417.270301665392
989.9531564173067 10392.157321567232
990.860769688079 10292.578958232258
991.7681574678918 10311.868140287348
992.6753198226706 10358.763101912658
993.582256818323 10294.424836739654
994.4889685207218 10237.190039313147
995.3954549957143 10474.513044017682
996.301716309119 10462.570957559443
997.2077525267232 10372.819233172811
998.1135637142943 10219.632631272896
999.0191499375615 10400.39614156508
999.924511262232 10370.914304679722
1000.8296477539861 10424.826265017788
1001.7345594784656 10310.294585123042
1002.6392465012996 10251.72281100207
1003.5437088880753 10458.930208481752
1004.4479467043584 10367.6252010814
1005.3519600156869 10098.389526733099
1006.2557488875718 10310.748990603997
1007.1593133854858 10320.975323177367
1008.0626535748888 10223.658271925166
1008.9657695212009 10027.798934077236
1009.8686612898182 10406.032578651662
1010.7713289461135 10341.662496015342
1011.6737725554212 10229.115429330675
1012.5759921830577 10234.502904866224
1013.4779878943027 10204.027433526328
1014.379759754418 10373.553842736417
1015.2813078286254 10202.168698146472
1016.18263218213 10058.845769613823
1017.0837328801026 10227.619131991229
1017.9846099876886 10263.9694704192
1018.8852635700023 10131.028523604877
1019.7856936921362 10015.38044842248
1020.6859004191447 10275.050315683042
1021.5858838160675 10044.677558857657
1022.4856439479063 10084.689572992134
1023.3851808796389 9960.19935570918
1024.2844946762143 10214.696548810338
1025.183585402554 10095.05410590162
1026.082453123554 9813.436641987624
1026.9810979040776 10082.046143824231
1027.8795198089647 10029.478521329267
1028.777718903024 10150.548307224577
1029.6756952510368 10068.283831029636
1030.5734489177648 9974.524525263188
1031.4709799679313 10022.853030571048
1032.3682884662358 10281.923018082747
1033.2653744773506 9940.954424343103
1034.1622380659192 10008.511575305936
1035.058879296559 10217.632459797878
1035.9552982338591 10262.052267760711
1036.8514949423825 10304.254878330757
1037.7474694866614 10345.64957532455
1038.6432219312028 10278.065254596577
1039.5387523404825 10548.520253205355
1040.4340607789582 10516.637345334779
1041.3291473110476 10484.641686238127
1042.2240120011465 10888.514319639304
1043.1186549136273 10953.816312948951
1044.0130761128294 10984.647634888368
1044.9072756630649 11161.50981305888
1045.8012536286205 11406.232181603054
1046.6950100737577 11517.096044857459
1047.588545062701 11811.045283300007
1048.481858659663 11851.581661850929
1049.3749509288118 12055.919712249399
1050.2678219343034 11926.865622973015
1051.1604717402515 12122.640507229666
1052.0529004107575 11994.972109951235
1052.9451080098825 12244.421733780933
1053.8370946016694 12064.295741992608
1054.7288602501267 12128.080687263999
1055.6204050192446 11991.599846426006
1056.511728972977 12020.809867475891
1057.402832175254 11798.725565295983
1058.2937146899785 11680.610046253441
1059.1843765810263 11623.074766694866
1060.0748179122456 11570.762474456624
1060.9650387474576 11316.433085327724
1061.855039150456 11243.23386575804
1062.7448191850071 11053.050865654033
1063.6343789148505 11043.544334571869
1064.5237184037014 10995.059200764652
1065.412837715241 10768.016012713513
1066.3017369131267 10631.166478654883
1067.190416060992 10564.064025614865
1068.0788752224398 10465.676037355504
1068.9671144610438 10457.865285632932
1069.8551338403558 10440.96324031464
1070.7429334239023 10472.247977016548
1071.6305132751695 10234.348819995816
1072.517873457633 10464.751691211804
1073.4050140347335 10182.80152782104
1074.2919350698776 10352.34538191924
1075.1786366264623 10298.741992614578
1076.0651187678395 10387.673985619489
1076.95138155735 10194.28857163351
1077.8374250582929 10379.07728218321
1078.7232493339507 10326.886507206784
1079.608854447577 10376.22449032275
1080.4942404623907 10381.94324686197
1081.3794074415982 10525.382123422905
1082.2643554483657 10535.143293634008
1083.149084545841 10551.895004848277
1084.033594797138 10535.670345278082
1084.9178862653516 10593.454683302962
1085.8019590135427 10871.674791163528
1086.6858131047484 10620.592704493447
1087.5694486019802 10914.681350559817
1088.4528655682225 10941.044926204882
1089.3360640664287 11299.3456167136
1090.2190441595321 11197.911625381817
1091.1018059104317 11278.962093512306
1091.98434938201 11315.17964512098
1092.866674637111 11464.05063452591
1093.748781738559 11475.766062775405
1094.6306707491512 11385.35583768439
1095.5123417316554 11649.547275154946
1096.3937947488157 11520.00665691552
1097.2750298633455 11580.733718917789
1098.156047137938 11509.924525720995
1099.0368466352556 11602.526875633885
1099.9174284179317 11741.60754523606
1100.7977925485757 11399.373036341545
1101.6779390897755 11394.288431341463
1102.5578681040806 11402.77483377453
1103.4375796540226 11319.191056670517
1104.3170738021054 11269.923805463894
1105.1963506108077 10876.333218504622
1106.0754101425773 10809.749574205103
1106.9542524598382 10812.911839022623
1107.8328776249855 10675.84783968754
1108.7112857003904 10481.124224614574
1109.5894767483987 10463.77710110664
1110.4674508313292 10474.977020352037
1111.3452080114657 10175.043455722216
1112.2227483510815 10258.430564299955
1113.1000719124077 10202.032223135428
1113.9771787576592 10223.710178697514
1114.854068949022 10019.824242245033
1115.7307425486542 9998.13050301975
1116.6071996186893 10037.292992425044
1117.483440221229 10246.99605877684
1118.3594644183577 9860.907015255736
1119.235272272128 9925.720793732859
1120.1108638445658 10021.671924347731
1120.9862391976712 10168.892510482525
1121.8613983934229 10074.35717389721
1122.7363414937627 9971.751555580251
1123.6110685606182 10005.469033210216
1124.485579655884 10116.85291551344
1125.359874841426 10089.806327765848
1126.2339541790916 9954.527068460122
1127.1078177306936 10348.657684741782
1127.9814655580267 9995.66302273786
1128.854897722851 10008.693876502042
1129.7281142869106 10066.286069333675
1130.6011153119125 10086.003790168132
1131.473900859548 10305.059565853446
1132.3464709914697 10079.873242621607
1133.2188257693178 10026.7766394486
1134.0909652546961 9903.93530440432
1134.96288950919 9943.620502574782
1135.8345985943506 10104.568547499533
1136.7060925717087 9902.75737001476
1137.57737150277 10039.05819327007
1138.4484354490069 10080.590222667932
1139.3192844718778 9921.110832418462
1140.1899186327992 9757.585429307925
1141.060337993178 10063.803662949089
1141.930542614382 9874.945701964585
1142.8005325577597 9948.278576508917
1143.670307884635 9691.758292930946
1144.5398686563003 9987.528967652992
1145.409214934025 9874.779151604853
1146.2783467790541 9685.120349276634
1147.1472642526023 9815.349896278813
1148.0159674158622 10004.439848232589
1148.8844563300026 9781.135911670088
1149.7527310561618 9846.409379205448
1150.6207916554504 9735.14157463592
1151.4886381889592 9703.071012940458
1152.3562707177498 9928.800336297449
1153.2236893028585 9800.566720801038
1154.090894005296 9821.41994205902
1154.9578848860474 9876.301408290316
1155.8246620060709 9874.05027824313
1156.6912254262988 9741.206310204585
1157.5575752076438 9737.492658962454
1158.42371141098 10019.012165822758
1159.2896340971656 9940.1052306039
1160.1553433270346 9807.022471942779
1161.0208391613887 9828.993141282328
1161.8861216610057 9812.788677365588
1162.75119088664 9850.970455018982
1163.6160468990201 9758.645450414748
1164.4806897588442 9568.301159281704
1165.3451195267917 9759.853519188871
1166.2093362635114 9654.174052900014
1167.0733400296285 9731.04608502171
1167.9371308857444 9550.269458812521
1168.8007088924278 9627.101254175563
1169.6640741102328 9682.952360486219
1170.5272265996773 9556.723632118674
1171.390166421259 9440.218632005259
1172.252893635452 9716.567971420222
1173.1154083026995 9876.931578508422
1173.977710483421 9759.34901608725
1174.8398002380145 9508.146659083282
1175.7016776268483 9798.801568098323
1176.563342710264 9667.44289850654
1177.4247955485826 9636.722002804465
1178.2860362020947 9801.27138758637
1179.147064731069 9571.889337478771
1180.0078811957483 9790.419137041523
1180.8684856563486 9782.999428820605
1181.7288781730604 9782.148750754764
1182.589058806052 9870.014724519211
1183.4490276154593 10086.713872821581
1184.3087846614017 9885.84800233693
1185.1683300039676 9924.725414721934
1186.027663703222 10267.815030583602
1186.8867858192025 9894.875181659807
1187.7456964119228 10035.13881575123
1188.6043955413716 10152.319121971652
1189.4628832675116 10140.372584505449
1190.3211596502842 10306.098637546782
1191.179224749596 10295.182817385368
1192.0370786253388 9961.038804993594
1192.8947213373758 10355.970374714523
1193.7521529455407 10393.530191220603
1194.6093735096438 10109.462616972865
1195.466383089477 10184.317680633754
1196.3231817447977 10053.73135624372
1197.1797695353398 10378.48171490238
1198.0361465208189 10073.043066021486
1198.8923127609214 10052.746693662262
1199.7482683153048 10130.00538914323
1200.6040132436028 10180.447576084334
1201.459547605431 10020.91625131195
1202.3148714603722 10030.89012680062
1203.1699848679855 10088.759081483153
1204.0248878878065 10187.59432116736
1204.8795805793507 9741.592926709225
1205.7340630020935 10005.601491941257
1206.5883352155033 10105.370649302533
1207.4423972790064 9982.648439385886
1208.2962492520237 9873.025859383595
1209.1498911939307 9845.560286477614
1210.0033231640937 9886.553852600464
1210.8565452218427 9835.348076680775
1211.7095574264913 9489.14922269565
1212.5623598373222 9503.60698597218
1213.4149525135963 9547.505196996332
1214.2673355145507 9675.048526425904
1215.1195088993936 9532.24546419028
1215.9714727273113 9488.553186611756
1216.8232270574663 9719.413979630048
1217.6747719489904 9324.396591200573
1218.5261074609934 9313.6140865292
1219.3772336525653 9485.86912746829
1220.2281505827668 9577.146272206224
1221.0788583106296 9558.342945271612
1221.9293568951707 9198.173741704006
1222.7796463953746 9188.952508051381
1223.629726870202 9408.066178778727
1224.4795983785934 9350.910551600244
1225.3292609794553 9389.776192879417
1226.1787147316809 9121.527952950335
1227.0279596941327 9300.387319855472
1227.8769959256424 9132.348654460087
1228.7258234850306 9404.78091733497
1229.5744424310833 9039.29336935336
1230.422852822563 9303.800989033778
1231.2710547182105 9412.971007190565
1232.119048176739 9248.45524480173
1232.9668332568417 8978.091882585977
1233.8144100171812 9244.682059362745
1234.6617785163999 9294.243719352518
1235.508938813111 9050.350350164252
1236.3558909659114 9052.894463124234
1237.2026350333617 9331.02933026572
1238.049171074008 9257.604778995188
1238.8954991463652 9087.596275464864
1239.741619308932 9110.302965721647
1240.587531620169 9210.648636831851
1241.4332361385277 9308.824194280347
1242.2787329224248 9097.00823497027
1243.1240220302534 9141.93060759406
1243.9691035203869 9166.666781240521
1244.813977451171 9388.206375855112
1245.6586438809263 9324.92146627381
1246.5031028679496 8963.786766334395
1247.3473544705157 9290.723060184588
1248.1913987468706 9391.985120742764
1249.0352357552383 9124.84651374164
1249.8788655538228 9394.097236011421
1250.7222882007918 9656.933429579365
1251.565503754302 9689.40180038044
1252.4085122724755 9416.821353349605
1253.2513138134182 9720.871680416065
1254.0939084352049 9728.013628325712
1254.9362961958905 9785.530538211791
1255.7784771535007 9835.140207584545
1256.6204513660432 9867.535247391625
1257.4622188915 10237.846128805542
1258.3037797878242 9975.088319570617
1259.1451341129468 9899.424574925331
1259.9862819247755 10058.213818579188
1260.8272232811978 10084.359529733105
1261.6679582400666 10338.944001405582
1262.5084868592203 9950.301134209705
1263.34880919647 10022.253243733963
1264.1889253095997 10170.9527681369
1265.0288352563712 10177.172685680573
1265.8685390945266 10052.071516144768
1266.7080368817751 10108.649895110342
1267.5473286758115 10268.460498702441
1268.386414534294 10120.73428249818
1269.2252945148703 9771.535614215358
1270.0639686751547 9948.141479658343
1270.9024370727402 9940.67248596517
1271.7406997651997 9869.784183830507
1272.5787568100714 9686.188309539479
1273.4166082648808 9840.047701924846
1274.2542541871244 9810.802818059428
1275.091694634275 10061.988672557121
1275.9289296637817 9683.680368125326
1276.7659593330663 9922.933776253945
1277.6027836995308 9829.46404788094
1278.4394028205552 10034.337024246055
1279.2758167534867 9961.665793327882
1280.112025555658 9919.64213175591
1280.9480292843746 9885.159754752955
1281.7838279969128 9657.682188459634
1282.6194217505326 9839.136372179204
1283.4548106024686 9709.966367562123
1284.289994609926 9963.94538292805
1285.1249738300921 10089.315777595995
1285.959748320127 9905.19876263003
1286.7943181371702 10167.85408756872
1287.6286833383328 10180.822451532089
1288.4628439807038 10199.265011973404
1289.2968001213521 10163.347741521897
1290.1305518173194 10278.305040151246
1290.9640991256183 10451.748244072081
1291.7974421032523 10347.254322638228
1292.630580807183 10468.15124114013
1293.463515294361 10758.488140488384
1294.29624562171 10957.13927333332
1295.12877184613 10793.645226125334
1295.961094024493 10820.368712958247
1296.79321221365 11050.683651484029
1297.6251264704333 11204.273316172488
1298.4568368516466 11438.314244759737
1299.2883434140658 11451.86086333013
1300.1196462144526 11330.57531939409
1300.9507453095375 11615.694835621507
1301.7816407560313 11660.461563622895
1302.6123326106172 11661.612157675927
1303.4428209299622 11719.050674715161
1304.2731057707024 12070.071532075386
1305.1031871894502 11911.45806019885
1305.933065242798 12007.519017278926
1306.7627399873181 11941.167804167602
1307.5922114795467 12490.15336767207
1308.4214797760123 12483.218390320348
1309.2505449332057 12315.611718474936
1310.0794070076026 12338.456662318757
1310.9080660556538 12649.551083303695
1311.736522133786 12557.984743527082
1312.5647752983987 12457.404980662563
1313.3928256058734 12225.146179536654
1314.2206731125661 12652.286709381042
1315.048317874809 12741.47182467871
1315.8757599489109 12623.154469891511
1316.7029993911547 12693.35520910301
1317.5300362578055 12895.514333405095
1318.356870605101 12519.690749112244
1319.183502489257 12577.783627582226
1320.0099319664623 12751.065304031707
1320.836159092889 12615.594845565567
1321.66218392468 12665.756053330771
1322.4880065179532 12353.732105225405
1323.3136269288134 12534.47080716048
1324.1390452133292 12652.81525099231
1324.9642614275563 12603.68866997105
1325.7892756275214 12338.079707493433
1326.6140878692295 12087.096893459446
1327.4386982086617 12580.522653565267
1328.2631067017755 12185.036474692704
1329.0873134045069 12165.882696772653
1329.911318372764 11867.370148678992
1330.735121662441 11721.82158493388
1331.558723329399 11559.149608304333
1332.3821234294774 11421.437156381417
1333.2053220185007 11305.846823837765
1334.0283191522612 11208.971635703663
1334.851114886529 11165.908202086172
1335.6737092770582 10800.92156123974
1336.4961023795695 10746.61801798987
1337.3182942497697 10636.505837602175
1338.1402849433325 10563.589680667532
1338.962074515921 10442.989303490644
1339.7836630231632 10130.73463280561
1340.6050505206676 10569.652049897557
1341.426237064028 10289.817096617688
1342.2472227088037 10085.518982635296
1343.0680075105338 9848.339416222076
1343.888591524741 9961.539216809264
1344.7089748069138 10068.673260606944
1345.5291574125276 9709.605279490397
1346.3491393970307 9551.160495899201
1347.168920815846 9835.630436219297
1347.9885017243778 9659.78300061866
1348.8078821780036 9460.69003307441
1349.6270622320844 9488.976935819433
1350.4460419419447 9271.507835985309
1351.2648213629054 9374.496880421311
1352.0834005502438 9134.627383351164
1352.90177955923 9092.198294370717
1353.7199584451064 9320.252869830203
1354.5379372630887 9181.610344716455
1355.355716068374 9001.202674241113
1356.1732949161305 8840.170244533288
1356.9906738615155 9126.409484542552
1357.8078529596478 8843.68410514819
1358.6248322656375 8988.867281671133
1359.441611834567 8810.54301881282
1360.2581917214866 9121.999847374253
1361.0745719814367 8803.745305090104
1361.890752669433 8712.920108635506
1362.7067338404577 8688.208251277758
1363.5225155494845 8885.947836587895
1364.3380978514506 8941.687272949388
1365.1534808012839 8521.414770806296
1365.9686644538815 8319.239716442693
1366.783648864117 8832.009479257653
1367.5984340868417 8861.448491254658
1368.413020176893 8737.886754644169
1369.2274071890715 8415.804131147826
1370.0415951781652 8806.349403281967
1370.8555841989346 8820.151169725905
1371.6693743061223 8441.060652692551
1372.48296555444 8346.49018928075
1373.2963579985844 8709.065229322345
1374.1095516932255 8685.141682102541
1374.9225466930166 8333.845367444626
1375.7353430525782 8582.849703557682
1376.5479408265164 8394.042600441362
1377.36034006941 8706.017726363307
1378.1725408358216 8751.256176589064
1378.9845431802805 8357.61735082285
1379.796347157304 8940.933739561362
1380.6079528213813 8583.868962611528
1381.4193602269788 8418.11356117819
1382.230569428546 8529.218462502698
1383.0415804805016 8847.447927745707
1383.852393437246 8700.802924724594
1384.6630083531563 8781.639055415848
1385.4734252825892 8593.896013468204
1386.2836442798798 8761.14346674766
1387.0936653993322 8699.317851046208
1387.9034886952395 8751.339179208357
1388.713114221864 8855.972350124977
1389.5225420334482 8804.349203062713
1390.331772184214 8747.11850521391
1391.1408047283585 8594.814399698824
1391.9496397200564 8745.357500148293
1392.758277213461 8923.970694545347
1393.5667172627054 9014.048163172582
1394.3749599218918 8851.277992182479
1395.1830052451114 8570.979408319541
1395.9908532864265 8814.058820862288
1396.7985040998774 9059.924118877545
1397.6059577394808 8601.782085113202
1398.4132142592352 8784.501125521161
1399.2202737131156 8591.387407365708
1400.027136155073 8938.88831320395
1400.8338016390353 8657.258733052042
1401.6402702189134 8628.158576822232
1402.446541948586 8775.138689987081
1403.2526168819204 8550.886296220855
1404.058495072757 8652.013635252935
1404.8641765749107 8675.602476083359
1405.6696614421799 8813.335826795865
1406.4749497283356 9137.728802347847
1407.280041487129 8541.786349170996
1408.084936772295 8223.430909587234
1408.8896356375335 8859.045949438632
1409.6941381365323 8701.936379232344
1410.498444322955 8457.489469855525
1411.3025542504402 8562.375148191966
1412.106467972606 8646.813432864126
1412.9101855430508 8568.547812946066
1413.7137070153458 8297.348741049045
1414.5170324430437 8566.480306136153
1415.320161879672 8806.834446693503
1416.1230953787435 8913.988623513254
1416.925832993742 8492.940988121332
1417.7283747781275 8382.802118645463
1418.5307207853439 8792.920162911954
1419.3328710688093 8730.632426128495
1420.134825681922 8448.005905679229
1420.9365846780584 8736.591253560819
1421.7381481105713 9090.529949122434
1422.539516032788 8994.282011520878
1423.3406884980232 8986.106780954337
1424.1416655595604 8875.266504731513
1424.942447270665 9142.573755801557
1425.7430336845828 9390.339493018128
1426.5434248545298 9223.615073670731
1427.3436208337116 9643.77949995144
1428.143621675301 9817.907101131354
1428.9434274324558 9933.488018797656
1429.7430381583108 9657.36598695112
1430.5424539059713 9960.559707913639
1431.3416747285337 10576.379993176002
1432.1407006790632 10257.590685350104
1432.9395318106053 10363.26560574903
1433.7381681761835 10243.013093662785
1434.5366098288014 10586.099239352849
1435.3348568214424 10610.950618630106
1436.1329092070573 10384.455308823053
1436.9307670385879 10675.170045520259
1437.7284303689503 10830.399427983832
1438.5258992510335 10970.165755363634
1439.3231737377118 10689.375859582191
1440.1202538818306 10522.622651230737
1440.9171397362225 10644.930896560692
1441.7138313536925 10436.99347640764
1442.5103287870243 10443.171008402112
1443.3066320889775 10241.046717846246
1444.1027413122956 10652.564911863032
1444.8986565096966 10207.179561037334
1445.694377733882 10237.401748098899
1446.4899050375207 9704.270332025753
1447.2852384732687 9938.409305540285
1448.0803780937622 9932.413104505384
1448.8753239516063 9647.177998993302
1449.6700760993954 9370.852145875419
1450.464634589689 9540.523722353448
1451.2589994750397 9635.339752131396
1452.0531708079689 9200.854624875468
1452.8471486409799 9020.625511910783
1453.6409330265524 9278.260973599845
1454.4345240171442 8912.147892152589
1455.2279216651987 8958.316375134624
1456.0211260231263 8924.170325401978
1456.8141371433194 9001.254376399873
1457.6069550781594 9012.501012788009
1458.3995798799897 8706.109632194024
1459.1920116011424 8619.271320125012
1459.98425029393 8597.91983958772
1460.7762960106338 8587.475548922732
1461.5681488035225 8698.43148192959
1462.3598087248392 8663.82852727071
1463.1512758268036 8786.270587257128
1463.942550161617 8332.336145223499
1464.7336317814625 8426.549067995653
1465.524520738496 8480.037767117352
1466.3152170848552 8312.860019101383
1467.1057208726506 8290.933795299792
1467.8960321539817 8212.702497490242
1468.6861509809169 8077.908033343017
1469.4760774055085 8149.235037995602
1470.265811479785 8083.714454742393
1471.055353255755 7854.248501896535
1471.844702785409 7900.504583617485
1472.6338601207044 7833.591582528103
1473.4228253135934 8036.204913268413
1474.2115984159936 7697.551251457355
1475.0001794798063 7413.095390325786
1475.7885685569145 7807.18786688813
1476.576765699172 7633.917108187267
1477.3647709584238 7598.305221064906
1478.1525843864802 7707.4640539084185
1478.9402060351367 7650.216204981951
1479.7276359561693 7543.491675492968
1480.514874201328 7409.658087779679
1481.3019208223468 7180.23120878208
1482.0887758709323 7060.87277815196
1482.8754393987747 7427.220215361475
1483.6619114575406 7067.745075925488
1484.4481920988783 7182.6290022419125
1485.2342813744108 7313.838095065012
1486.0201793357446 7499.917053115538
1486.8058860344572 7108.515128324868
1487.591401522117 7198.439423490282
1488.3767258502594 7161.617173060398
1489.1618590704056 7168.181573748707
1489.9468012340494 6819.407057291553
1490.7315523926754 7164.133406804105
1491.5161125977356 7264.63535862002
1492.3004819006637 7153.723131527973
1493.084660352877 7009.147825784307
1493.8686480057622 7233.32922454986
1494.6524449106964 7429.050106812991
1495.4360511190262 7412.44665522674
1496.219466682087 7233.977166868508
1497.0026916511779 7115.638533593325
1497.7857260775945 7157.402610040095
1498.5685700125996 7252.4418422410745
1499.3512235074395 6955.5271864692095
1500.133686613337 6871.548542417519
1500.9159593814966 7076.475258628428
1501.698041863101 7615.896817299848
1502.4799341093094 6828.936523730712
1503.2616361712662 6768.477178686802
1504.043148100087 7153.727763743645
1504.8244699468742 7046.770623451684
1505.6056017626997 6894.311737547658
1506.3865435986281 6775.097249233649
1507.1672955056893 7107.817089710516
1507.9478575348967 6912.947713745622
1508.7282297372512 7298.656985568225
1509.5084121637192 6941.758233426811
1510.2884048652577 7073.817428647974
1511.0682078927948 7062.354160190092
1511.8478212972423 7024.020203619142
1512.6272451294917 6952.638139075207
1513.4064794404076 7168.37032319828
1514.1855242808433 7205.036746256049
1514.9643797016215 7124.611904621049
1515.743045753552 7321.375510195944
1516.5215224874191 7354.158816454095
1517.2998099539836 7070.76761066471
1518.077908203999 7288.254173533545
1518.8558172881785 7279.22700501487
1519.633537257234 7510.978092615954
1520.4110681618404 7374.8748134871785
1521.1884100526604 7502.718392536694
1521.9655629803365 7398.02554071757
1522.7425269954856 7811.295276711159
1523.5193021487103 7876.1679034978315
1524.2958884905856 7499.266731491453
1525.0722860716687 7610.2940231317025
1525.848494942502 7623.18766721868
1526.624515153595 7606.488383684971
1527.4003467554485 7835.460343937431
1528.175989798534 7804.001340004035
1528.9514443333064 7674.600754516039
1529.726710410203 7977.14269827217
1530.5017880796331 7598.000678775985
1531.276677391992 7699.078222982784
1532.0513783976457 7883.417830399252
1532.825891146953 7794.335937684531
1533.6002156902414 7876.684315723114
1534.3743520778207 7767.4799629159115
1535.1483003599806 7763.2999945731235
1535.9220605869923 7805.718288539542
1536.6956328091019 7822.528949616705
1537.4690170765407 7601.304856218865
1538.242213439511 7754.693871069518
1539.015221948208 7489.832034098229
1539.78804265279 7353.274605302014
1540.560675603405 7177.322260898608
1541.3331208501804 7498.467851971926
1542.1053784432224 7509.685170487539
1542.8774484326168 7349.202686291705
1543.649330868422 7236.208949769857
1544.4210258006842 7102.390805801102
1545.1925332794308 7173.929273165246
1545.9638533546604 7194.131332052655
1546.7349860763552 6926.704423280423
1547.5059314944829 7290.664892899324
1548.27668965898 7077.658166825856
1549.0472606197673 7002.362261065939
1549.817644426752 6799.582672074635
1550.5878411298072 7022.795018431742
1551.3578507787988 6981.594038012784
1552.1276734235635 6829.493490403656
1552.8973091139233 6899.418357201561
1553.6667578996767 7088.004570686079
1554.436019830604 6835.8490410842205
1555.20509495646 6728.34255196645
1555.9739833269869 6694.302093932619
1556.7426849919011 6752.147586766255
1557.511200000903 7015.947467082167
1558.2795284036674 6912.868427535695
1559.0476702498509 6796.700914484545
1559.8156255890954 7006.379834252551
1560.5833944710157 7280.030072823184
1561.3509769452048 6724.4213825557845
1562.1183730612447 6892.550831004768
1562.8855828686865 6850.994942650956
1563.6526064170703 7184.348852345267
1564.4194437559127 7126.759137903061
1565.1860949347047 6864.421161083397
1565.9525600029283 7233.359521870692
1566.7188390100328 7355.407877359363
1567.4849320054564 6817.993315237584
1568.250839038612 6836.575489364271
1569.0165601588997 6997.127671051591
1569.7820954156887 7145.307829847452
1570.5474448583373 6837.9098890050645
1571.31260853618 6871.780070736633
1572.0775864985299 6728.733845185883
1572.8423787946813 7033.610023194984
1573.6069854739108 6928.270567520291
1574.371406585471 7128.270928576424
1575.1356421785986 7282.216861416926
1575.899692302506 6858.387996997054
1576.6635570063845 7103.828167103199
1577.4272363394157 6980.687302804373
1578.190730350747 6853.754481773336
1578.9540390895163 7181.795554674774
1579.7171626048384 6633.298472777346
1580.480100945806 6868.010444067675
1581.2428541614918 6876.979322900697
1582.0054223009538 6928.0899359218765
1582.767805413223 6930.7308424562
1583.5300035473156 6930.639577945137
1584.292016752228 7096.695899231774
1585.0538450769309 6994.9910809187695
1585.8154885703807 6676.342490468193
1586.5769472815136 6455.575624157594
1587.3382212592405 6846.172440096115
1588.099310552463 6925.22263701327
1588.8602152100484 6856.181552403928
1589.6209352808564 6842.25928871237
1590.3814708137234 6744.2682175034715
1591.14182185746 6717.146591413589
1591.9019884608679 6480.707157397404
1592.6619706727215 6303.816650727167
1593.4217685417734 6671.4867338402855
1594.1813821167616 6804.194713501985
1594.9408114464022 6281.3207281236955
1595.7000565793933 6443.564702725796
1596.459117564409 6609.323431265819
1597.2179944501113 6279.053647500686
1597.9766872851324 6284.493894206182
1598.735196118092 6614.466000607625
1599.4935209975883 6586.33985448666
1600.2516619721973 6614.88039204803
1601.0096190904787 6337.961791226891
1601.7673924009723 6334.908150954656
1602.524981952196 6172.331639878553
1603.2823877926476 6367.750875973825
1604.0396099708087 6139.829164156514
1604.7966485351371 6021.121065166024
1605.5535035340745 6229.219627451638
1606.3101750160404 6476.695056252719
1607.0666630294363 6103.636339305498
1607.822967622642 5958.349144351598
1608.5790888440224 6254.369813268475
1609.3350267419137 6323.137494732752
1610.0907813646445 6130.7657955948325
1610.8463527605145 6139.2485770925605
1611.601740977805 6183.587814967434
1612.356946064785 6336.895926402939
1613.1119680696902 5829.89252788198
1613.8668070407512 6012.6956529517565
1614.6214630261748 5970.529812345827
1615.375936074137 6299.114145917286
1616.1302262328118 6004.789995704689
1616.8843335503425 6102.564270666241
1617.638258074854 5818.3487564955585
1618.391999854457 6099.685030533052
1619.1455589372363 6210.6943557673585
1619.8989353712623 6205.218610126971
1620.65212920458 5788.486080865491
1621.4051404852235 5872.262142501894
1622.1579692611976 5955.647336792451
1622.9106155804966 5787.507200029535
1623.663079491087 5800.288415908245
1624.4153610409248 5982.078474636784
1625.1674602779385 5816.8685141156675
1625.9193772500403 5698.36486068113
1626.6711120051277 6169.0517301589225
1627.4226645910676 5888.883432837538
1628.174035055721 5769.510261013544
1628.9252234469168 5898.897928822113
1629.676229812474 5798.852995337211
1630.4270542001905 6208.999740358131
1631.1776966578382 5798.907850878564
1631.9281572331747 5788.189150884371
1632.678435973945 6029.394779623701
1633.4285329278573 5867.081560580644
1634.1784481426203 5550.804337392621
1634.9281816659113 5713.062844840313
1635.677733545388 6054.173565712403
1636.4271038286934 5643.777827368953
1637.176292563452 5919.90316632379
1637.9252997972635 5794.174878545221
1638.674125577716 6003.104985930803
1639.4227699523672 6203.936615485832
1640.171232968767 5448.648505761918
1640.9195146744423 5791.78182919387
1641.6676151168977 5900.635028301089
1642.4155343436178 5854.011432720514
1643.1632724020765 5702.199738143617
1643.9108293397167 5703.068886611503
1644.658205203974 5642.659921121592
1645.4054000422566 6247.5250398348235
1646.1524139019566 5668.943608453594
1646.8992468304423 5375.883669132524
1647.6458988750728 5634.6949161659695
1648.3923700831765 5588.619598662537
1649.1386605020743 5627.104523117634
1649.8847701790564 5847.168642463488
1650.6306991614038 5680.718755835884
1651.3764474963682 5793.495567221676
1652.1220152311944 5298.0342137861535
1652.867402413096 5726.242251844897
1653.6126090892776 5537.8613150223555
1654.3576353069184 5886.8879223661115
1655.1024811131829 5687.478951132403
1655.8471465552066 5416.893377233659
1656.5916316801213 5867.784531030044
1657.3359365350298 5682.542057025874
1658.0800611670165 5538.487029048377
1658.824005623148 5455.994473990928
1659.5677699504722 5367.96638482444
1660.3113541960192 5520.330373568664
1661.054758406799 5448.488793646855
1661.7979826297997 5315.876706528765
1662.5410269119966 5286.891237117186
1663.283891300338 5571.869041596842
1664.0265758417645 5390.161212840485
1664.7690805831826 5500.852054759051
1665.5114055714948 5629.840667518212
1666.2535508535748 5852.846032148356
1666.9955164762814 5155.4848930084245
1667.7373024864555 5420.148941705406
1668.478908930916 5514.480716568624
1669.220335856462 5259.8581481472465
1669.9615833098778 5381.976385773858
1670.7026513379296 5285.109679169407
1671.44353998736 5548.911179023179
1672.1842493048916 5343.347287081445
1672.9247793372379 5271.813740141909
1673.6651301310812 5361.106234381847
1674.4053017330934 5332.545230968874
1675.1452941899242 5381.4694856693595
1675.885107548207 4872.048126952889
1676.6247418545518 4866.351724296133
1677.3641971555535 5117.78932135817
1678.1034734977893 5250.292263032004
1678.8425709278108 5178.720415908122
1679.5814894921605 5486.064726467961
1680.320229237359 5315.307998599676
1681.0587902098978 5373.589682750652
1681.7971724562685 5143.747702396367
1682.5353760229264 5082.817365839266
1683.2734009563173 5322.424720918278
1684.0112473028657 4942.648898398353
1684.7489151089794 5224.443712832558
1685.4864044210462 5260.426757306203
1686.2237152854377 4715.525553029893
1686.960847748498 5231.313310047769
1687.6978018565642 5009.715506865229
1688.434577655944 4985.08684367977
1689.1711751929379 4803.204802769711
1689.9075945138156 4993.489123031722
1690.6438356648396 4907.255491753072
1691.3798986922448 4636.008705674352
1692.1157836422499 5013.366281874232
1692.851490561059 4866.502027811524
1693.587019494853 4907.110519610068
1694.3223704897991 4568.096562740625
1695.0575435920364 4661.177618642163
1695.792538847696 5243.3740465331475
1696.527356302886 4773.960450472841
1697.2619960036936 4564.981284309581
1697.9964579961907 4608.887707051526
1698.730742326432 4340.521958114723
1699.4648490404488 4528.035897762029
1700.1987781842563 4678.492418495172
1700.9325298038548 4887.118222256392
1701.6661039452174 5018.3528790588225
1702.3995006543082 4725.793024976776
1703.1327199770658 4795.768325001704
1703.865761959416 4583.181677142645
1704.598626647261 4904.37780856859
1705.3313140864866 4527.928907574047
1706.0638243229587 4544.349320220022
1706.7961574025303 4759.9340869749585
1707.528313371029 4556.73124034753
1708.260292274268 4290.231057412531
1708.9920941580403 4582.499800149577
1709.7237190681226 4644.113868722861
1710.4551670502697 4530.099729596298
1711.18643815022 4251.34072729339
1711.9175324136959 4910.1427995488175
1712.6484498863938 4502.316668629248
1713.379190614005 4209.211091389293
1714.109754642188 4468.287289961548
1714.8401420165883 4433.177116731961
1715.570352782839 4907.627278761554
1716.3003869865497 4375.465994795959
1717.0302446733076 4280.407020128308
1717.7599258886876 4372.999754677399
1718.4894306782444 4852.950412959398
1719.2187590875183 4156.59325668233
1719.9479111620203 4748.409186969792
1720.6768869472544 4260.918758832686
1721.4056864887025 4680.886825547771
1722.1343098318284 4707.419939737361
1722.8627570220742 4380.736210769737
1723.591028104871 4103.738177398893
1724.3191231256242 4125.175715342439
1725.0470421297232 4293.787128867404
1725.7747851625427 4490.931192735128
1726.5023522694337 4444.779101965496
1727.2297434957363 4421.607816417157
1727.9569588867635 4111.035637598319
1728.6839984878152 4475.04093354241
1729.4108623441734 3811.257164366171
1730.1375505011038 4431.264913313922
1730.8640630038426 4203.4863616584225
1731.5903998976264 4195.993741213724
1732.316561227657 4332.108279682979
1733.0425470391274 4146.830715521564
1733.7683573772065 4192.775465458033
1734.4939922870508 4160.610005728349
1735.2194518137949 4259.072169856978
1735.9447360025606 4294.325017159428
1736.669844898439 4166.207694084049
1737.3947785465189 3994.7778034764624
1738.1195369918605 3884.5349726115537
1738.8441202795093 4263.7153075267
1739.5685284544943 4227.050820197727
1740.292761561821 4369.937196304404
1741.0168196464838 4237.086999812839
1741.7407027534518 4313.192551151483
1742.464410927687 4037.4590645451804
1743.187944214118 4066.8722665634623
1743.9113026576688 4081.952531060553
1744.634486303241 4062.7430453759744
1745.3574951957125 4066.088989973717
1746.0803293799509 4395.2893789607915
1746.8029889008048 4078.946907242059
1747.5254738031017 4180.898499847106
1748.2477841316504 4006.763794134154
1748.969919931249 3978.339221483731
1749.6918812466665 3976.9126860525334
1750.4136681226646 4392.838017810277
1751.1352806039777 4074.120755978272
1751.856718735331 3710.6388000588718
1752.5779825614281 3859.93608400871
1753.2990721269507 4260.08983770831
1754.0199874765676 4185.535700955916
1754.7407286549314 3814.5792042693165
1755.4612957066693 3945.834298783181
1756.1816886763954 3877.8578725462335
1756.9019076087097 4018.7951646712813
1757.6219525481865 4106.295197861318
1758.3418235393856 4035.3210487770657
1759.061520626854 4001.4889245729732
1759.7810438551096 4273.713755259521
1760.5003932686614 3862.530741482685
1761.2195689119999 4279.927048389125
1761.938570829594 4053.696446322454
1762.657399065898 4126.57562023767
1763.376053665348 3730.071501312176
1764.0945346723602 3697.3004486416526
1764.812842131334 4240.621556771949
1765.5309760866512 3838.7085972575683
1766.2489365826787 3838.2343392884277
1766.9667236637597 3936.5468756707296
1767.684337374223 3657.7934161096628
1768.401777758383 3699.529749852684
1769.1190448605284 3781.0594934479036
1769.836138724937 3703.6630812556914
1770.5530593958665 3991.773124223967
1771.2698069175603 4184.471407717111
1771.9863813342326 4019.8497061141475
1772.702782690094 3767.1465508945766
1773.4190110293293 4025.017790144375
1774.1350663961111 4014.372974079378
1774.8509488345844 3705.74118817541
1775.5666583888924 3860.2593876030687
1776.2821951031437 4108.294160199359
1776.9975590214362 3826.4464945290483
1777.7127501878585 4105.9679035624085
1778.4277686464684 3980.859362412249
1779.1426144413108 4111.434702088676
1779.8572876164162 4020.3127697066047
1780.571788215797 3600.9334660080144
1781.2861162834415 3984.5149080537158
1782.0002718633277 3765.6673143669127
1782.7142549994132 3922.386963220345
1783.4280657356376 3876.1707290736986
1784.141704115922 3730.409474548918
1784.855170184177 3913.526782481896
1785.5684639842839 4003.7616179612087
1786.2815855601148 3584.587561946834
1786.9945349555237 3875.1865752094127
1787.707312214343 3640.844124233351
1788.4199173803918 4219.190502881569
1789.132350497468 3620.353184812455
1789.8446116093583 3781.4718037263947
1790.556700759822 3644.0903053213597
1791.2686179926077 3708.3530621779078
1791.9803633514493 3710.914684327294
1792.6919368800554 3596.818154887677
1793.4033386221236 3885.706185715694
1794.1145686213295 3917.677504024459
1794.8256269213307 4005.2820156174757
1795.536513565774 3784.252841515533
1796.247228598284 3486.498100970986
1796.9577720624693 3716.6420192033693
1797.6681440019165 3790.288234722684
1798.3783444602013 3805.578023675086
1799.0883734808776 3839.671156992115
1799.7982311074884 3902.4503259613602
1800.5079173835475 3716.892392743945
1801.2174323525633 3769.2995971603914
1801.9267760580187 3700.996288250368
1802.635948543386 3762.166686905425
1803.3449498521113 3566.9394793759857
1804.0537800276325 3690.785849921387
1804.7624391133668 3701.341755379376
1805.47092715271 3362.3320065010384
1806.1792441890484 3454.0575455199396
1806.8873902657433 3735.9715101500683
1807.5953654261448 3643.1338785854423
1808.3031697135812 3513.6629694602843
1809.0108031713662 3612.6191601854616
1809.71826584279 3588.5080494764793
1810.425557771141 3636.6571371136333
1811.1326789996747 4110.328118667884
1811.839629571632 3580.018116166252
1812.5464095302468 3524.2614907677003
1813.2530189187182 3659.338876567216
1813.959457780249 3493.976882204615
1814.6657261580076 3835.241008388724
1815.371824095153 3703.2024970230414
1816.0777516348262 3709.0131935491786
1816.78350882015 3303.59932148118
1817.4890956942272 3380.555810685779
1818.1945123001533 3547.251397376109
1818.8997586809928 3560.1167026015223
1819.6048348798067 3573.007301714967
1820.3097409396287 3515.42662697745
1821.0144769034796 3910.5792824746577
1821.7190428143622 3666.495845907836
1822.423438715261 3736.7881406843326
1823.1276646491478 3532.3229200748015
1823.8317206589727 3691.269503569535
1824.5356067876692 3651.0351020350927
1825.2393230781581 3643.4667382804755
1825.942869573335 3252.542630014281
1826.646246316086 3312.0948041923866
1827.3494533492758 3533.1596094039583
1828.052490715756 3671.1152685235043
1828.7553584583547 3599.7292229474856
1829.458056619891 3575.5376769637282
1830.1605852431585 3419.286723317219
1830.8629443709433 3387.7194670634426
1831.5651340460063 3410.2168894410925
1832.2671543110919 3298.0496857604944
1832.9690052089318 3584.0628807490493
1833.6706867822395 3255.445394913274
1834.3721990737104 3574.4646286356533
1835.0735421260233 3689.0502865416847
1835.774715981841 3464.3508715941257
1836.4757206838058 3802.425925840599
1837.1765562745459 3365.278299139625
1837.8772227966747 3395.1589793732396
1838.5777202927839 3415.9105717910593
1839.2780488054523 3333.4172788838537
1839.9782083772352 3341.7351905248215
1840.6781990506806 3829.8340106439887
1841.378020868313 3397.0028481441577
1842.0776738726418 3463.0209137918587
1842.777158106157 3409.7579591212757
1843.4764736113375 3310.740554650195
1844.1756204306403 3698.1291034373885
1844.8745986065078 3405.4269152197767
1845.5734081813607 3194.2748616028903
1846.2720491976124 3340.4682059619927
1846.970521697649 3174.9920757155023
1847.6688257238511 3431.947127199718
1848.3669613185684 3326.205076135336
1849.0649285241452 3160.1840362001103
1849.7627273829057 3446.512674162397
1850.460357937156 3337.259474479151
1851.1578202291857 3055.557650689467
1851.8551143012664 3361.94137831552
1852.5522401956569 3481.2047971645457
1853.2491979545957 3560.7277916879807
1853.9459876203055 3156.0679430507885
1854.6426092349902 3168.6820829367484
1855.3390628408451 3290.3676035270532
1856.0353484800362 3506.5635749184344
1856.7314661947203 3474.6413513763523
1857.4274160270397 3155.9124587639717
1858.123198019115 3281.206253069603
1858.8188122130487 3145.3388284832427
1859.5142586509319 3320.166665999857
1860.209537374838 3244.7436731829675
1860.9046484268183 3265.45329053455
1861.599591848917 3465.850608649972
1862.294367683151 3314.6638270687013
1862.988975971528 3218.834305032496
1863.6834167560355 3354.2489009927313
1864.3776900786452 3531.6189840327693
1865.0717959813119 3205.662094972932
1865.7657345059724 3211.4603569471446
1866.4595056945564 3304.597582619449
1867.1531095889586 3391.004790302057
1867.846546231076 3153.4494039770802
1868.5398156627743 3536.5972272789686
1869.2329179259123 3188.606201806526
1869.9258530623283 3386.7358573504725
1870.618621113843 3107.224138382739
1871.3112221222636 3149.23739903051
1872.0036561293764 3129.738216034798
1872.695923176956 3206.8220107501575
1873.3880233067594 3490.699718894408
1874.0799565605212 3095.443344552447
1874.7717229799673 3231.729967031545
1875.4633226068036 3447.6387025712415
1876.1547554827175 3356.8964525392607
1876.8460216493859 3137.0942848113937
1877.5371211484617 3208.587793277974
1878.2280540215852 3424.348095685128
1878.9188203103804 3021.633950181907
1879.6094200564548 3280.914639594209
1880.299853301396 3026.3286939129976
1880.9901200867826 3482.901179502615
1881.6802204541673 3188.0473768754077
1882.3701544450942 3196.5994372913824
1883.059922101087 3029.9392781348697
1883.7495234636517 3396.0037072754444
1884.4389585742792 3040.367597907612
1885.1282274744517 3120.819542395425
1885.8173302056166 3164.803981243852
1886.506266809225 3208.852140821684
1887.195037326701 2942.289837513083
1887.8836417994517 3105.1665628383316
1888.5720802688702 3430.1799150605375
1889.260352776333 3385.3153998054295
1889.9484593632042 3234.798788230973
1890.63640007082 3151.330541218003
1891.3241749405151 3084.826486740418
1892.0117840135954 3316.2742373410047
1892.6992273313572 3106.1223986618324
1893.3865049350788 2883.9105852142557
1894.0736168660223 3541.3380549969056
1894.7605631654333 3273.9083768655514
1895.4473438745408 2925.7150636472893
1896.133959034556 3567.073996574092
1896.820408686679 3260.694189076511
1897.506692872088 3435.9872974595514
1898.192811631945 3084.717991222638
1898.8787650073991 3016.014936609404
1899.5645530395832 3329.940658696065
1900.2501757696118 3274.252552993711
1900.9356332385796 2958.7502205427704
1901.620925487574 3630.216680828208
1902.3060525576602 3247.8599858734606
1902.9910144898859 3261.9189988548915
1903.6758113252872 3049.8117307595126
1904.3604431048789 3175.9654023322114
1905.0449098696663 3256.0017460614336
1905.7292116606295 2965.89244320245
1906.4133485187394 3282.396843046047
1907.0973204849488 2766.7174113106
1907.7811276001976 2908.7805681032582
1908.4647699053967 3115.170548495784
1909.1482474414588 2609.326900383301
1909.8315602492694 2929.3921087930694
1910.5147083696957 3259.0679460381602
1911.1976918436012 3101.81044430396
1911.880510711815 2829.1151684799706
1912.5631650151681 3342.3246147373416
1913.2456547944657 2956.75643203701
1913.927980090495 2991.1233911162444
1914.6101409440362 3024.619013718489
1915.2921373958416 3127.4558637912032
1915.9739694866603 3050.2743608503115
1916.655637257214 3441.0254042965835
1917.3371407482136 3158.5525511914425
1918.0184800003572 3370.2690258919974
1918.6996550543154 3321.7342168346354
1919.3806659507554 3031.811432084677
1920.0615127303208 3185.950560563833
1920.7421954336423 3280.6777163365964
1921.4227141013343 3280.6040534193526
1922.103068773993 3138.227446390651
1922.783259492202 3218.0628297807207
1923.4632862965227 3135.2174300724796
1924.1431492275078 3037.5234662663106
1924.8228483256917 2865.302088586579
1925.5023836315922 2930.8057655953385
1926.1817551857057 2621.3109324482466
1926.8609630285227 3351.1146987410116
1927.5400072005123 3175.3985741491747
1928.218887742125 2923.7443438949676
1928.8976046938005 2787.9494044396356
1929.5761580959588 3169.649810728342
1930.2545479890086 3060.512081241307
1930.9327744133352 2663.710792547442
1931.6108374093164 3081.789555157725
1932.2887370173066 2811.321272784007
1932.9664732776473 3211.15907213987
1933.6440462306673 3022.6446165454136
1934.3214559166754 2959.775092306701
1934.9987023759659 3220.2698096988142
1935.675785648813 3045.555567853454
1936.3527057754836 2622.0559286235934
1937.029462796223 3340.4746275749544
1937.70605675126 2945.950446313248
1938.3824876808085 2782.7385252007048
1939.058755625072 2931.5751136640993
1939.7348606242267 2863.4254853281204
1940.4108027184448 2890.5885917364167
1941.0865819478713 3116.5713234936566
1941.7621983526478 2867.586694903276
1942.4376519728921 2797.105563826504
1943.1129428487038 2916.2678692893646
1943.7880710201734 3129.699516329226
1944.4630365273733 3212.8191347877637
1945.1378394103576 2688.064258217196
1945.8124797091714 2672.0003962453684
1946.4869574638324 2655.8111949954537
1947.161272714353 2921.7033575832243
1947.8354255007234 2998.7531408738114
1948.5094158629272 2815.896322062498
1949.1832438409183 3035.120153585394
1949.8569094746435 3198.5701427987606
1950.530412804037 3221.781340275808
1951.2037538690092 3173.2453380489674
1951.8769327094578 2787.699746573945
1952.5499493652678 2896.9630702112995
1953.222803876306 3199.8064428380667
1953.895496282421 3030.0048082319436
1954.5680266234522 3044.8322107336267
1955.2403949392155 2972.813202680117
1955.9126012695142 2644.1365260724897
1956.5846456541403 2848.779442272415
1957.2565281328643 2730.5227609882136
1957.9282487454457 3139.824607604078
1958.5998075316202 3013.9979732116108
1959.27120453112 2868.5386286484018
1959.9424397836501 2894.3241755448234
1960.613513328908 3024.081714211271
1961.2844252065697 3153.043679303363
1961.9551754563017 2758.8938631977935
1962.6257641177453 2725.5481525413497
1963.29619123054 2569.141135472619
1963.966456834296 2717.3348491914244
1964.6365609686181 2630.3684905328996
1965.306503673086 2824.8649360813083
1965.976284987275 2688.4272486163622
1966.645904950734 2835.6923354633464
1967.315363603002 2549.031120479317
1967.9846609836077 2838.237959832868
1968.6537971320486 2727.7659604574205
1969.3227720878222 2952.8197176129265
1969.9915858904042 2745.3385983421254
1970.660238579252 2875.693512174014
1971.3287301938108 2776.01122888591
1971.997060773514 2693.318418166049
1972.665230357772 2677.1610387410065
1973.3332389859843 2645.444766929169
1974.0010866975335 2575.2637250739335
1974.6687735317864 2815.5689119930717
1975.3362995280932 2894.4633485639615
1976.003664725793 2838.2314027942825
1976.6708691642052 2535.107121502621
1977.3379128826364 2591.5534267561256
1978.004795920373 2994.39259669187
1978.6715183166925 3236.1981851372575
1979.3380801108524 2448.5760549697306
1980.0044813420973 2771.2021078388825
1980.6707220496555 2467.6161354884302
1981.3368022727373 2806.0134032427527
1982.0027220505417 2770.319363500479
1982.66848142225 2357.594325177875
1983.3340804270283 2623.2379172334836
1983.999519104027 2765.2003856613965
1984.6647974923835 2768.002096984799
1985.329915631215 2885.28970333529
1985.99487355963 2846.8751550135885
1986.6596713167146 2973.310387678879
1987.3243089415428 2757.372146591389
1987.9887864731754 3105.545083927972
1988.6531039506553 2551.2092240158076
1989.3172614130071 3195.666081376382
1989.9812588992481 2619.291172701049
1990.645096448372 2353.5337214168303
1991.3087740993633 2715.128317853152
1991.9722918911848 2674.0486125872544
1992.635649862792 2800.306934609559
1993.2988480531185 2983.723145516858
1993.9618865010852 3306.845060466855
1994.6247652455968 2726.239715656244
1995.287484325545 2606.974865643103
1995.9500437798033 2759.840516040763
1996.6124436472292 2670.1883896981158
1997.2746839666706 2789.9255312004766
1997.936764776954 2665.384691389955
1998.598686116895 2688.058092474186
1999.2604480252903 3206.2022955628067
1999.9220505409212 2922.3014695977718
2000.5834937025593 2397.0214528656497
2001.2447775489582 2668.084768323233
2001.9059021188514 2770.5233939212153
2002.5668674509616 2484.2049312111953
2003.2276735839987 2642.9596327981612
2003.8883205566508 3081.608728851197
2004.5488084075987 2711.7240448369075
2005.2091371755014 2746.671081049371
2005.8693068990033 2334.7863374248036
2006.5293176167397 2856.5175696896417
2007.1891693673224 2534.6600643292813
2007.848862189354 2475.951582565031
2008.5083961214223 2626.1006307928924
2009.1677712020955 2569.8491077403646
2009.8269874699254 2492.813319910125
2010.4860449634598 2478.8029208368525
2011.1449437212177 2464.901920978772
2011.8036837817108 2982.6156551422455
2012.4622651834325 2942.973403480049
2013.1206879648653 2933.7369997971537
2013.7789521644736 2538.6929211451798
2014.4370578207036 2905.882905162881
2015.0950049719922 2643.848901800432
2015.7527936567585 2668.895257622624
2016.4104239134067 2701.320109880649
2017.067895780323 3247.8202721312537
2017.725209295886 3088.191344789506
2018.3823644984514 2928.0427058080095
2019.0393614263648 2740.8442990252897
2019.6962001179545 2639.252988352441
2020.3528806115355 2932.5076362929995
2021.0094029454067 2692.2658262228733
2021.6657671578487 2437.529588951565
2022.321973287133 2583.212464329832
2022.9780213715148 2493.8056639158413
2023.6339114492293 2541.571739929272
2024.2896435585026 2643.3547162607288
2024.9452177375442 2583.110043727011
2025.600634024544 2952.86391743056
2026.2558924576842 2626.4197053256325
2026.9109930751292 2866.734091331252
2027.565935915025 2501.127214769695
2028.2207210155066 3016.603794381116
2028.8753484146964 3038.01367952011
2029.529818150695 2978.789985590591
2030.1841302615903 2919.1823907066037
2030.8382847854573 2636.3029129247784
2031.4922817603601 2723.1420682851867
2032.1461212243357 2541.5462618783627
2032.7998032154192 2314.222877951183
2033.4533277716218 2520.800176263133
2034.1066949309443 2384.701609533987
2034.7599047313688 2490.0713972461776
2035.4129572108704 2761.636414627471
2036.0658524074006 2478.4746561854454
2036.7185903589016 2714.0317765870445
2037.3711711032956 2812.201279816484
2038.023594678496 2744.0421517536374
2038.675861122394 2450.580292905926
2039.3279704728757 2413.983038572745
2039.9799227678031 2377.524460586022
2040.6317180450278 2510.263038941482
2041.2833563423865 2537.9203783653506
2041.9348376977014 3025.949333204541
2042.5861621487784 2701.280160979814
2043.2373297334088 2633.1049023612586
2043.8883404893695 2704.018475243722
2044.5391944544208 2713.3886210017654
2045.1898916663158 2939.3682253140864
2045.8404321627804 2979.7324639653625
2046.4908159815368 2446.6842138382194
2047.1410431602853 2510.937534044981
2047.7911137367173 2428.2650218032863
2048.441027748504 2709.8400509267744
2049.090785233302 2456.420605652985
2049.7403862287592 2404.7637948746424
2050.389830772503 2342.9750579161496
2051.0391189021466 2281.1942847743735
2051.688250655294 2564.5619014899967
2052.337226069527 2251.163898700958
2052.986045182417 2752.4351467938286
2053.634708031521 2200.3474506366033
2054.283214654375 2819.954647058468
2054.931565088511 2143.1665063077335
2055.579759371436 2254.579231797998
2056.2277975406523 2678.0151990967415
2056.8756796336384 2827.0227354875983
2057.5234056878617 2649.923199567462
2058.1709757407752 2472.259635835749
2058.8183898298194 2868.363032347544
2059.465647992416 2725.102787544147
2060.1127502659747 2764.004223370768
2060.759696687888 2346.1520561652537
2061.4064872955405 2703.4058257040897
2062.053122126292 2836.434667131029
2062.699601217497 2156.8120617548657
2063.345924606485 2469.2665912721923
2063.992092330587 2571.058885899048
2064.638104427102 2459.686605315253
2065.283960933324 2856.9019887813374
2065.92966188653 2534.4050106839045
2066.5752073239855 2876.367603942076
2067.2205972829397 2352.4389824576974
2067.86583180062 2468.3414536303476
2068.5109109142522 2502.457534410078
2069.15583466104 2711.9290855635954
2069.8006030781708 2382.9315362439647
2070.445216202821 2503.6635275302333
2071.089674072153 2656.400904269752
2071.7339767233116 2662.168393151701
2072.3781241934303 2666.8215223276047
2073.0221165196253 2658.978695873959
2073.6659537390024 2346.290570469485
2074.3096358886505 2734.971304922615
2074.953163005637 2410.741110792412
2075.596535127028 2241.774178726833
2076.2397522898664 2254.6582418789685
2076.882814531182 2452.002104549804
2077.5257218879924 2683.983274333585
2078.1684743973 2171.820842236134
2078.8110720960885 2278.7598411509375
2079.453515021336 2436.3091605583786
2080.095803209997 2593.9747598253425
2080.7379366990135 2547.0826494608314
2081.37991552532 2590.947533245048
2082.0217397258275 2744.155705204865
2082.6634093374414 2136.4452635118905
2083.3049243970418 2456.7574506525607
2083.9462849415067 2620.8309495087265
2084.587491007689 2634.2061391162742
2085.2285426324324 2486.172516231588
2085.869439852564 2409.6815681186085
2086.510182704902 2323.8825143916724
2087.1507712262483 2382.629295411177
2087.791205453381 2174.980557498814
2088.4314854230743 2608.1070211749366
2089.0716111720867 2613.72493692788
2089.7115827371617 2281.420373181893
2090.351400155023 2371.1476290106507
2090.991063462385 2461.154896864903
2091.6305726959527 2065.270232362774
2092.2699278924047 2661.9149412690376
2092.9091290884153 2405.6726002220635
2093.548176320641 2273.9378340308144
2094.187069625721 2591.036826723692
2094.8258090402887 2360.88687556805
2095.464394600951 2622.5191638155243
2096.102826344313 2423.5869055577864
2096.741104306955 2786.9132007276958
2097.379228525453 2349.0130728945196
2098.017199036358 2535.288569208071
2098.6550158762147 2721.9495965647147
2099.2926790815527 2707.2276878770244
2099.9301886888825 2573.129457523091
2100.5675447347076 2578.2359157477613
2101.2047472555114 2660.2764649641786
2101.841796287761 2459.2930256621144
2102.47869186792 2625.6191011353135
2103.1154340324265 2329.2069314648224
2103.752022817709 2564.7482366591694
2104.388458260184 2317.642893153979
2105.024740396251 2438.1656953766774
2105.660869262292 2383.6546112003243
2106.296844894685 2672.9680073559603
2106.93266732978 2458.506853667687
2107.5683366039284 2126.2993121681466
2108.2038527534532 2575.8991611729116
2108.8392158146726 2607.894556303041
2109.4744258238843 2318.042589121188
2110.1094828173755 2468.9664361419045
2110.744386831422 2856.402960675129
2111.3791379022787 2551.398699055343
2112.01373606619 2720.2335337926547
2112.648181359389 2584.764277884725
2113.28247381809 2559.0753100973498
2113.916613478492 2499.2771994729396
2114.550600376786 2603.0761309171576
2115.1844345491445 2410.4451126531485
2115.818116031729 2250.0822778553256
2116.451644860679 2513.070495306922
2117.085021072133 2269.3087421435516
2117.718244702204 2275.113405364488
2118.3513157869984 2301.576973685348
2118.984234362604 2123.838842216644
2119.617000465092 2307.8446103851356
2120.249614130529 2683.089437761269
2120.8820753949585 2288.2057711087787
2121.5143842944162 2337.917749146526
2122.14654086492 2467.653706761521
2122.7785451424734 2611.389659104869
2123.4103971630702 2162.8700789613245
2124.042096962681 2534.951426953161
2124.6736445772767 2689.943365691809
2125.305040042802 2240.4392864624315
2125.936283395191 2398.0460803993897
2126.567374670365 2435.8555966197537
2127.198313904233 2303.7138198118723
2127.8291011326855 2263.444765427809
2128.4597363916037 2222.822484493641
2129.0902197168507 2350.3380413169293
2129.720551144279 2105.8152847319825
2130.3507307097225 2844.422677714024
2130.980758449008 2780.2142736836477
2131.6106343979427 2167.2458257397093
2132.2403585923203 2616.2024206768183
2132.8699310679276 2561.3552231289846
2133.499351860526 2552.605737302775
2134.1286210058715 2251.547210470033
2134.7577385397053 2031.4875832720074
2135.3867044977487 2736.6630189268853
2136.0155189157176 2765.892833605404
2136.644181829308 2682.6487588253344
2137.2726932742025 2362.615111227959
2137.901053286074 2731.9620417105393
2138.5292619005777 2234.723774840847
2139.1573191533535 2237.941594281589
2139.7852250800315 2444.9127658165244
2140.4129797162295 2502.5417367902855
2141.0405830975433 2241.607380618518
2141.6680352595613 2209.064553149349
2142.2953362378576 2176.4845093319855
2142.9224860679915 2217.768790876466
2143.549484785508 2294.5504411501165
2144.1763324259373 2275.263630730624
2144.803029024799 2304.021798410394
2145.429574617594 2178.0015595099617
2146.0559692398165 2599.9182889010476
2146.682212926942 2351.6376033401584
2147.308305714432 2304.9107267943295
2147.9342476377333 2611.545853898523
2148.5600387322847 2751.777931085485
2149.185679033506 2450.396080559778
2149.8111685768017 2250.7134405873626
2150.4365073975678 2031.8220860924007
2151.061695531187 2147.16558768111
2151.686733013021 2743.24776779566
2152.311619878423 2521.0090915179885
2152.9363561627342 2263.780053001805
2153.560941901278 2185.331073878051
2154.1853771293663 2515.6784295175835
2154.809661882293 2436.82424009422
2155.433796195348 2213.027897182506
2156.0577801037944 2739.2075301500145
2156.681613642895 2555.271308136397
2157.3052968478896 2170.381993969458
2157.928829754006 2509.573414846311
2158.552212396462 2596.8187826950916
2159.1754448104566 2505.3217726371777
2159.7985270311783 2215.5418730213833
2160.4214590938027 1782.5067924610958
2161.0442410334927 1869.048627801011
2161.6668728853874 2370.451761527107
2162.289354684628 2297.610630178719
2162.911686466332 2263.4829413557713
2163.533868265602 2486.9570412326184
2164.1559001175337 2722.3970596298695
2164.7777820572046 2482.054720415009
2165.399514119681 2219.1730487444293
2166.021096340013 2136.4445203681403
2166.6425287532384 2586.7231398364
2167.263811394385 2043.6710473519993
2167.8849442984574 2765.900285379719
2168.505927500455 2196.361300092651
2169.126761035366 2418.2003434286707
2169.7474449381552 2229.0902134736607
2170.367979243778 2382.5551455334803
2170.9883639871823 2536.535986164812
2171.608599203293 2190.9448813181725
2172.2286849270276 2692.0095097817375
2172.8486211932886 2786.392160310055
2173.4684080369625 2410.5211967327496
2174.0880454929265 1932.0192300879721
2174.7075335960417 1921.2150270081415
2175.3268723811543 2027.434002771141
2175.9460618831 2133.9494475233787
2176.565102136701 2224.2104025289836
2177.1839931767627 2209.8695798293393
2177.802735038078 2195.5225964143356
2178.421327755432 2170.4828621771617
2179.0397713635866 2210.6508203647254
2179.658065897298 2178.7693037251533
2180.276211391305 2401.9357571333358
2180.8942078803357 2229.501640925419
2181.5120553991 2264.180857058232
2182.129753982299 2082.9994622135323
2182.7473036646206 2194.0658019044135
2183.3647044807367 2363.228563312232
2183.9819564653044 2098.2698410429266
2184.599059652968 2382.392689847375
2185.216014078367 2363.7542519917606
2185.832819776113 2473.311559781389
2186.4494767808137 2582.98740901506
2187.065985127063 2106.6234732031157
2187.682344849436 2055.845002659808
2188.298555982501 2581.099201377421
2188.9146185608097 2288.7355255329467
2189.530532618901 2411.4589363763735
2190.1462981912937 2371.2686030157574
2190.761915312507 2427.6813566455257
2191.377384017036 2292.298191826228
2191.9927043393654 2308.062439014483
2192.6078763139667 1704.570958757405
2193.2228999753006 1890.6373594494144
2193.837775357808 2077.1128717973943
2194.452502495922 1979.3390749639002
2195.0670814240602 2158.060247593774
2195.6815121766285 1947.7038449722993
2196.2957947880186 1916.7224715288587
2196.9099292926057 1885.6852269322353
2197.523915724758 2192.9595586572354
2198.137754118825 2176.012109025297
2198.7514445091456 2565.729784044137
2199.3649869300443 2681.1336462836343
2199.9783814158327 2796.919648425409
2200.5916280008096 2761.607430649678
2201.2047267192593 2533.7562136390893
2201.8176776054515 2216.614980109335
2202.430480693649 1958.4009785708986
2203.0431360180955 2422.5066119184144
2203.6556436130195 2463.282367540293
2204.268003512645 1896.4611960278712
2204.8802157511727 2139.2178755498585
2205.492280362796 2642.7820354725964
2206.1041973816937 2305.061686473117
2206.715966842032 2269.188850478798
2207.3275887779655 2278.0276498902986
2207.93906322363 2310.566104831388
2208.550390213153 2538.5116924118565
2209.1615697806465 2386.088417700337
2209.7726019602105 1945.32686654012
2210.3834867859277 1994.6569306749036
2210.9942242918787 2107.3159451271054
2211.6048145121167 2149.2528177778768
2212.2152574806914 2923.184309161921
2212.825553231638 2087.4433516047575
2213.435701798975 2995.189744857679
2214.045703216707 2253.9158788014793
2214.655557518832 1793.824909943804
2215.2652647393297 1840.7932910086777
2215.874824912169 1668.1475136162207
2216.4842380713 2202.8845999357227
2217.09350425067 2133.056359313907
2217.7026234842033 2506.104052329532
2218.311595805819 2449.3573067357
2218.9204212494133 2139.606341214211
2219.52909984888 2623.793122599055
2220.137631638092 2578.6495859267116
2220.7460166509154 2533.2491110092687
2221.354254921198 1940.626223765989
2221.9623464827764 2243.825437567339
2222.5702913694713 2349.3344251992235
2223.178089615096 2531.2520150704045
2223.7857412534486 2077.385802269572
2224.39324631831 1675.961817583321
2225.000604843457 2196.530473009795
2225.607816862641 2342.724549623455
2226.214882409611 2275.2804545834088
2226.8218015180973 2542.88437509153
2227.4285742218217 2258.2022323351766
2228.0352005544864 2151.0158035290433
2228.6416805497847 1932.118568979011
2229.248014241399 2099.728560972959
2229.8542016629945 1805.1559925832576
2230.460242848223 2222.351299713941
2231.0661378307304 2022.6646949777482
2231.671886644139 1822.7988570481562
2232.277489322065 1915.4687245524067
2232.8829458981127 1704.4452000505607
2233.48825640587 2338.3404680699605
2234.0934208789095 2826.054725277895
2234.6984393507955 2401.157159402875
2235.3033118550793 2477.1688946289023
2235.9080384252975 2155.1469600213018
2236.5126190949723 1777.2484241440936
2237.1170538976166 2101.5479927978827
2237.721342866729 1774.2723565748213
2238.32548603579 1860.6016478234487
2238.9294834382763 2260.466962181964
2239.533335107646 2058.526346983135
2240.1370410773434 2134.9521217222787
2240.740601380803 1863.5678819853845
2241.3440160514474 2217.6496381203206
2241.9472851226783 2354.7227141175363
2242.550408627896 2112.3888010516926
2243.1533866004793 2460.29470135712
2243.756219073799 2051.1413604827876
2244.3589060812064 1893.5963827112275
2244.961447656049 2025.2428646229826
2245.5638438316564 2188.214114188325
2246.166094641343 2116.3099356851017
2246.7682001184166 1974.7180900516091
2247.3701602961664 2055.2368149767126
2247.971975207871 2232.366635368323
2248.5736448867974 2513.770270939932
2249.175169366197 2126.5998373510056
2249.7765486793123 2180.537784820778
2250.3777828593684 2283.560733333067
2250.9788719395783 2216.6982999395195
2251.579815953146 2136.1935254811333
2252.1806149332606 1833.1397689647888
2252.781268913097 2144.8423832796184
2253.381777925817 1854.7930309449573
2253.9821420045737 2144.448340262181
2254.5823611825035 2413.5559564429172
2255.1824354927303 2275.9053401166357
2255.782364968365 2099.9441552507847
2256.38214964251 1923.8048624244398
2256.9817895482483 1986.7354128732386
2257.5812847186553 2105.374491803968
2258.180635186791 1856.1752895879963
2258.779840985704 2066.7616935953247
2259.37890214843 2077.595353288638
2259.97781870799 2089.2341687354938
2260.5765906973957 2100.9109296696356
2261.175218149645 2332.168664597052
2261.773701097718 2263.2293764352885
2262.3720395745895 1787.468721530899
2262.970233613216 1987.1244958824057
2263.568283246548 2224.875074361023
2264.1661885075137 1944.6909739775474
2264.763949429038 1905.1304753997742
2265.3615660440246 1912.5205545157992
2265.959038385374 1919.9295748130837
2266.5563664859637 2279.9233719605127
2267.153550378669 2318.9414679327956
2267.7505900963424 2358.1749846237026
2268.3474856718312 2016.0471605976568
2268.9442371379664 2048.515831215949
2269.5408445275643 1908.6717390236313
2270.1373078734377 2220.8880798183736
2270.7336272083758 2018.2818825105655
2271.32980256516 2121.4822440468806
2271.925833976562 2240.1729552925476
2272.5217214753357 2336.037993746119
2273.117465094223 1908.2967179044813
2273.7130648659586 1943.99367383344
2274.308520823257 1961.2823857339185
2274.903832998827 2285.1465856500677
2275.4990014253563 1975.8875966695482
2276.094026135528 2301.877066593869
2276.6889071620117 1917.7837509866708
2277.2836445374614 2197.7632292177855
2277.878238294519 2074.2187634502197
2278.472688465812 1870.6285342957624
2279.066995083962 1666.6677580817225
2279.6611581815705 1968.7583906934833
2280.255177791232 1926.7772792744286
2280.8490539455233 2180.7135795676863
2281.442786677013 2435.2006619775048
2282.0363760182554 2412.552069424338
2282.6298220017943 2023.9924276250938
2283.223124660155 2400.3475366383855
2283.816284025859 2056.4804383722744
2284.4093001314086 2039.319197032477
2285.002173009292 2022.1611997088482
2285.5949026919952 2105.9963328398453
2286.1874892119777 2185.2745820001364
2286.7799326016993 1977.3272538603123
2287.3722328936 1768.8041599672129
2287.964390120109 1599.0631872435897
2288.556404313642 2178.411625150785
2289.1482755066027 2538.00548295597
2289.7400037313873 2145.739691091697
2290.3315890203703 1995.890944971437
2290.9230314059205 1935.0770765714994
2291.5143309203904 1874.224785038688
2292.1054875961236 1796.7429906659956
2292.6965014654506 2489.004080359109
2293.287372560684 1988.8871635859985
2293.878100914131 1913.9999600309395
2294.468686558086 1839.0144589361087
2295.059129524827 2136.8981059430835
2295.649429846617 2495.9276754136927
2296.239587555716 2144.7113502918223
2296.8296026843636 2174.0175163286176
2297.419475264791 2093.0523944670304
2298.0092053292137 2011.8065883731244
2298.598792909839 2240.689582670483
2299.1882380388597 2170.3641357089136
2299.777540748455 2710.2866240804824
2300.3667010707904 2466.707704716985
2300.9557190380256 2322.1588274489886
2301.544594682302 2069.8036743196953
2302.1333280357503 2429.8528541340056
2302.721919130485 2134.7063353595104
2303.3103679986198 2566.9250018748467
2303.898674672242 2333.8122755351196
2304.486839183437 2029.7647561842696
2305.0748615642697 1949.4733024053355
2305.6627418468015 2088.657092454113
2306.2504800630704 1924.596682661441
2306.8380762451143 2020.5936268943592
2307.425530424949 2105.4899202047422
2308.012842634582 2190.56467079583
2308.6000129060103 2442.9586428969465
2309.187041271214 2227.2352026983804
2309.773927762164 2604.723675248404
2310.3606724108213 2357.0379808447974
2310.9472752491274 2038.708537889952
2311.5337363090184 2290.985938556989
2312.120055622414 2182.6951181452923
2312.706233221221 2026.6812303308172
2313.2922691373424 1696.5739808692074
2313.8781634026564 1798.7290101855947
2314.463916049037 1901.1060233223157
2315.049527108342 2023.4344205504397
2315.6349966124235 2406.148882080798
2316.2203245931123 2257.299081791831
2316.8055110822315 2173.2324100593864
2317.3905561115935 2088.9337478461052
2317.9754597129977 1856.405743765849
2318.560221918229 1861.801865262884
2319.1448427590603 1867.2508219464514
2319.729322267256 1808.0591051616461
2320.313660474563 1846.8554666938708
2320.8978574127195 2033.10354489709
2321.481913113452 2219.9459148537626
2322.0658276084705 1894.3580839213587
2322.6496009294806 2115.909907328777
2323.233233108165 1700.6378068612562
2323.8167241762058 1877.2811873381688
2324.4000741652617 2019.103378036348
2324.983283106987 2411.4762841759866
2325.5663510330232 2303.3730605435803
2326.1492779749933 2036.4728493898754
2326.7320639645204 2158.102705762325
2327.3147090332004 1717.9508535563066
2327.897213212629 1919.2361163674827
2328.4795765343843 2120.6525026270297
2329.0617990300307 1981.6706174971623
2329.643880731124 2412.5001379367527
2330.22582166921 1947.029513927659
2330.807621875816 1716.4558097545814
2331.3892813824623 1485.6609129126768
2331.9708002206517 1604.087747750071
2332.5521784218818 1781.4404309489732
2333.133416017634 1959.2310935977737
2333.7145130393765 2054.903569781086
2334.295469518571 2297.3423600104697
2334.876285486658 2393.656391856982
2335.456960975076 2360.451334158707
2336.037496015242 2327.212938979084
2336.6178906385667 1994.459451942538
2337.198144876451 2209.2431687473154
2337.778258760278 2043.7351235395392
2338.3582323214214 2059.013347537896
2338.938065591243 2074.275384913958
2339.517758601087 2563.7152906099427
2340.0973113822965 2240.815326230857
2340.676723966193 2282.833117874451
2341.255996384094 2257.5431626135696
2341.835128667295 2372.189425859552
2342.4141208470883 2158.3242557453764
2342.992972954751 2241.930441419857
2343.5716850215467 2180.051156895621
2344.1502570787306 1371.7484763468424
2344.7286891575386 1815.9776793392261
2345.3069812892045 2087.0327651462403
2345.885133504944 2358.384976338854
2346.4631458359618 2034.486523126364
2347.04101831345 1743.1187729822425
2347.6187509685915 1829.634314113397
2348.196343832553 1713.8595146701027
2348.7737969364935 2097.1776378684335
2349.351110311558 1833.0040388052098
2349.9282839888765 1986.269951913091
2350.5053179995757 1765.5423273372915
2351.0822123747585 1782.6297142234148
2351.658967145526 1759.550152640252
2352.2355823429643 1736.5346434062365
2352.812057998144 2024.1940892531172
2353.3883941421263 1994.5558073816414
2353.9645908059647 2260.3647722501883
2354.540648020693 1963.5189511075391
2355.116565817336 2197.393844869968
2355.6923442269126 1881.384968499068
2356.2679832804224 2128.9413820788654
2356.8434830088518 1812.9835189904547
2357.41884344318 1800.6976694587133
2357.994064614377 1840.5678410787775
