#exp_cfg={"servo_angle": 0.0, "laser_lim": 100.0, "servo_angle_to": 18.0, "laser_wup": 0.0, "bt_dev": "EnSpectr-25AE3", "laser_wdn_max": 0.0, "frames": 10.0, "servo_used": 0, "servo_calib_use": 0, "laser_wdn_min": 0.0, "servo_pix_from": 90.0, "cooler_tout": 300.0, "servo_angle_from": 0.0, "servo_calib": "[-1.9174921013161362e-09, 3.9322238269163779e-05, -0.27385609119055809, 653.59552119713567]", "laser_autoctl": 0, "servo_pix_to": 3682.0, "laser_pw": 100.0, "cooler_on": 0, "laser_volt": 4.0, "cooler_autoctl": 0, "cooler_curr": 70.0, "cooler_startup": 10.0, "laser_fixed_pw": 0, "gain": 1.3, "offset": 2.53059635486, "servo_calib_degree": 3.0, "laser_curr": 55.0, "shutter": 8200.0, "servo_calib_step": 1.0, "laser_fixed_curr": 0, "exp": 2000.0, "ccd_volt": 4.7, "bt_addr": "00:06:66:62:5A:E3", "servo_delay": 500.0, "laser_autooff": 1}
#proc_cfg={"flat_auto_wnd": 200.0, "flat_auto_fr": 200.0, "flat_auto_shift": 5.0, "yconv": 1, "flatten": 1, "flatten_strength": 100.0, "xfrom": 300.0, "auto_max_frame": 2000.0, "auto_signal": 48000.0, "flat_auto_tol": 0.1, "autoclip": 1, "xrel_range": 0.0, "flat_auto_to": 4000.0, "intensity_adj": 1.0, "xrel": 7852.0, "rmhot": 1, "flat_auto_slit": 4.999999999999997, "auto_ini_exp": 300.0, "auto_off": 0, "xto": 2860.0, "flat_auto_ref": "", "flat_auto_rank": 1, "autobackg": 0, "xrel_adj": 0.0, "auto_black_lvl": 1, "base_wnd": 100.0, "sub_baseline": 0, "xconv": 2, "auto_max_exp": 1000.0, "auto_total_exp": 10000.0, "auto_exp": 0, "rmripple": 0, "black_lvl": 8275.6875, "shutter_clip_adj": 0.0, "auto_bckg": 0, "flat_auto_thr": 0.9, "subbackg": 1}
316.8218498245369 12427.563003710662
317.89969571804795 12232.767067512286
318.977263876126 12244.549589454287
320.05455438786703 12098.17843579648
321.1315673423287 12062.321307747427
322.2083028285215 12138.96775613941
323.2847609354267 11993.956994481261
324.3609417519747 12000.494701575451
325.43684536705587 11935.188703308108
326.5124718695279 11896.801061449696
327.58782134820103 11898.571219764304
328.66289389184385 11896.227537322533
329.7376895891921 11750.693855484878
330.8122085289342 11742.949716271567
331.88645079971866 11772.667639001882
332.9604164901575 11731.484435481336
334.03410568881554 11714.114348717329
335.1075184842266 11752.055263994134
336.18065496487543 11596.511518461442
337.2535152192122 11671.956531096974
338.32609933564163 11697.08064368351
339.39840740253203 11610.646383136544
340.4704395082099 11500.346978077134
341.5421957409617 11574.688842298281
342.6136761890357 11584.577646228407
343.6848809406365 11490.378437637897
344.75581008392874 11439.797935773859
345.82646370703696 11413.804076892015
346.8968418980512 11413.602330630243
347.96694474501055 11464.20047498324
349.0367723359268 11398.993426494371
350.106324758759 11396.454363856526
351.1756021014353 11315.571562597806
352.2446044518383 11303.55840763449
353.31333189781435 11398.401685426841
354.38178452716966 11247.621096532323
355.449962427665 11287.970927254795
356.51786568702846 11262.451520715085
357.58549439294256 11287.492478214512
358.6528486330535 11374.985774615936
359.71992849496564 11200.20357634165
360.7867340662433 11312.843637698958
361.8532654344144 11302.614156191212
362.9195226869597 11398.049229634427
363.9855059113288 11294.856928531017
365.05121519492604 11169.512986847374
366.11665062511565 11286.847038149604
367.1818122892273 11194.46551322624
368.2467002745434 11249.02856265965
369.31131466831175 11313.929473043227
370.375655557742 11279.031858581173
371.4397230299983 11252.68996187929
372.5035171722102 11173.769358708774
373.5670380714637 11178.264485811595
374.6302858148101 11329.272306038563
375.6932604892554 11256.228480595677
376.7559621817709 11261.233322864511
377.81839097928605 11118.459669580454
378.8805469686886 11177.969670358902
379.94243023683157 11289.197536614738
381.0040408705263 11159.610727685471
382.0653789565458 11026.060673492155
383.1264445816196 11162.887047548433
384.1872378324406 11115.025184192376
385.2477587956637 11135.840210368693
386.3080075579037 11041.373332318939
387.3679842057336 10955.119230390574
388.4276888256918 11074.36084469898
389.48712150426945 11039.443913231358
390.54628232792857 10951.597599303075
391.6051713830857 10918.032597158719
392.66378875611736 10952.536912770167
393.7221345333637 10883.512216083334
394.7802088011249 10894.98474189319
395.838011645661 10863.48139136707
396.89554315319765 10788.867415860566
397.9528034099112 10777.49648366903
399.00979250194723 10770.209021688384
400.06651051541485 10779.46922634829
401.1229575363741 10832.867708445863
402.17913365085224 10746.31214092434
403.23503894483656 10761.499197269006
404.2906735042761 10809.960002640806
405.3460374150818 10645.268148380363
406.401130763119 10725.2572304383
407.455953634224 10750.045678569202
408.5105061141876 10665.13495753178
409.56478828876243 10512.939611856984
410.6188002436629 10505.572987738979
411.6725420645689 10582.039810474973
412.72601383711117 10566.671436273762
413.77921564689314 10619.653269630526
414.8321475794728 10595.375848421343
415.88480972036814 10508.64946064413
416.93720215506437 10469.611497098807
417.9893249690049 10528.981895308907
419.04117824759123 10499.858939986498
420.09276207619223 10427.524601518408
421.144076540133 10444.384608737379
422.1951217247042 10404.049763873101
423.24589771515275 10456.805683081988
424.2964045966928 10451.617064964663
425.34664245449494 10396.293752312371
426.3966113736933 10372.424800254095
427.4463114393875 10299.830986916731
428.49574273662984 10353.812357067603
429.5449053504417 10298.44546895627
430.5937993658026 10460.374536891695
431.6424248676558 10364.214261330964
432.6907819409007 10328.873759223085
433.73887067040596 10355.245151000916
434.7866911409965 10341.326527555899
435.8342434374608 10286.776603917107
436.88152764455117 10297.06655145142
437.9285438469724 10226.611691702808
438.9752921294057 10267.891874744217
440.02177257648145 10251.789338749872
441.06798527279716 10131.428197420028
442.1139303029122 10285.415645111818
443.1596077513459 10270.062616779158
444.2050177025794 10181.45014851758
445.25016024105753 10200.034965897985
446.2950354511886 10203.996547094413
447.33964341733736 10219.974022559476
448.383984223834 10181.497136532991
449.4280579549686 10089.852040334295
450.471864694995 10186.948242811866
451.5154045281306 10202.224446796416
452.5586775385509 10185.693497970635
453.60168381039693 10160.444919378435
454.64442342776783 10266.498651611904
455.6868964747264 10207.522554507674
456.7291030353008 10132.222094508666
457.77104319347563 10239.026638317777
458.8127170332027 10231.485194662539
459.854124638392 10197.295831834348
460.895266092919 10332.138977411403
461.93614148061897 10273.483930227867
462.97675088529104 10298.490547440571
464.01709439069236 10267.358874644975
465.0571720805492 10243.775614684251
466.0969840385442 10303.38450512109
467.1365303483253 10439.88547408114
468.17581109350067 10345.490413933792
469.2148263576437 10268.493965713436
470.2535762242878 10351.719816238794
471.29206077693016 10410.765969742755
472.33028009902773 10456.90496936543
473.3682342740012 10421.360564652963
474.40592338523857 10381.597748729295
475.4433475160804 10414.139411923654
476.4805067498364 10398.842430233804
477.51740116978 10410.776113587774
478.5540308591426 10510.851446305924
479.59039590112116 10496.313327789652
480.6264963788726 10529.875062324505
481.6623323755193 10519.361516484974
482.6979039741436 10587.076024773529
483.7332112577915 10744.246867280901
484.76825430947247 10832.134451934704
485.80303321215797 10729.75877439621
486.837548048783 10807.696301670261
487.8717989022425 10932.862473491356
488.90578585539697 10909.586441029784
489.9395089910686 10993.098180358294
490.97296839203955 10847.788824646734
492.00616414106116 10735.811296378168
493.0390963208429 10746.352693513823
494.0717650140559 10764.33111572333
495.10417030333883 10742.037779536793
496.1363122712901 10769.50681440175
497.16819100046814 10588.787287246381
498.1998065734024 10581.49317329772
499.2311590725767 10575.33325612592
500.26224858044407 10427.346106845554
501.2930751794156 10379.439779081864
502.3236389518679 10451.514172696867
503.35393998014115 10298.648166652
504.38397834653733 10310.97789278434
505.4137541333221 10279.134178970116
506.4432674227228 10191.517662808608
507.4725182969323 10238.07665850665
508.5015068381035 10186.527344069764
509.53023312835467 10201.945011195405
510.55869724976765 10051.041356325188
511.58689928438434 10024.654262014545
512.6148393142121 10020.793844035921
513.6425174212218 10157.448757233253
514.6699336873462 10065.03088784046
515.6970881944835 10133.022789407622
516.7239810244901 10052.072993482518
517.7506122591931 10068.210935345665
518.7769819803761 10063.99402258962
519.8030902697901 10135.972878443647
520.8289372091476 10169.029344068116
521.8545228801249 10221.853737347732
522.8798473643619 10153.211457970712
523.9049107434621 10210.185554671898
524.9297130989908 10183.560754238704
525.9542545124805 10227.767680961357
526.9785350654201 10128.717331868535
528.0025548392696 10166.57420323209
529.0263139154504 10083.716525856198
530.0498123753423 10241.47661741658
531.073050300296 10095.056352536609
532.0960277716204 10099.401480132894
533.1187448705896 10047.503918655502
534.1412016784416 10135.601572915471
535.1633982763833 10111.787003319849
536.1853347455726 10102.801224610375
537.2070111671401 10119.299029948632
538.2284276221817 10006.063030901363
539.2495841917516 9924.514882705345
540.2704809568677 9873.609701040548
541.2911179985167 9939.034963671122
542.3114953976419 9857.15422813747
543.3316132351592 9794.105611973764
544.3514715919409 9836.220288424254
545.3710705488247 9790.674587025569
546.3904101866156 9762.06161747151
547.4094905860784 9767.08671875214
548.4283118279418 9687.416366066247
549.4468739929034 9799.99322989852
550.4651771616191 9715.876645230639
551.4832214147063 9652.186532617368
552.501006832761 9760.375360432983
553.5185334963226 9717.527358879504
554.5358014859103 9706.085264216186
555.5528108820035 9660.72528008996
556.5695617650363 9617.277287093231
557.5860542154242 9770.876591848111
558.6022883135283 9739.115893749562
559.6182641396881 9620.81701410396
560.6339817741991 9678.114351323551
561.6494412973225 9708.661492709707
562.6646427892883 9752.474949435438
563.6795863302796 9668.284900127166
564.694272000459 9637.410840391694
565.7086998799423 9755.196838611242
566.7228700488104 9689.23313384096
567.7367825871115 9655.556058218135
568.7504375748576 9665.185157871947
569.7638350920224 9684.095178211803
570.7769752185486 9703.949480335446
571.7898580343353 9706.06055443572
572.802483619258 9621.323700841622
573.8148520531431 9789.816491245683
574.8269634157932 9784.178643478517
575.8388177869692 9673.494169456219
576.8504152463938 9743.393558648087
577.8617558737587 9835.60887773825
578.8728397487175 9729.32723801047
579.883666950891 9787.43420842267
580.8942375598654 9870.451642162148
581.9045516551851 9937.884801586133
582.9146093163617 10088.726310016957
583.924410622878 9857.656147353704
584.9339556541727 9941.242850797837
585.9432444896538 10072.507889627968
586.9522772086875 9969.316145006667
587.9610538906127 10055.731282457811
588.9695746147318 10009.983530740536
589.9778394603054 10096.787253713721
590.985848506567 9930.951024638596
591.9936018327098 9880.89414529679
593.0010995178891 9766.81519505578
594.0083416412344 9868.033730110628
595.0153282818283 9726.323809641894
596.0220595187293 9693.730387620675
597.0285354309508 9716.887590168248
598.0347560974806 9706.467079822116
599.0407215972609 9683.699159612577
600.0464320092051 9646.264095937164
601.0518874121954 9708.690806014905
602.0570878850685 9648.846891605013
603.062033506636 9658.161734058542
604.0667243556636 9688.88402536701
605.0711605108936 9624.356146152906
606.0753420510264 9884.957652706424
607.0792690547278 9705.14265132217
608.082941600629 9725.899341773606
609.0863597673306 9735.446712309202
610.0895236333909 9722.09604445005
611.0924332773357 9880.84578025252
612.0950887776617 9759.403362840025
613.0974902128219 9825.353238409118
614.0996376612384 10062.442853979674
615.1015312013005 10001.840500971553
616.1031709113595 10090.396639591989
617.1045568697336 10021.568941845628
618.1056891547069 10072.587566175926
619.1065678445229 10207.380076827405
620.1071930173985 10477.887859568968
621.1075647515099 10469.942616529803
622.1076831250048 10407.17428651214
623.1075482159849 10576.178810713905
624.1071601025305 10605.18830567192
625.1065188626781 10674.035355700358
626.105624574433 10951.204934765123
627.1044773157682 10951.100636211635
628.1030771646128 10975.627098602108
629.1014241988742 11112.32453032203
630.0995184964158 11201.03484948014
631.0973601350688 11228.676388111553
632.0949491926294 11369.213280740882
633.0922857468631 11112.985135927538
634.089369875499 11281.112327302999
635.0862016562278 11184.395252223454
636.0827811667077 10967.376834308514
637.0791084845641 11040.444411692359
638.0751836873878 10920.157296400139
639.0710068527369 10962.14635283548
640.0665780581294 10793.12932166891
641.0618973810506 10663.34431578714
642.0569648989604 10763.171879009313
643.0517806892676 10548.388744184425
644.0463448293649 10546.738691725952
645.040657396592 10464.775178054335
646.0347184682723 10387.145097895995
647.0285281216875 10258.486270907339
648.0220864340772 10238.554409738736
649.0153934826558 10145.97767646131
650.0084493446047 10147.10347775116
651.0012540970674 10146.606288465617
651.9938078171526 10069.75756611119
652.9861105819346 10027.84203546235
653.9781624684565 10157.325800063783
654.9699635537254 9888.548984753505
655.9615139147136 10002.257141473849
656.9528136283589 9811.697247789578
657.9438627715699 9912.8917110728
658.9346614212154 9876.630871271465
659.925209654135 9715.62586479562
660.9155075471263 9732.042822515208
661.9055551769616 9804.645656773386
662.895352620375 9883.481247449065
663.8848999540678 9759.363332085431
664.8741972547068 9668.15740088002
665.863244598926 9592.075331240705
666.8520420633213 9669.17203705996
667.8405897244611 9552.958690660955
668.8288876588758 9512.127627951086
669.8169359430613 9602.860239229392
670.8047346534822 9576.996585187178
671.7922838665672 9416.020886081877
672.7795836587156 9537.080056959789
673.766634106285 9649.862697314857
674.7534352856092 9408.701238461588
675.7399872729766 9456.738027364909
676.7262901446538 9464.487055292955
677.712343976862 9483.067913327823
678.6981488457986 9556.529671684246
679.6837048276229 9442.138627918433
680.6690119984596 9471.689594872178
681.6540704344043 9373.104020072551
682.6388802115107 9373.82986615867
683.6234414058108 9387.414171616954
684.6077540932874 9301.073429064494
685.591818349907 9353.059076100184
686.575634251587 9317.585031831331
687.5592018742263 9347.321274800228
688.5425212936734 9147.301020415704
689.5255925857564 9336.805646292183
690.5084158262707 9227.294816930542
691.4909910909646 9149.69813566111
692.4733184555644 9131.984807129202
693.4553979957618 9233.31195142909
694.4372297872123 9242.190679973388
695.4188139055404 9167.56034356997
696.4001504263324 9102.241735886431
697.3812394251509 9168.02137196329
698.3620809775111 9190.31892029761
699.3426751589104 9095.35507596518
700.3230220448004 9073.972869295518
701.3031217106054 9102.504858006465
702.2829742317172 9286.284911246568
703.2625796834873 8988.842944997097
704.2419381412474 8951.580960279705
705.22104968028 9102.371933136306
706.1999143758458 8948.070731869882
707.178532303169 8965.708455607306
708.1569035374378 9088.691630940259
709.1350281538107 9110.951830810573
710.1129062274158 9033.37065636026
711.0905378333373 9152.352149510889
712.0679230466376 9109.218459723907
713.0450619423427 9201.223255464301
714.0219545954424 9324.117504536747
714.9986010808989 9146.330073508225
715.9750014736292 9235.455834570414
716.9511558485392 9276.737071957828
717.9270642804786 9414.955055641347
718.9027268442787 9344.94755988286
719.8781436147328 9310.38778364462
720.8533146666014 9275.33249858455
721.828240074612 9321.237718139939
722.8029199134635 9265.108181968058
723.7773542578125 9295.524613206519
724.751543182294 9225.945956080224
725.7254867615029 9336.268280999397
726.6991850700015 9074.37090239197
727.6726381823228 9151.84736179533
728.6458461729599 9231.35660865303
729.6188091163858 9102.347839658
730.5915270870246 9107.989158624088
731.5640001592856 8994.379213857068
732.536228407529 9064.252785386156
733.5082119060917 9076.780923757815
734.4799507292755 9039.776903571445
735.4514449513481 8981.23228316356
736.4226946465496 9076.937043737107
737.3936998890786 9254.20469488528
738.3644607531078 8972.997274715355
739.3349773127793 8990.44823532752
740.3052496421951 9058.46362520842
741.27527781543 8924.052862285393
742.2450619065221 8847.24700999548
743.2146019894826 8878.344630396381
744.183898138288 8958.201288620065
745.1529504268801 8834.469722493395
746.1217589291682 8752.079967588219
747.0903237190341 8725.054345302477
748.058644870318 8791.78019693993
749.0267224568397 8724.737978856801
749.994556552374 8618.731251715906
750.9621472306771 8704.156795700073
751.9294945654583 8674.444870342359
752.8965986304011 8713.981173414206
753.8634594991636 8598.629172254237
754.8300772453586 8744.935261537017
755.7964519425768 8644.071357237388
756.762583664371 8783.71573486478
757.7284724842611 8722.590165240566
758.6941184757416 8642.131708398647
759.6595217122667 8677.82402090276
760.6246822672638 8659.402503954048
761.5896002141235 8549.60232706824
762.5542756262093 8616.93754117419
763.5187085768503 8740.453623197896
764.4828991393406 8524.841238640152
765.4468473869474 8596.758150120108
766.4105533929032 8618.983974172854
767.3740172304078 8505.771689230276
768.3372389726283 8680.498628748033
769.3002186926988 8532.520306353832
770.2629564637282 8505.274673442964
771.2254523587872 8469.830873101737
772.1877064509154 8412.764032119636
773.1497188131179 8386.536394160408
774.1114895183728 8341.662154409742
775.0730186396268 8402.567020598435
776.0343062497905 8373.041133586388
776.9953524217381 8268.63382310328
777.9561572283274 8317.896697643539
778.9167207423689 8262.023874092678
779.8770430366476 8188.692572614704
780.8371241839159 8300.260554226381
781.7969642568951 8210.130056526668
782.7565633282757 8464.30537121105
783.7159214707099 8261.077025831239
784.6750387568281 8355.276514820845
785.6339152592227 8221.433336206257
786.5925510504512 8240.641771865801
787.5509462030477 8227.721109356029
788.5091007895098 8274.712262357792
789.4670148823006 8226.489462955435
790.4246885538596 8244.654596348217
791.3821218765861 8222.110890116206
792.3393149228505 8162.912003117432
793.2962677649975 8317.492858795396
794.2529804753303 8294.427762594598
795.20945312613 8339.149376731633
796.1656857896378 8268.499791180706
797.1216785380675 8204.889002663873
798.0774314435985 8318.517781909508
799.0329445783846 8465.40628400994
799.9882180145414 8353.035916798766
800.9432518241574 8312.977076317093
801.89804607929 8468.509053165857
802.852600851962 8441.15741247478
803.8069162141637 8494.249486632822
804.760992237856 8558.992852705063
805.714828994971 8606.908237648602
806.6684265574077 8622.68749200828
807.6217849970271 8516.041982888823
808.574904385674 8444.798598359102
809.527784795142 8622.143881295144
810.4804262972102 8696.618382260081
811.4328289636178 8480.27467343729
812.3849928660748 8340.055089917
813.3369180762638 8357.108170179408
814.2886046658241 8376.574562579575
815.2400527063783 8230.538746034426
816.1912622695108 8192.136212815987
817.1422334267718 8253.929860004318
818.0929662496856 8196.746368188988
819.0434608097457 8014.216919216342
819.9937171784059 8022.310140506376
820.9437354271013 7981.758215546835
821.8935156272255 8159.171089513991
822.8430578501484 7965.9842959986945
823.7923621672016 7863.210053147171
824.7414286496896 7945.09580303139
825.6902573688876 7949.405005071462
826.6388483960363 7890.933257397832
827.5872018023492 7840.060730630641
828.5353176590033 8013.785880981622
829.4831960371503 7826.707179080224
830.4308370079016 7804.525863356913
831.3782406423525 7853.764738600816
832.3254070115545 7879.107861049165
833.2723361865319 7672.999371289913
834.2190282382799 7671.054559588147
835.1654832377644 7796.211499684866
836.1117012559116 7729.1490929106485
837.0576823636256 7903.34583441082
838.003426631778 7721.326249084894
838.9489341312074 7700.2732033876255
839.8942049327197 7821.241012012113
840.8392391070975 7845.27171409225
841.7840367250865 7746.118993070253
842.7285978573982 7668.2214464954595
843.672922574724 7790.337286692401
844.6170109477152 7679.781682004595
845.560863046996 7718.974221661008
846.5044789431595 7664.534608308053
847.4478587067697 7588.681136251907
848.3910024083561 7834.973494357674
849.333910118421 7716.973922287276
850.2765819074339 7634.425238270624
851.2190178458332 7672.340238716422
852.161218004032 7744.2154324544335
853.1031824524016 7740.095540691027
854.0449112612987 7692.881655524686
854.9864045010327 7795.594487288889
855.9276622418947 7638.703637372406
856.8686845541379 7733.6807407117085
857.8094715079915 7689.874651553068
858.7500231736467 7863.027452646985
859.690339621271 7696.194074853525
860.6304209209939 7703.696748378126
861.5702671429244 7631.9253356479485
862.5098783571284 7710.36325295878
863.4492546336569 7745.651048559473
864.3883960425155 7705.354802080983
865.3273026536863 7683.4742234512905
866.2659745371238 7611.393346388516
867.2044117627465 7798.490443663429
868.1426144004472 7716.800954625576
869.0805825200823 7761.452517812932
870.0183161914847 7746.407546839876
870.9558154844526 7831.008494857732
871.8930804687552 7770.551443562719
872.8301112141307 7688.332643736867
873.7669077902865 7814.934507270978
874.7034702669062 7936.619407944227
875.6397987136315 7852.601845708341
876.5758932000863 7848.868503379839
877.5117537958522 7930.520574573636
878.4473805704911 7801.487455888188
879.3827735935283 7878.699132392045
880.3179329344603 7990.949736019824
881.2528586627541 8026.0094737749805
882.1875508478479 8028.743989054278
883.1220095591489 7865.288813371029
884.0562348660296 7882.329867350605
884.9902268378391 7967.283617810286
885.9239855438955 7858.572370910515
886.8575110534839 7739.075383496469
887.7908034358588 7833.864793619631
888.7238627602474 7832.290452549947
889.6566890958475 7787.306964393781
890.5892825118208 7660.9791367716225
891.5216430773125 7705.056548334374
892.4537708614189 7763.9089108799935
893.3856659332196 7612.580024050176
894.3173283617652 7582.819435042407
895.2487582160684 7646.6290496914025
896.179955565116 7551.912286390095
897.110920477864 7438.875842269228
898.0416530232451 7489.20028397057
898.9721532701478 7440.053593873754
899.9024212874428 7564.2351880404485
900.8324571439662 7339.400632045852
901.7622609085302 7407.286067941966
902.6918326499072 7356.252907362001
903.6211724368477 7416.285791090995
904.5502803380696 7534.640309957465
905.4791564222614 7555.577103940833
906.4078007580792 7353.765475954427
907.3362134141571 7379.078353704166
908.2643944590909 7478.80858577154
909.1923439614493 7336.6496260922795
910.1200619897754 7367.435620677032
911.0475486125779 7554.483240213647
911.9748038983344 7430.772385391954
912.9018279155007 7353.349680090369
913.8286207324982 7293.539630742556
914.7551824177117 7341.398184046583
915.6815130395116 7330.695419144325
916.6076126662283 7218.935888365161
917.533481366163 7353.501284276184
918.4591192075914 7334.935535093695
919.3845262587565 7454.973356272104
920.3097025878706 7294.711959622628
921.2346482631237 7260.28116382308
922.1593633526682 7321.587488714793
923.0838479246304 7353.552916752274
924.0081020471061 7353.520245893975
924.9321257881656 7184.319951446165
925.8559192158464 7303.094546426127
926.7794823981512 7167.116390800036
927.7028154030686 7198.213478969146
928.6259182985414 7092.9497329675705
929.5487911524906 7315.249127659807
930.4714340328119 7363.592053535815
931.3938470073608 7127.608141979113
932.3160301439748 7195.2003398951765
933.2379835104548 7155.070185867915
934.1597071745709 7274.012494615568
935.0812012040769 7224.441316057103
936.002465666681 7260.07783615097
936.9235006300696 7281.432119269298
937.8443061619055 7208.628285542625
938.7648823298077 7025.118489050996
939.6852292013809 7096.377241112152
940.6053468441951 7230.873995731289
941.5252353257874 7032.263647872553
942.4448947136698 7115.091670622623
943.364325075323 7145.9248952713315
944.2835264782043 7107.980508978866
945.2024989897309 7104.650000642854
946.1212426773054 7137.71777471403
947.0397576082851 7165.754142580011
947.9580438500125 7203.373602640728
948.8761014697939 7263.197715405743
949.7939305349064 7200.742557231325
950.7115311125999 7003.590395182623
951.6289032700952 7045.671862703513
952.5460470745875 7247.897794102542
953.4629625932339 7085.834911228073
954.3796498931715 7057.566612941142
955.2961090415029 7138.660488222641
956.2123401053068 7130.2680228859435
957.1283431516276 7071.015537412402
958.0441182474842 7034.932880933062
958.9596654598663 7221.739542761
959.8749848557309 7083.647696362765
960.7900765020167 7056.841975020599
961.7049404656209 6906.7242114907
962.6195768134185 7016.12908368902
963.5339856122537 7133.693785146085
964.4481669289453 7172.403439236141
965.3621208302793 7024.095324736784
966.2758473830145 7000.850742453171
967.1893466538822 7208.8539900762
968.1026187095813 6980.216264932582
969.0156636167867 7020.749090611217
969.9284814421426 7104.675669264347
970.8410722522622 6987.224682437847
971.753436113735 7028.8789125016865
972.6655730931161 6979.922908529338
973.5774832569368 7105.783263587446
974.4891666716958 6951.407499732736
975.4006234038698 6950.686139517132
976.3118535198955 6898.615198570634
977.2228570861935 7056.551926660019
978.1336341691494 7034.356101674568
979.0441848351202 6832.3420253748
979.9545091504333 7041.529294104647
980.864607181391 7042.551657667782
981.7744789942699 7007.767208580975
982.6841246553086 7017.982148660156
983.5935442307236 6963.500700250901
984.5027377867027 7049.461389401555
985.4117053894024 6966.43186278268
986.3204471049557 6918.933788724773
987.2289629994648 7001.654937563874
988.1372531390007 7109.351196562302
989.0453175896091 7019.746658047094
989.9531564173067 7138.580805515591
990.860769688079 6879.969893225281
991.7681574678918 6977.678094431246
992.6753198226706 7007.618678062781
993.582256818323 7027.088276666704
994.4889685207218 6965.985140625811
995.3954549957143 7238.197290447982
996.301716309119 7203.177695125776
997.2077525267232 7078.917777642257
998.1135637142943 7007.518535012379
999.0191499375615 7194.170068889066
999.924511262232 7175.953872821838
1000.8296477539861 7152.025572566791
1001.7345594784656 7039.688966946402
1002.6392465012996 7064.630189731302
1003.5437088880753 7153.3529577024865
1004.4479467043584 7068.9604075800835
1005.3519600156869 6941.078945452378
1006.2557488875718 7121.059432303356
1007.1593133854858 7094.396014028518
1008.0626535748888 6930.390480664563
1008.9657695212009 6892.721191424278
1009.8686612898182 7151.1718822077555
1010.7713289461135 7123.513214722283
1011.6737725554212 6991.460200409677
1012.5759921830577 6938.0016877282615
1013.4779878943027 6985.265290942637
1014.379759754418 6995.922188775623
1015.2813078286254 6942.454468742418
1016.18263218213 6858.547297836938
1017.0837328801026 6901.039339304145
1017.9846099876886 7031.624438905412
1018.8852635700023 6883.835359825755
1019.7856936921362 6699.649356165098
1020.6859004191447 6925.894272620991
1021.5858838160675 6867.963170825329
1022.4856439479063 6771.778047609367
1023.3851808796389 6704.369325168234
1024.2844946762143 6947.003869192265
1025.183585402554 6822.2310679180755
1026.082453123554 6656.863916640466
1026.9810979040776 6711.906371733314
1027.8795198089647 6644.618136440762
1028.777718903024 6809.061328591915
1029.6756952510368 6692.007415331924
1030.5734489177648 6683.97855506631
1031.4709799679313 6682.974667437207
1032.3682884662358 6813.275913717824
1033.2653744773506 6632.499960234563
1034.1622380659192 6573.2479402494455
1035.058879296559 6775.39398113708
1035.9552982338591 6883.069360662032
1036.8514949423825 6730.22841321074
1037.7474694866614 6643.115075385525
1038.6432219312028 6690.993030901877
1039.5387523404825 6902.972007352287
1040.4340607789582 6809.989284458529
1041.3291473110476 6824.68150672148
1042.2240120011465 6977.7378897582
1043.1186549136273 6996.791455748478
1044.0130761128294 6961.399550135054
1044.9072756630649 6937.377634130105
1045.8012536286205 7046.482085201965
1046.6950100737577 7041.722756209453
1047.588545062701 7220.195366463797
1048.481858659663 7090.765846010223
1049.3749509288118 7337.769515141605
1050.2678219343034 7088.060815249892
1051.1604717402515 7116.2896447611465
1052.0529004107575 6934.346517300239
1052.9451080098825 7089.237690937587
1053.8370946016694 7138.25067395397
1054.7288602501267 7065.741181451497
1055.6204050192446 7042.154312699628
1056.511728972977 7085.6640629635785
1057.402832175254 7090.779489089495
1058.2937146899785 6916.293981859608
1059.1843765810263 6834.963120332072
1060.0748179122456 7005.280051256421
1060.9650387474576 6891.721144620731
1061.855039150456 6847.469323331994
1062.7448191850071 6837.094422651526
1063.6343789148505 6837.063739060612
1064.5237184037014 6933.992975777804
1065.412837715241 6774.068087399175
1066.3017369131267 6778.597960202198
1067.190416060992 6771.084531014739
1068.0788752224398 6634.11976687745
1068.9671144610438 6640.595353496383
1069.8551338403558 6742.719781610394
1070.7429334239023 6753.836432873471
1071.6305132751695 6522.006948508972
1072.517873457633 6695.434575505491
1073.4050140347335 6619.788822404279
1074.2919350698776 6603.847058043505
1075.1786366264623 6581.184181967683
1076.0651187678395 6661.708540631393
1076.95138155735 6445.036063649819
1077.8374250582929 6498.27504862801
1078.7232493339507 6583.263339052358
1079.608854447577 6472.649660555647
1080.4942404623907 6425.649785501838
1081.3794074415982 6514.574426448389
1082.2643554483657 6449.310826795899
1083.149084545841 6394.3136351769745
1084.033594797138 6373.761413111593
1084.9178862653516 6415.04349330945
1085.8019590135427 6601.592863104114
1086.6858131047484 6237.19238887918
1087.5694486019802 6445.691419670675
1088.4528655682225 6435.463459627962
1089.3360640664287 6523.624264351007
1090.2190441595321 6388.650990284892
1091.1018059104317 6421.6485798069025
1091.98434938201 6521.905406471643
1092.866674637111 6494.371804719494
1093.748781738559 6401.479515363967
1094.6306707491512 6262.532078023446
1095.5123417316554 6417.542334287555
1096.3937947488157 6284.55468061431
1097.2750298633455 6322.49310630392
1098.156047137938 6291.354643464853
1099.0368466352556 6366.715098728131
1099.9174284179317 6496.922178843906
1100.7977925485757 6172.1502688948385
1101.6779390897755 6296.093797961603
1102.5578681040806 6261.259323301248
1103.4375796540226 6313.892192815145
1104.3170738021054 6263.295330495669
1105.1963506108077 6087.962058709658
1106.0754101425773 6175.0617340919325
1106.9542524598382 6207.494990437683
1107.8328776249855 6177.886074050807
1108.7112857003904 6188.681843108331
1109.5894767483987 6176.237065954267
1110.4674508313292 6334.148363235882
1111.3452080114657 6183.203109375156
1112.2227483510815 6273.2711300238025
1113.1000719124077 6224.6552366827345
1113.9771787576592 6323.844894477481
1114.854068949022 6371.734398682807
1115.7307425486542 6466.409436817372
1116.6071996186893 6508.7397826952965
1117.483440221229 6652.633711134593
1118.3594644183577 6287.495804536563
1119.235272272128 6415.6168045215545
1120.1108638445658 6533.898302322255
1120.9862391976712 6761.808728557921
1121.8613983934229 6605.660674291716
1122.7363414937627 6584.814829068952
1123.6110685606182 6702.192464646307
1124.485579655884 6766.377307626151
1125.359874841426 6686.400309402996
1126.2339541790916 6703.684691056495
1127.1078177306936 6990.098310341726
1127.9814655580267 6682.93879642843
1128.854897722851 6823.690808180651
1129.7281142869106 6748.626507747429
1130.6011153119125 6862.716064495483
1131.473900859548 6944.1167481079
1132.3464709914697 6783.024330395399
1133.2188257693178 6809.1026977958045
1134.0909652546961 6742.372324583897
1134.96288950919 6622.942681770999
1135.8345985943506 6768.016218732952
1136.7060925717087 6551.7774248439455
1137.57737150277 6586.017009376893
1138.4484354490069 6703.264405884773
1139.3192844718778 6582.33133355079
1140.1899186327992 6354.576143108157
1141.060337993178 6524.394718226804
1141.930542614382 6342.728232320892
1142.8005325577597 6371.7544232224445
1143.670307884635 6165.310124780982
1144.5398686563003 6348.827755928962
1145.409214934025 6249.043251148132
1146.2783467790541 6109.172373143838
1147.1472642526023 6162.173810152227
1148.0159674158622 6295.152239806746
1148.8844563300026 6055.525980924237
1149.7527310561618 6066.199307359809
1150.6207916554504 5966.0630600391
1151.4886381889592 5947.512880222288
1152.3562707177498 6084.482767287988
1153.2236893028585 5942.237776693026
1154.090894005296 5789.728421613165
1154.9578848860474 5955.230717536961
1155.8246620060709 5891.366749854127
1156.6912254262988 5759.7902935470365
1157.5575752076438 5810.927647494339
1158.42371141098 6090.277047082976
1159.2896340971656 5973.755123453011
1160.1553433270346 5896.978696361447
1161.0208391613887 5963.625606199457
1161.8861216610057 5916.837829991138
1162.75119088664 5902.370351409081
1163.6160468990201 5855.770814273576
1164.4806897588442 5802.127332007782
1165.3451195267917 5944.687796276799
1166.2093362635114 5848.541789141571
1167.0733400296285 5813.990852626862
1167.9371308857444 5712.71443145282
1168.8007088924278 5785.099301048436
1169.6640741102328 5816.467030507856
1170.5272265996773 5715.4212037731595
1171.390166421259 5594.5763930551775
1172.252893635452 5848.122073659588
1173.1154083026995 5921.742559065293
1173.977710483421 5862.2454938200935
1174.8398002380145 5638.737588986143
1175.7016776268483 5895.880485350995
1176.563342710264 5719.02781274865
1177.4247955485826 5786.527226084291
1178.2860362020947 5767.820428023994
1179.147064731069 5625.557765114855
1180.0078811957483 5819.790806390073
1180.8684856563486 5725.5345100036175
1181.7288781730604 5853.06758306267
1182.589058806052 5827.198187342036
1183.4490276154593 5971.0138990748155
1184.3087846614017 5790.145316378447
1185.1683300039676 5866.5088731924125
1186.027663703222 6074.297292511728
1186.8867858192025 5885.58190335819
1187.7456964119228 5916.83521747769
1188.6043955413716 5941.702375770969
1189.4628832675116 5992.547795787058
1190.3211596502842 6150.698215410999
1191.179224749596 6121.887903255016
1192.0370786253388 5897.093792400561
1192.8947213373758 6155.570518287225
1193.7521529455407 6254.594896348857
1194.6093735096438 6001.077994199442
1195.466383089477 6045.508498512763
1196.3231817447977 6063.368002764013
1197.1797695353398 6125.184832377456
1198.0361465208189 5890.774023000809
1198.8923127609214 5951.78538365387
1199.7482683153048 6155.681623662947
1200.6040132436028 6219.7389052596245
1201.459547605431 6002.698990327909
1202.3148714603722 6082.975602549674
1203.1699848679855 6041.974009183001
1204.0248878878065 6097.452837796177
1204.8795805793507 5806.134739395797
1205.7340630020935 5982.822168272868
1206.5883352155033 6121.255758619737
1207.4423972790064 6084.572757004082
1208.2962492520237 5886.77098018498
1209.1498911939307 5884.248569500198
1210.0033231640937 5942.794344818845
1210.8565452218427 5959.824262165854
1211.7095574264913 5703.299888571946
1212.5623598373222 5760.176051593669
1213.4149525135963 5748.624075052648
1214.2673355145507 5784.858709905371
1215.1195088993936 5702.207084334845
1215.9714727273113 5687.46304834388
1216.8232270574663 5947.4031434213075
1217.6747719489904 5495.29501100829
1218.5261074609934 5614.512142070716
1219.3772336525653 5669.897522497306
1220.2281505827668 5728.431226909951
1221.0788583106296 5746.803250805039
1221.9293568951707 5567.890462812758
1222.7796463953746 5495.565469994493
1223.629726870202 5790.770168287068
1224.4795983785934 5653.031973184011
1225.3292609794553 5636.655183707172
1226.1787147316809 5543.612001536663
1227.0279596941327 5516.077585875
1227.8769959256424 5459.542097351414
1228.7258234850306 5661.6285655009015
1229.5744424310833 5391.065608013115
1230.422852822563 5651.668408476473
1231.2710547182105 5783.163948357471
1232.119048176739 5611.601693356779
1232.9668332568417 5384.377889933303
1233.8144100171812 5642.224577919769
1234.6617785163999 5663.908056772466
1235.508938813111 5368.949389970579
1236.3558909659114 5478.397041756654
1237.2026350333617 5711.582734650612
1238.049171074008 5605.015932600769
1238.8954991463652 5482.027498444988
1239.741619308932 5466.813878861098
1240.587531620169 5560.06548311899
1241.4332361385277 5652.08019754146
1242.2787329224248 5435.997122906769
1243.1240220302534 5289.002681139455
1243.9691035203869 5437.975661182964
1244.813977451171 5708.715055128011
1245.6586438809263 5537.05290754163
1246.5031028679496 5327.793714884259
1247.3473544705157 5523.282481060593
1248.1913987468706 5438.19876258887
1249.0352357552383 5183.708645325164
1249.8788655538228 5351.874948568669
1250.7222882007918 5407.520406662881
1251.565503754302 5528.072263958274
1252.4085122724755 5234.849235121401
1253.2513138134182 5505.46344645511
1254.0939084352049 5538.827389712671
1254.9362961958905 5395.072123956643
1255.7784771535007 5363.0237725453335
1256.6204513660432 5429.695311129721
1257.4622188915 5603.685411781799
1258.3037797878242 5304.997455178624
1259.1451341129468 5323.785519215669
1259.9862819247755 5373.207263574501
1260.8272232811978 5382.191708660809
1261.6679582400666 5575.54325790069
1262.5084868592203 5224.6877374618325
1263.34880919647 5203.1997574881225
1264.1889253095997 5413.632096873699
1265.0288352563712 5509.256403232322
1265.8685390945266 5259.000838982684
1266.7080368817751 5390.611183866346
1267.5473286758115 5529.050198414529
1268.386414534294 5386.7186107646685
1269.2252945148703 5078.772583013702
1270.0639686751547 5266.526452356146
1270.9024370727402 5311.264669263654
1271.7406997651997 5235.504199016617
1272.5787568100714 5121.774522355132
1273.4166082648808 5164.942938939716
1274.2542541871244 5258.66808734639
1275.091694634275 5505.154655134461
1275.9289296637817 5100.694444364576
1276.7659593330663 5282.183928795153
1277.6027836995308 5238.929786345218
1278.4394028205552 5388.873634825792
1279.2758167534867 5297.191705964217
1280.112025555658 5261.447264878311
1280.9480292843746 5338.632618117432
1281.7838279969128 5064.720674461693
1282.6194217505326 5247.796164891844
1283.4548106024686 5129.49643789462
1284.289994609926 5153.722076175238
1285.1249738300921 5310.1754202512775
1285.959748320127 5149.805737103385
1286.7943181371702 5236.873645961221
1287.6286833383328 5218.5718779667895
1288.4628439807038 5272.215333337904
1289.2968001213521 5101.079740500696
1290.1305518173194 5242.928658235052
1290.9640991256183 5276.489456444703
1291.7974421032523 5097.274567911902
1292.630580807183 5203.390548506063
1293.463515294361 5263.858407295687
1294.29624562171 5344.599909028813
1295.12877184613 5144.364063818241
1295.961094024493 5129.849336425242
1296.79321221365 5271.43028350912
1297.6251264704333 5240.67383810194
1298.4568368516466 5495.963674003512
1299.2883434140658 5323.1729303368675
1300.1196462144526 5090.07093839858
1300.9507453095375 5367.853806359864
1301.7816407560313 5295.418376415624
1302.6123326106172 5294.490035467324
1303.4428209299622 5140.749034800817
1304.2731057707024 5462.565734636048
1305.1031871894502 5209.3984191070485
1305.933065242798 5302.656049275907
1306.7627399873181 5275.578073514585
1307.5922114795467 5582.949295555058
1308.4214797760123 5800.651697026663
1309.2505449332057 5401.832533302117
1310.0794070076026 5326.125165209754
1310.9080660556538 5598.41975859316
1311.736522133786 5557.593557873193
1312.5647752983987 5308.47883113933
1313.3928256058734 5070.453779690632
1314.2206731125661 5380.6658287000755
1315.048317874809 5400.148919816492
1315.8757599489109 5282.068332418465
1316.7029993911547 5365.603872237335
1317.5300362578055 5512.909912722809
1318.356870605101 5284.137745282987
1319.183502489257 5307.889150973601
1320.0099319664623 5318.625450894702
1320.836159092889 5454.607352801804
1321.66218392468 5375.581037739739
1322.4880065179532 5144.418864672627
1323.3136269288134 5378.043665099542
1324.1390452133292 5461.2917296434
1324.9642614275563 5457.78615660488
1325.7892756275214 5368.736065944772
1326.6140878692295 5225.938731109419
1327.4386982086617 5689.202820884762
1328.2631067017755 5382.712223454752
1329.0873134045069 5495.432322193827
1329.911318372764 5360.0437996120145
1330.735121662441 5386.382250492381
1331.558723329399 5316.761759491627
1332.3821234294774 5344.70352808479
1333.2053220185007 5341.796747648374
1334.0283191522612 5302.406912875589
1334.851114886529 5438.011360239986
1335.6737092770582 5132.682269431467
1336.4961023795695 5222.275380343471
1337.3182942497697 5126.493047667499
1338.1402849433325 5249.945411120789
1338.962074515921 5116.752552098577
1339.7836630231632 5073.669507531498
1340.6050505206676 5612.9044529542225
1341.426237064028 5463.433917885411
1342.2472227088037 5139.154196358457
1343.0680075105338 5030.461803090866
1343.888591524741 5222.176171852324
1344.7089748069138 5437.990619255484
1345.5291574125276 5227.160974392433
1346.3491393970307 5065.255623243457
1347.168920815846 5398.692011463334
1347.9885017243778 5341.516800503224
1348.8078821780036 5136.065587410581
1349.6270622320844 5179.894983383197
1350.4460419419447 5075.899964624124
1351.2648213629054 5218.602537349542
1352.0834005502438 5060.734602801085
1352.90177955923 5044.571427612036
1353.7199584451064 5291.558550808827
1354.5379372630887 5224.0250268527625
1355.355716068374 5123.082979459544
1356.1732949161305 4935.814318317595
1356.9906738615155 5080.426209196064
1357.8078529596478 5017.8929880976675
1358.6248322656375 5187.317090887883
1359.441611834567 4977.505648635269
1360.2581917214866 5216.329788928555
1361.0745719814367 5095.739809001902
1361.890752669433 5003.872456604429
1362.7067338404577 4930.724183051724
1363.5225155494845 5188.213818712687
1364.3380978514506 5169.758062190785
1365.1534808012839 4806.39165272
1365.9686644538815 4711.59717843101
1366.783648864117 5228.219730838934
1367.5984340868417 5252.609969494711
1368.413020176893 5119.860441512652
1369.2274071890715 4795.611554557453
1370.0415951781652 5092.2316424693045
1370.8555841989346 5212.548572616285
1371.6693743061223 4874.833785042951
1372.48296555444 4749.9625224924
1373.2963579985844 5083.877013425508
1374.1095516932255 5011.580204711064
1374.9225466930166 4676.9029480475565
1375.7353430525782 5015.591439652283
1376.5479408265164 4809.789845873214
1377.36034006941 5019.805797815105
1378.1725408358216 5071.408042305242
1378.9845431802805 4800.685140285798
1379.796347157304 5226.729249550104
1380.6079528213813 5069.79292535148
1381.4193602269788 4736.973596706734
1382.230569428546 4837.322078340885
1383.0415804805016 5004.820053689212
1383.852393437246 4982.009255412638
1384.6630083531563 4970.453072732205
1385.4734252825892 4738.5888933103015
1386.2836442798798 4910.079856878897
1387.0936653993322 4832.671451034667
1387.9034886952395 4820.736303140479
1388.713114221864 4953.499441743965
1389.5225420334482 4968.885546852708
1390.331772184214 4760.00935502856
1391.1408047283585 4639.286806831782
1391.9496397200564 4810.182607975768
1392.758277213461 4912.629021012338
1393.5667172627054 5033.973017240298
1394.3749599218918 4777.8171205347035
1395.1830052451114 4673.187986960032
1395.9908532864265 4820.810685617906
1396.7985040998774 4984.708622758881
1397.6059577394808 4743.629080703546
1398.4132142592352 4687.986044753347
1399.2202737131156 4668.128106707737
1400.027136155073 4935.983159626002
1400.8338016390353 4734.181783308313
1401.6402702189134 4752.66269692103
1402.446541948586 4795.536557085351
1403.2526168819204 4627.278310656054
1404.058495072757 4665.117190144285
1404.8641765749107 4729.45137470183
1405.6696614421799 4717.864431506606
1406.4749497283356 5127.516935975041
1407.280041487129 4637.260750619203
1408.084936772295 4514.471333138872
1408.8896356375335 4910.534693581042
1409.6941381365323 4802.332483026607
1410.498444322955 4556.505261302811
1411.3025542504402 4660.495912118949
1412.106467972606 4765.889091307405
1412.9101855430508 4749.70442624594
1413.7137070153458 4388.385977002701
1414.5170324430437 4580.964640828353
1415.320161879672 4754.033857371806
1416.1230953787435 4878.788592757022
1416.925832993742 4522.980881766127
1417.7283747781275 4438.60837674757
1418.5307207853439 4704.4052332998735
1419.3328710688093 4646.413304846596
1420.134825681922 4260.607552427243
1420.9365846780584 4580.890482157198
1421.7381481105713 4744.472112861402
1422.539516032788 4607.704535941535
1423.3406884980232 4482.552395783461
1424.1416655595604 4422.946934028839
1424.942447270665 4551.012953267008
1425.7430336845828 4673.757793885527
1426.5434248545298 4418.121426296489
1427.3436208337116 4536.887253714183
1428.143621675301 4523.212962902746
1428.9434274324558 4795.687322966533
1429.7430381583108 4416.061233621222
1430.5424539059713 4449.349013425655
1431.3416747285337 4839.572083366651
1432.1407006790632 4586.0360539340145
1432.9395318106053 4511.023529239007
1433.7381681761835 4394.653103994859
1434.5366098288014 4582.083356056831
1435.3348568214424 4668.635039289318
1436.1329092070573 4421.036592862612
1436.9307670385879 4576.97168433057
1437.7284303689503 4776.794301111641
1438.5258992510335 4702.591973533368
1439.3231737377118 4597.742855591342
1440.1202538818306 4612.17743042693
1440.9171397362225 4574.504533047081
1441.7138313536925 4526.079016350986
1442.5103287870243 4318.004758996477
1443.3066320889775 4300.1005739799275
1444.1027413122956 4724.930865215516
1444.8986565096966 4538.475743717159
1445.694377733882 4509.470622557253
1446.4899050375207 4292.163181720924
1447.2852384732687 4386.897414609014
1448.0803780937622 4588.967812152782
1448.8753239516063 4301.474031271367
1449.6700760993954 4148.505837295097
1450.464634589689 4417.141337482988
1451.2589994750397 4679.751335884596
1452.0531708079689 4192.580472568556
1452.8471486409799 4180.059654450872
1453.6409330265524 4610.324360954758
1454.4345240171442 4313.1331200570585
1455.2279216651987 4267.021772144919
1456.0211260231263 4342.375974899705
1456.8141371433194 4472.318113447542
1457.6069550781594 4526.594772910384
1458.3995798799897 4110.145242247034
1459.1920116011424 4183.477998781214
1459.98425029393 4100.691716240921
1460.7762960106338 4188.023050632323
1461.5681488035225 4221.322221629023
1462.3598087248392 4395.419613459147
1463.1512758268036 4545.2142520027965
1463.942550161617 4172.9343187437635
1464.7336317814625 4178.053800627216
1465.524520738496 4351.259491335739
1466.3152170848552 4192.993658114846
1467.1057208726506 4191.697275102663
1467.8960321539817 4127.7591481710715
1468.6861509809169 4011.517134908365
1469.4760774055085 4105.710785489069
1470.265811479785 4189.239391279855
1471.055353255755 4026.5206614520553
1471.844702785409 4012.4630811469206
1472.6338601207044 4010.1209152595256
1473.4228253135934 4285.464317820995
1474.2115984159936 3996.5034234783443
1475.0001794798063 3848.4886719337483
1475.7885685569145 4170.257859900306
1476.576765699172 4113.227250618083
1477.3647709584238 4077.976924895559
1478.1525843864802 4343.082111802834
1478.9402060351367 4121.419812496195
1479.7276359561693 4187.109995651385
1480.514874201328 4060.8139490828994
1481.3019208223468 3869.808189490628
1482.0887758709323 3788.996305681677
1482.8754393987747 4217.02224734806
1483.6619114575406 3938.1737858469946
1484.4481920988783 3979.255610593794
1485.2342813744108 4144.239981748602
1486.0201793357446 4228.378274992093
1486.8058860344572 3919.1599082710536
1487.591401522117 3939.442477996244
1488.3767258502594 4006.127327573368
1489.1618590704056 4032.559168937718
1489.9468012340494 3704.250609453429
1490.7315523926754 4158.108108305464
1491.5161125977356 4187.610250669464
1492.3004819006637 4099.159835915018
1493.084660352877 3934.836865856346
1493.8686480057622 4144.66273084944
1494.6524449106964 4311.7329897112495
1495.4360511190262 4310.043295150733
1496.219466682087 4126.197134645191
1497.0026916511779 4121.999515374638
1497.7857260775945 4083.7128674704036
1498.5685700125996 4155.452607841027
1499.3512235074395 3921.998689223217
1500.133686613337 3853.6154391347604
1500.9159593814966 4035.741719777788
1501.698041863101 4438.302354932705
1502.4799341093094 3862.2174200847667
1503.2616361712662 3758.748081375333
1504.043148100087 4186.675044945948
1504.8244699468742 4094.6188385174028
1505.6056017626997 3900.9042918876576
1506.3865435986281 3787.197735551573
1507.1672955056893 4141.595001866317
1507.9478575348967 3924.894451111492
1508.7282297372512 4264.5465689533585
1509.5084121637192 4018.9420249655764
1510.2884048652577 4055.512339280569
1511.0682078927948 3940.1873294125608
1511.8478212972423 3928.004582131405
1512.6272451294917 3905.0270785525026
1513.4064794404076 4071.7434597445035
1514.1855242808433 4065.6835706621705
1514.9643797016215 3925.0343668737733
1515.743045753552 4055.487186585246
1516.5215224874191 4111.89329242386
1517.2998099539836 3791.7294254863327
1518.077908203999 3961.8174356528116
1518.8558172881785 3874.6131143256475
1519.633537257234 4049.190651567084
1520.4110681618404 4059.469023916764
1521.1884100526604 4008.8570599091045
1521.9655629803365 3899.5641869624465
1522.7425269954856 4158.965813488926
1523.5193021487103 4350.158741659363
1524.2958884905856 3897.0458974646667
1525.0722860716687 3983.324971344383
1525.848494942502 3965.9722901355685
1526.624515153595 3983.5200579699535
1527.4003467554485 4019.4852827384616
1528.175989798534 4170.451875498072
1528.9514443333064 4026.2572579169355
1529.726710410203 4245.073372459469
1530.5017880796331 3872.075440053145
1531.276677391992 3920.1953920078427
1532.0513783976457 4187.912706497521
1532.825891146953 3963.8989098398442
1533.6002156902414 4082.9310690650063
1534.3743520778207 4009.87255346492
1535.1483003599806 4075.87065341526
1535.9220605869923 4089.4631530822808
1536.6956328091019 4091.4886667639003
1537.4690170765407 3983.4820260680362
1538.242213439511 4185.558031817566
1539.015221948208 4074.1646540159054
1539.78804265279 3949.6481988649502
1540.560675603405 3850.402117699557
1541.3331208501804 4200.5995389834125
1542.1053784432224 4219.307751909509
1542.8774484326168 4083.947015368101
1543.649330868422 4045.484360887771
1544.4210258006842 4092.99816068433
1545.1925332794308 4084.501276880789
1545.9638533546604 4064.356857707622
1546.7349860763552 3914.4512634324465
1547.5059314944829 4410.291301456788
1548.27668965898 4096.270549362459
1549.0472606197673 4139.085374122971
1549.817644426752 3957.9980798278984
1550.5878411298072 4242.546927138182
1551.3578507787988 4106.328300422583
1552.1276734235635 3898.7065477962524
1552.8973091139233 4093.14801110717
1553.6667578996767 4153.049800018393
1554.436019830604 4077.3837105657644
1555.20509495646 4027.3840269879024
1555.9739833269869 3971.427004125774
1556.7426849919011 3987.8790559843533
1557.511200000903 4238.921119438868
1558.2795284036674 4193.563614089457
1559.0476702498509 3981.903085172773
1559.8156255890954 4218.39421587998
1560.5833944710157 4315.698790044311
1561.3509769452048 3995.506859684727
1562.1183730612447 4074.9954726439364
1562.8855828686865 4062.0958420449183
1563.6526064170703 4359.623269037895
1564.4194437559127 4224.5245250628
1565.1860949347047 3998.0168854047092
1565.9525600029283 4383.691215377331
1566.7188390100328 4480.372421103951
1567.4849320054564 3960.565263048948
1568.250839038612 4091.7992198434067
1569.0165601588997 4059.471998848636
1569.7820954156887 4074.3265797888716
1570.5474448583373 4015.109707835727
1571.31260853618 3923.521788942385
1572.0775864985299 3880.6498090425753
1572.8423787946813 4161.565002154895
1573.6069854739108 3893.581278759474
1574.371406585471 4183.8348671381455
1575.1356421785986 4204.604423174073
1575.899692302506 4077.2797036025527
1576.6635570063845 4106.646094045333
1577.4272363394157 4086.5790681687786
1578.190730350747 4031.685253769375
1578.9540390895163 4052.6791426430427
1579.7171626048384 3698.4063878235334
1580.480100945806 3958.156352946438
1581.2428541614918 3918.254522993466
1582.0054223009538 4085.1983368502383
1582.767805413223 3994.655399759383
1583.5300035473156 3961.6767229716766
1584.292016752228 4305.596522008216
1585.0538450769309 4131.546053737862
1585.8154885703807 3857.047950479968
1586.5769472815136 3887.471436688115
1587.3382212592405 4058.9175164397943
1588.099310552463 4256.240414470504
1588.8602152100484 3886.228440910198
1589.6209352808564 4080.5104120777555
1590.3814708137234 3990.5520654068096
1591.14182185746 4072.0854423566248
1591.9019884608679 3862.2141764319117
1592.6619706727215 3724.459773712737
1593.4217685417734 4045.6926111212174
1594.1813821167616 4338.275161632299
1594.9408114464022 3879.1924441714955
1595.7000565793933 3919.843100844971
1596.459117564409 4093.9611137168795
1597.2179944501113 3920.066518842902
1597.9766872851324 3904.1211986720837
1598.735196118092 4143.0937633755875
1599.4935209975883 4087.2769603880356
1600.2516619721973 4223.812413629634
1601.0096190904787 3973.368583160046
1601.7673924009723 3929.725739246541
1602.524981952196 3848.1081082836695
1603.2823877926476 3942.470013052048
1604.0396099708087 3819.125497982125
1604.7966485351371 3769.981301232142
1605.5535035340745 3943.8733487338477
1606.3101750160404 4130.5100106365235
1607.0666630294363 3830.07591367591
1607.822967622642 3763.571522502278
1608.5790888440224 3861.91164151036
1609.3350267419137 4165.421925177691
1610.0907813646445 3953.3246031939825
1610.8463527605145 3876.6272531773125
1611.601740977805 4007.848841524261
1612.356946064785 3894.646084344532
1613.1119680696902 3650.0821867212626
1613.8668070407512 3782.5931958967085
1614.6214630261748 3801.319693920964
1615.375936074137 3946.7882487400116
1616.1302262328118 3849.5228790131623
1616.8843335503425 3882.9039522760622
1617.638258074854 3718.2057342607413
1618.391999854457 3957.4076362735095
1619.1455589372363 4059.1367286008963
1619.8989353712623 3863.6070802050285
1620.65212920458 3589.705831424019
1621.4051404852235 3740.869249876415
1622.1579692611976 3867.870367828381
1622.9106155804966 3555.2902927004316
1623.663079491087 3747.2717003515004
1624.4153610409248 3872.3940212863818
1625.1674602779385 3672.5494931037865
1625.9193772500403 3651.920310873512
1626.6711120051277 4105.1710441441555
1627.4226645910676 3808.473146012389
1628.174035055721 3612.502243971388
1628.9252234469168 3811.8401908518244
1629.676229812474 3663.914404070799
1630.4270542001905 4040.3923500501464
1631.1776966578382 3762.190369571964
1631.9281572331747 3723.728226304487
1632.678435973945 3864.2707495151617
1633.4285329278573 3716.714843797364
1634.1784481426203 3534.313666423031
1634.9281816659113 3637.136961553012
1635.677733545388 3949.426093445454
1636.4271038286934 3642.554099245825
1637.176292563452 3791.488938585872
1637.9252997972635 3699.5699164703997
1638.674125577716 3752.063536907533
1639.4227699523672 4032.246392846954
1640.171232968767 3453.6787457065207
1640.9195146744423 3689.7989489234196
1641.6676151168977 3931.8357801448524
1642.4155343436178 3895.0227301391656
1643.1632724020765 3665.830377514062
1643.9108293397167 3705.7854686833707
1644.658205203974 3604.8174096370144
1645.4054000422566 4220.997057970596
1646.1524139019566 3646.323791404394
1646.8992468304423 3556.693656898683
1647.6458988750728 3584.2746681727103
1648.3923700831765 3656.8354114705007
1649.1386605020743 3616.3711304556573
1649.8847701790564 3895.488025866235
1650.6306991614038 3781.061591400509
1651.3764474963682 3795.5643218879604
1652.1220152311944 3374.6908554767747
1652.867402413096 3699.312992919595
1653.6126090892776 3799.1449566309957
1654.3576353069184 3963.8611651707347
1655.1024811131829 3734.7830589792475
1655.8471465552066 3667.543687409602
1656.5916316801213 3942.419772854681
1657.3359365350298 3697.135296512321
1658.0800611670165 3664.534707735863
1658.824005623148 3676.1595380489794
1659.5677699504722 3531.1797227994466
1660.3113541960192 3699.9918921081603
1661.054758406799 3521.787274421119
1661.7979826297997 3382.3863067307966
1662.5410269119966 3481.0987077174277
1663.283891300338 3793.416868965862
1664.0265758417645 3483.2799501056215
1664.7690805831826 3531.754163657601
1665.5114055714948 3716.5995361529867
1666.2535508535748 4010.578741175804
1666.9955164762814 3349.7499944413516
1667.7373024864555 3548.3372129613795
1668.478908930916 3718.5719791770325
1669.220335856462 3518.7893080783297
1669.9615833098778 3464.9512628633993
1670.7026513379296 3366.163636486936
1671.44353998736 3596.7195083442393
1672.1842493048916 3565.6989382467254
1672.9247793372379 3479.296865064597
1673.6651301310812 3502.186919002015
1674.4053017330934 3441.9157609604977
1675.1452941899242 3603.27303734018
1675.885107548207 3019.766357501376
1676.6247418545518 3118.1225980680388
1677.3641971555535 3296.849984081224
1678.1034734977893 3534.536926219015
1678.8425709278108 3415.528096555908
1679.5814894921605 3613.6881848901785
1680.320229237359 3489.7509650378515
1681.0587902098978 3482.754355665706
1681.7971724562685 3382.747119187615
1682.5353760229264 3129.0662381806032
1683.2734009563173 3401.3542331436634
1684.0112473028657 3244.0261738238114
1684.7489151089794 3372.423330093084
1685.4864044210462 3440.4014465212413
1686.2237152854377 2969.3805590829024
1686.960847748498 3449.8305549405145
1687.6978018565642 3126.85824957566
1688.434577655944 3113.6355778347743
1689.1711751929379 3134.589885785289
1689.9075945138156 3242.7506474602233
1690.6438356648396 3222.482575930736
1691.3798986922448 2868.2721449827313
1692.1157836422499 3077.436414839998
1692.851490561059 3066.735839838407
1693.587019494853 3148.356784798986
1694.3223704897991 2854.188438352853
1695.0575435920364 2771.136533956699
1695.792538847696 3345.0601446296414
1696.527356302886 3009.8836405575357
1697.2619960036936 2857.81295793805
1697.9964579961907 2846.041520168965
1698.730742326432 2667.503371434546
1699.4648490404488 2726.020176761283
1700.1987781842563 2973.629895119282
1700.9325298038548 3077.208032887785
1701.6661039452174 3063.63809113573
1702.3995006543082 2945.2224257405824
1703.1327199770658 3072.01445303982
1703.865761959416 2829.534549135854
1704.598626647261 3211.886958666567
1705.3313140864866 2854.650371450135
1706.0638243229587 2814.3858645980754
1706.7961574025303 3055.7267342617356
1707.528313371029 2915.974564340017
1708.260292274268 2739.6834615291928
1708.9920941580403 2942.8127591065086
1709.7237190681226 2981.098991390657
1710.4551670502697 2985.1883153753415
1711.18643815022 2607.054418272867
1711.9175324136959 2723.721811295475
1712.6484498863938 2840.583053420712
1713.379190614005 2567.9312425651706
1714.109754642188 2862.2189038782717
1714.8401420165883 2694.351042649359
1715.570352782839 3302.635147112641
1716.3003869865497 2855.360055926139
1717.0302446733076 2597.2689312693
1717.7599258886876 2817.320014678028
1718.4894306782444 3153.3684062181255
1719.2187590875183 2648.2312080100714
1719.9479111620203 3001.8075993729453
1720.6768869472544 2757.4728367479415
1721.4056864887025 3200.1128964287063
1722.1343098318284 3115.2002390672624
1722.8627570220742 2810.3828938701904
1723.591028104871 2623.62088654812
1724.3191231256242 2565.690995174493
1725.0470421297232 2786.483015516732
1725.7747851625427 2920.8688222669693
1726.5023522694337 2878.259752966969
1727.2297434957363 2858.7478271060327
1727.9569588867635 2506.6925684640805
1728.6839984878152 2973.208034172956
1729.4108623441734 2414.237108970787
1730.1375505011038 2937.4689063555916
1730.8640630038426 2728.936968212874
1731.5903998976264 2627.83118027254
1732.316561227657 2961.406395265871
1733.0425470391274 2604.7897710096086
1733.7683573772065 2839.3489490127854
1734.4939922870508 2710.5835491766347
1735.2194518137949 2704.6517811802028
1735.9447360025606 2767.8528843102167
1736.669844898439 2702.922943730418
1737.3947785465189 2520.145543223042
1738.1195369918605 2520.8571402169637
1738.8441202795093 2713.2071508646104
1739.5685284544943 2846.7446937409895
1740.292761561821 2874.667255112912
1741.0168196464838 2790.6717026608785
1741.7407027534518 2783.1479013158546
1742.464410927687 2739.5914013495008
1743.187944214118 2659.996869032926
1743.9113026576688 2628.809965462786
1744.634486303241 2732.9833645204158
1745.3574951957125 2716.7779368610964
1746.0803293799509 2814.6386014202244
1746.8029889008048 2666.2953669705394
1747.5254738031017 2796.1623404338693
1748.2477841316504 2614.4656029872745
1748.969919931249 2556.8224741654094
1749.6918812466665 2656.0732542283135
1750.4136681226646 2857.7401451418864
1751.1352806039777 2687.818611412713
1751.856718735331 2395.0347933952044
1752.5779825614281 2448.135248764275
1753.2990721269507 2800.8189182562505
1754.0199874765676 2656.0949369750847
1754.7407286549314 2460.338070938182
1755.4612957066693 2501.980974738207
1756.1816886763954 2610.648580532977
1756.9019076087097 2705.1499380296614
1757.6219525481865 2750.204787883132
1758.3418235393856 2629.0590918883036
1759.061520626854 2694.706733088856
1759.7810438551096 2843.2945969745037
1760.5003932686614 2353.0797526015963
1761.2195689119999 2812.925060545421
1761.938570829594 2633.8385475925656
1762.657399065898 2670.6112276354133
1763.376053665348 2429.5297237289683
1764.0945346723602 2463.4544697422534
1764.812842131334 2848.481556504673
1765.5309760866512 2473.739563791583
1766.2489365826787 2501.1913398692427
1766.9667236637597 2608.4855133139827
1767.684337374223 2334.724742253485
1768.401777758383 2364.8125105577146
1769.1190448605284 2353.907971676322
1769.836138724937 2406.4254679402084
1770.5530593958665 2542.385506973378
1771.2698069175603 2883.4951456696617
1771.9863813342326 2841.4136185943653
1772.702782690094 2453.772488209094
1773.4190110293293 2725.455509826998
1774.1350663961111 2566.9251194520193
1774.8509488345844 2507.6250095234564
1775.5666583888924 2627.6997401495946
1776.2821951031437 2760.599581426401
1776.9975590214362 2555.3912941133576
1777.7127501878585 2760.4123706187374
1778.4277686464684 2720.7977377315738
1779.1426144413108 2735.776709119119
1779.8572876164162 2731.7037474010203
1780.571788215797 2417.911895813211
1781.2861162834415 2568.9159785815405
1782.0002718633277 2515.970817781941
1782.7142549994132 2679.5026423592635
1783.4280657356376 2556.3378951858117
1784.141704115922 2381.160434050621
1784.855170184177 2462.2460937668707
1785.5684639842839 2705.6964217637696
1786.2815855601148 2174.819074510416
1786.9945349555237 2700.673459118405
1787.707312214343 2461.4020249554305
1788.4199173803918 2399.7997672911824
1789.132350497468 2338.3000173320825
1789.8446116093583 2564.7192232864995
1790.556700759822 2408.1551815199746
1791.2686179926077 2431.173565540949
1791.9803633514493 2506.4215391416774
1792.6919368800554 2337.151955738566
1793.4033386221236 2668.7409311192623
1794.1145686213295 2698.5848396829538
1794.8256269213307 2786.5338158942254
1795.536513565774 2651.8614919842894
1796.247228598284 2266.0136708000296
1796.9577720624693 2324.177246685395
1797.6681440019165 2540.992492952797
1798.3783444602013 2485.956489276617
1799.0883734808776 2558.3016199598314
1799.7982311074884 2584.4985685741685
1800.5079173835475 2589.143670286273
1801.2174323525633 2586.206617853535
1801.9267760580187 2498.8809192382064
1802.635948543386 2542.712617846743
1803.3449498521113 2333.4730462829275
1804.0537800276325 2622.8720367526375
1804.7624391133668 2456.4139013455406
1805.47092715271 2167.159806746586
1806.1792441890484 2239.867949982267
1806.8873902657433 2466.2052442323993
1807.5953654261448 2523.5635296764194
1808.3031697135812 2429.8409126150827
1809.0108031713662 2330.9881240362743
1809.71826584279 2499.8275537447375
1810.425557771141 2411.5649304294166
1811.1326789996747 2385.9514753766275
1811.839629571632 2360.1777442621637
1812.5464095302468 2429.727696589232
1813.2530189187182 2526.7676806640216
1813.959457780249 2375.946531235665
1814.6657261580076 2609.8764182978075
1815.371824095153 2514.9122392290865
1816.0777516348262 2646.38339445528
1816.78350882015 2049.850903661889
1817.4890956942272 2152.939300354202
1818.1945123001533 2384.2535243920925
1818.8997586809928 2414.055142182363
1819.6048348798067 2268.784490900417
1820.3097409396287 2475.403679084974
1821.0144769034796 2792.8646506953573
1821.7190428143622 2591.906964920723
1822.423438715261 2558.5191283364456
1823.1276646491478 2342.7363009688856
1823.8317206589727 2534.095809833081
1824.5356067876692 2415.429607880157
1825.2393230781581 2473.1290417434916
1825.942869573335 2165.170204752565
1826.646246316086 2269.8892176928744
1827.3494533492758 2510.0633229133955
1828.052490715756 2453.4690358943817
1828.7553584583547 2522.2688205533836
1829.458056619891 2496.9193361119596
1830.1605852431585 2342.837298637797
1830.8629443709433 2269.599390780485
1831.5651340460063 2378.407609225425
1832.2671543110919 2315.4812401461595
1832.9690052089318 2514.935094253307
1833.6706867822395 2283.5563010309484
1834.3721990737104 2490.4046022507114
1835.0735421260233 2587.1716278640943
1835.774715981841 2294.5091061854564
1836.4757206838058 2252.4535531249235
1837.1765562745459 2210.884916338704
1837.8772227966747 2238.679465812028
1838.5777202927839 2288.5195435094174
1839.2780488054523 2339.1309024787693
1839.9782083772352 2251.6766949233875
1840.6781990506806 2757.611875934009
1841.378020868313 2437.4413348169246
1842.0776738726418 2388.44680107598
1842.777158106157 2303.8602441564135
1843.4764736113375 2154.8729549993845
1844.1756204306403 2400.965377959458
1844.8745986065078 2243.6150172973857
1845.5734081813607 2210.8100532218155
1846.2720491976124 2223.980219491299
1846.970521697649 2114.529796811003
1847.6688257238511 2341.1687309711638
1848.3669613185684 2379.7615967680013
1849.0649285241452 2088.5518900631364
1849.7627273829057 2449.057097791555
1850.460357937156 2379.2765712977316
1851.1578202291857 2105.833656537863
1851.8551143012664 2350.536313906157
1852.5522401956569 2351.1113919732556
1853.2491979545957 2590.68548976981
1853.9459876203055 2155.6093158304407
1854.6426092349902 2135.8944282172556
1855.3390628408451 2300.9483587460422
1856.0353484800362 2502.6681404804326
1856.7314661947203 2444.0962151267563
1857.4274160270397 2136.6632798150417
1858.123198019115 2282.7680125918546
1858.8188122130487 2108.895838737774
1859.5142586509319 2316.6870929560996
1860.209537374838 2308.091082425555
1860.9046484268183 2241.336203073359
1861.599591848917 2440.958992708179
1862.294367683151 2199.5273418297834
1862.988975971528 2174.1761636057586
1863.6834167560355 2333.203181463231
1864.3776900786452 2521.1682863956416
1865.0717959813119 2175.329049066559
1865.7657345059724 2126.3289633244044
1866.4595056945564 2403.6299905693672
1867.1531095889586 2392.40886366249
1867.846546231076 2033.4382302418587
1868.5398156627743 2395.5191474750523
1869.2329179259123 2160.3478616633975
1869.9258530623283 2538.95669490871
1870.618621113843 2178.934418832651
1871.3112221222636 2141.209921715645
1872.0036561293764 2168.3516917678603
1872.695923176956 2336.1183334073344
1873.3880233067594 2500.59610030462
1874.0799565605212 2075.544745820116
1874.7717229799673 2258.618330523772
1875.4633226068036 2411.162251955271
1876.1547554827175 2376.935375219855
1876.8460216493859 2197.839789388373
1877.5371211484617 2229.6804521254967
1878.2280540215852 2469.4164178871365
1878.9188203103804 2030.5363547397915
1879.6094200564548 2248.288906748506
1880.299853301396 2129.4432291596827
1880.9901200867826 2551.620085304961
1881.6802204541673 2329.7685508460095
1882.3701544450942 2319.9212537367266
1883.059922101087 2029.0322748077826
1883.7495234636517 2090.5168818057336
1884.4389585742792 2152.0516691144026
1885.1282274744517 2173.9897692923823
1885.8173302056166 2226.2602427797706
1886.506266809225 2278.6039924777997
1887.195037326701 1931.9466693913903
1887.8836417994517 2172.742677812458
1888.5720802688702 2590.9640992906925
1889.260352776333 2377.256441053588
1889.9484593632042 2451.619744600336
1890.63640007082 2161.411266510794
1891.3241749405151 2066.3000914822596
1892.0117840135954 2274.4650390722704
1892.6992273313572 2279.955829430455
1893.3865049350788 2126.293298591128
1894.0736168660223 2517.650251186339
1894.7605631654333 2326.8771758057487
1895.4473438745408 2059.1051154249826
1896.133959034556 2498.7751553813323
1896.820408686679 2325.2784899244616
1897.506692872088 2504.5315296430554
1898.192811631945 2219.5813859616055
1898.8787650073991 2215.4571251709103
1899.5645530395832 2407.6817003950796
1900.2501757696118 2322.408967348936
1900.9356332385796 2020.6917189864387
1901.620925487574 2577.161481507098
1902.3060525576602 2294.572730586554
1902.9910144898859 2391.2631311715713
1903.6758113252872 2029.1496254331785
1904.3604431048789 2297.101124875564
1905.0449098696663 2323.321683157058
1905.7292116606295 2123.3955273664737
1906.4133485187394 2339.4304532841575
1907.0973204849488 1969.9070249490608
1907.7811276001976 2055.2932720243125
1908.4647699053967 2241.5606557189067
1909.1482474414588 2191.981892874216
1909.8315602492694 2142.200087783115
1910.5147083696957 2530.889420611894
1911.1976918436012 2194.642232702826
1911.880510711815 2159.564813483087
1912.5631650151681 2449.417854187645
1913.2456547944657 2057.6772713281425
1913.927980090495 2203.918159494356
1914.6101409440362 2048.592644119701
1915.2921373958416 2262.474749589165
1915.9739694866603 2192.9749593476677
1916.655637257214 2396.251891421663
1917.3371407482136 2214.801993818608
1918.0184800003572 2473.0503228770062
1918.6996550543154 2296.8689885752738
1919.3806659507554 2238.1458703219614
1920.0615127303208 2167.1616667933367
1920.7421954336423 2471.1886726061502
1921.4227141013343 2376.821941990199
1922.103068773993 2265.579174258646
1922.783259492202 2385.872863388536
1923.4632862965227 2132.2183554838875
1924.1431492275078 2177.3245048494323
1924.8228483256917 2085.602195673286
1925.5023836315922 2123.492033181129
1926.1817551857057 1858.1789798377013
1926.8609630285227 2423.8935648060988
1927.5400072005123 2250.19261986924
1928.218887742125 2156.7812427417075
1928.8976046938005 1992.1430248205168
1929.5761580959588 2274.565247032592
1930.2545479890086 2308.0562600136977
1930.9327744133352 1917.9029004156414
1931.6108374093164 2164.8003003684644
1932.2887370173066 1990.2707473515015
1932.9664732776473 2374.5359865438554
1933.6440462306673 2245.031921160892
1934.3214559166754 2139.7272331440054
1934.9987023759659 2500.595243238762
1935.675785648813 2366.806977029582
1936.3527057754836 1883.8156582140612
1937.029462796223 1922.340491648582
1937.70605675126 1960.9927263354232
1938.3824876808085 1946.986554285239
1939.058755625072 2155.828141017272
1939.7348606242267 2104.9052361999206
1940.4108027184448 2223.7786313343586
1941.0865819478713 2207.2304303161172
1941.7621983526478 2075.82985849644
1942.4376519728921 2007.319968073814
1943.1129428487038 1993.274452199841
1943.7880710201734 2301.6793062443658
1944.4630365273733 2213.824270159743
1945.1378394103576 1944.8650825329921
1945.8124797091714 1910.2374507832003
1946.4869574638324 1875.4742642183003
1947.161272714353 2092.3900245038667
1947.8354255007234 2279.7241145271737
1948.5094158629272 2137.776658061788
1949.1832438409183 2231.598408906984
1949.8569094746435 2380.7728243379383
1950.530412804037 2450.739791585692
1951.2037538690092 2318.097459112257
1951.8769327094578 2095.8717077976466
1952.5499493652678 2073.369398588171
1953.222803876306 2265.6558725337686
1953.895496282421 2167.1544477305624
1954.5680266234522 2157.017377202891
1955.2403949392155 2210.118840792278
1955.9126012695142 2070.1371076731352
1956.5846456541403 2130.9737468112653
1957.2565281328643 2076.6967271832054
1957.9282487454457 2263.7546112112705
1958.5998075316202 2166.6299731090357
1959.27120453112 2052.815730448815
1959.9424397836501 2116.14594501988
1960.613513328908 2230.5719099804237
1961.2844252065697 2469.7391239069007
1961.9551754563017 1953.3345263436288
1962.6257641177453 2090.3329107320938
1963.29619123054 1864.6779051953217
1963.966456834296 1937.6665032167791
1964.6365609686181 2043.150828321332
1965.306503673086 2276.7106512026485
1965.976284987275 2079.874597968905
1966.645904950734 2146.9788660518475
1967.315363603002 1929.033593164358
1967.9846609836077 2127.1983901094036
1968.6537971320486 1975.0006475995367
1969.3227720878222 2096.1243111094204
1969.9915858904042 2076.042321024868
1970.660238579252 2192.340376212075
1971.3287301938108 1968.8304407738353
1971.997060773514 1855.082937785936
1972.665230357772 2039.288937109684
1973.3332389859843 1898.1776412077397
1974.0010866975335 1884.8669562526998
1974.6687735317864 2091.8378190418634
1975.3362995280932 2134.361897150765
1976.003664725793 2189.781569082553
1976.6708691642052 1832.4695951137542
1977.3379128826364 2012.8212556770582
1978.004795920373 2210.199514845577
1978.6715183166925 2005.742398987451
1979.3380801108524 2312.9022767922293
1980.0044813420973 2069.4250179834517
1980.6707220496555 1704.4977832163408
1981.3368022727373 1948.4504873922015
1982.0027220505417 2101.9797389625082
1982.66848142225 1625.6257876092222
1983.3340804270283 1780.4074912358508
1983.999519104027 2117.0057127270725
1984.6647974923835 2097.0743880685395
1985.329915631215 2172.5053092178578
1985.99487355963 1956.43723196757
1986.6596713167146 2295.398009459547
1987.3243089415428 1927.765059563268
1987.9887864731754 2308.491724514377
1988.6531039506553 1867.4971339287138
1989.3172614130071 1917.0619740112816
1989.9812588992481 1966.7425633093342
1990.645096448372 1692.3117007536152
1991.3087740993633 2099.8846583400905
1991.9722918911848 1952.8346130428902
1992.635649862792 2044.9430488531202
1993.2988480531185 2141.3282693538376
1993.9618865010852 2494.109511675234
1994.6247652455968 2060.1961612289015
1995.287484325545 1863.8141897670273
1995.9500437798033 1989.3215709606575
1996.6124436472292 2005.9593269299373
1997.2746839666706 2226.091745461826
1997.936764776954 1982.1523972944294
1998.598686116895 1913.8365243148105
1999.2604480252903 2253.5966172198086
1999.9220505409212 2121.6324609568505
2000.5834937025593 1880.273543352143
2001.2447775489582 2068.4748647788592
2001.9059021188514 2128.1123462184564
2002.5668674509616 1796.9099519612198
2003.2276735839987 1941.7205261651914
2003.8883205566508 2143.4156585938936
2004.5488084075987 1984.7132242857729
2005.2091371755014 2002.6180928030778
2005.8693068990033 1769.1973943859157
2006.5293176167397 1782.53233298323
2007.1891693673224 1796.0509098204668
2007.848862189354 1902.6141050188883
2008.5083961214223 1923.3566213056558
2009.1677712020955 1899.5716569916306
2009.8269874699254 1834.2130948885824
2010.4860449634598 1847.5052994165333
2011.1449437212177 1860.9412572162012
2011.8036837817108 2362.132951415879
2012.4622651834325 2191.7899591698197
2013.1206879648653 2126.9183737502035
2013.7789521644736 1923.8373366361707
2014.4370578207036 2205.4379536192946
2015.0950049719922 2027.1186693298816
2015.7527936567585 2109.2525695152885
2016.4104239134067 1857.780604173582
2017.067895780323 2311.0482058330504
2017.725209295886 2329.1193806434667
2018.3823644984514 2347.184187511242
2019.0393614263648 2078.4697209595647
2019.6962001179545 1840.9060478979234
2020.3528806115355 2124.562010089042
2021.0094029454067 2055.9929805229153
2021.6657671578487 1803.584337069949
2022.321973287133 1932.3294158518693
2022.9780213715148 1820.5517673583443
2023.6339114492293 2011.0301199017001
2024.2896435585026 1961.566341473918
2024.9452177375442 1895.9026948246842
2025.600634024544 2223.540686061805
2026.2558924576842 1985.4711260646923
2026.9109930751292 2086.235703447464
2027.565935915025 1892.6392258671153
2028.2207210155066 2341.953186390156
2028.8753484146964 2491.5945319438797
2029.529818150695 2349.2503171368116
2030.1841302615903 2206.292596754475
2030.8382847854573 1817.471938901949
2031.4922817603601 2107.715789427358
2032.1461212243357 1997.6162053071341
2032.7998032154192 1689.6116079559924
2033.4533277716218 1973.4765062801919
2034.1066949309443 1872.0288753105192
2034.7599047313688 1824.1176747028817
2035.4129572108704 2205.213207603173
2036.0658524074006 1987.7116189999488
2036.7185903589016 2022.2977581463997
2037.3711711032956 2106.669058313654
2038.023594678496 2054.4434580103853
2038.675861122394 1802.2944341122227
2039.3279704728757 1828.6037338035544
2039.9799227678031 1855.1412908435134
2040.6317180450278 1912.9188637699249
2041.2833563423865 1828.7608644308589
2041.9348376977014 2315.8835637501925
2042.5861621487784 2153.986174780216
2043.2373297334088 1967.0266780655693
2043.8883404893695 1992.5879019408815
2044.5391944544208 2104.0087667610674
2045.1898916663158 2143.8817436195736
2045.8404321627804 2365.9733032104177
2046.4908159815368 1838.0918947684863
2047.1410431602853 1903.087328089121
2047.7911137367173 1746.1013973026675
2048.441027748504 1787.349884869162
2049.090785233302 1828.571671912429
2049.7403862287592 1848.4705627964838
2050.389830772503 1794.8502800783087
2051.0391189021466 1741.2301837079856
2051.688250655294 2154.7048214467877
2052.337226069527 1722.9597097160306
2052.986045182417 2194.6074931201924
2053.634708031521 1597.0382980180452
2054.283214654375 2063.95413799429
2054.931565088511 1662.9444630604205
2055.579759371436 1787.4896750490639
2056.2277975406523 2087.345114133349
2056.8756796336384 1847.3979620960035
2057.5234056878617 2149.5656672571736
2058.1709757407752 1923.5467933751383
2058.8183898298194 2208.4710533553252
2059.465647992416 2072.9990798614303
2060.1127502659747 2153.7329672934593
2060.759696687888 1718.820019593944
2061.4064872955405 1974.0061521210387
2062.053122126292 1714.743380867987
2062.699601217497 2007.6052218770674
2063.345924606485 1658.882341208803
2063.992092330587 1985.0144332580628
2064.638104427102 1847.3183355081487
2065.283960933324 2227.256060188128
2065.92966188653 1985.1348549149388
2066.5752073239855 2049.6152015720627
2067.2205972829397 1750.4040143926763
2067.86583180062 2048.00124942594
2068.5109109142522 1804.310210990609
2069.15583466104 1770.4303175980865
2069.8006030781708 1736.5206972319386
2070.445216202821 1913.9221975969726
2071.089674072153 2133.6448301606692
2071.7339767233116 2094.6998058534873
2072.3781241934303 1964.462494290857
2073.0221165196253 2092.114915113032
2073.6659537390024 1805.4003216065007
2074.3096358886505 2078.3675071779408
2074.953163005637 1876.0868257569557
2075.596535127028 1532.884868518127
2076.2397522898664 1771.9899408045799
2076.882814531182 2019.4274639925643
2077.5257218879924 2172.0361936788263
2078.1684743973 1627.4318499690721
2078.8110720960885 1644.5096813783337
2079.453515021336 1846.4679678476982
2080.095803209997 2048.6109393313172
2080.7379366990135 2008.323687207469
2081.37991552532 2065.7161189159874
2082.0217397258275 2034.5241320187129
2082.6634093374414 1703.9494935657665
2083.3049243970418 2034.3908802324063
2083.9462849415067 2217.799385967436
2084.587491007689 1958.638793502898
2085.2285426324324 2005.191397378861
2085.869439852564 1977.9833634906524
2086.510182704902 1697.519884952786
2087.1507712262483 1901.5638890908344
2087.791205453381 1712.0396493624564
2088.4314854230743 2048.5462868036334
2089.0716111720867 2111.7256977097954
2089.7115827371617 1622.221191668589
2090.351400155023 1642.8001507927663
2090.991063462385 1663.4991539664552
2091.6305726959527 1754.78824139532
2092.2699278924047 1784.5613284586793
2092.9091290884153 1814.4655942113918
2093.548176320641 1594.4690288729219
2094.187069625721 1730.1294442669264
2094.8258090402887 1866.0870481845996
2095.464394600951 2143.5847057794076
2096.102826344313 1904.2285199725939
2096.741104306955 1788.8731753742322
2097.379228525453 1673.2648035830898
2098.017199036358 1522.0745284054924
2098.6550158762147 1807.8007506344566
2099.2926790815527 2094.135857360623
2099.9301886888825 1945.2024489640025
2100.5675447347076 1750.9899994493837
2101.2047472555114 2086.647647694065
2101.841796287761 2010.6592338048354
2102.47869186792 1949.9382855777258
2103.1154340324265 1813.1083207624192
2103.752022817709 1989.8364295903234
2104.388458260184 1882.5316407316454
2105.024740396251 1987.0830749335885
2105.660869262292 1877.1978945516234
2106.296844894685 2142.0500634126834
2106.93266732978 1943.7058447913855
2107.5683366039284 1697.0633455779632
2108.2038527534532 1851.33155597398
2108.8392158146726 2135.6050396399937
2109.4744258238843 1787.4893377175072
2110.1094828173755 1837.8909763725412
2110.744386831422 2200.419477593061
2111.3791379022787 1982.5974246913859
2112.01373606619 2196.5702745715334
2112.648181359389 2106.361058844962
2113.28247381809 1979.546729411323
2113.916613478492 1969.9340318951545
2114.550600376786 2017.2493373550474
2115.1844345491445 1902.9300147653219
2115.818116031729 1759.038756858393
2116.451644860679 1865.6208704255998
2117.085021072133 1640.720964031919
2117.718244702204 1672.777684228174
2118.3513157869984 1773.205098205047
2118.984234362604 1679.3637379213137
2119.617000465092 1820.190766702142
2120.249614130529 2173.013191582757
2120.8820753949585 1835.3165553085666
2121.5143842944162 1845.4129143244336
2122.14654086492 1850.7402800711407
2122.7785451424734 2041.7823534376494
2123.4103971630702 1651.672449404791
2124.042096962681 1987.4180820772526
2124.6736445772767 1949.3284254730065
2125.305040042802 1853.1992937082425
2125.936283395191 1971.9487398108772
2126.567374670365 1901.4863413588857
2127.198313904233 1756.2960992019603
2127.8291011326855 1646.5488396141013
2128.4597363916037 1536.376300208368
2129.0902197168507 1773.9430267376767
2129.720551144279 1713.1183338078226
2130.3507307097225 2253.4720960913355
2130.980758449008 2165.2116890273155
2131.6106343979427 2178.9527711043465
2132.2403585923203 2192.596535419431
2132.8699310679276 2162.49623618432
2133.499351860526 2104.859915737889
2134.1286210058715 1851.052245217817
2134.7577385397053 2035.1003144876927
2135.3867044977487 2219.4403516841785
2136.0155189157176 2401.0056651038512
2136.644181829308 2213.5823917140024
2137.2726932742025 1947.0800853255575
2137.901053286074 2120.454801460498
2138.5292619005777 1723.1111171875914
2139.1573191533535 1738.4424209517324
2139.7852250800315 2085.7909082230663
2140.4129797162295 2024.7855565661775
2141.0405830975433 1628.611888235018
2141.6680352595613 1606.834199290085
2142.2953362378576 1585.0330675631517
2142.9224860679915 1699.0168232807578
2143.549484785508 1963.7173830727475
2144.1763324259373 1809.929931365213
2144.803029024799 1821.7768509324874
2145.429574617594 1600.2117247838892
2146.0559692398165 1930.2658033074422
2146.682212926942 1714.5091728973516
2147.308305714432 1875.8033161976975
2147.9342476377333 2102.053964170139
2148.5600387322847 2294.1623274269077
2149.185679033506 2000.1434604829021
2149.8111685768017 1784.8707859124897
2150.4365073975678 1712.265364785909
2151.061695531187 1828.6083394251782
2151.686733013021 2248.095497824859
2152.311619878423 2137.8785290329884
2152.9363561627342 1983.937795345432
2153.560941901278 1659.1802026716036
2154.1853771293663 2031.3684479499243
2154.809661882293 1762.1548523367758
2155.433796195348 2256.5587266977677
2156.0577801037944 1572.7973330718698
2156.681613642895 2108.3459268971246
2157.3052968478896 2087.924520347688
2157.928829754006 2067.460836211027
2158.552212396462 1997.4925728873914
2159.1754448104566 2064.111645507873
2159.7985270311783 1690.3261334852991
2160.4214590938027 1358.7997944927279
2161.0442410334927 1504.3724408426842
2161.6668728853874 1554.087934675717
2162.289354684628 1603.960696353446
2162.911686466332 1673.9997227587853
2163.533868265602 2062.7045248502486
2164.1559001175337 2255.007812306412
2164.7777820572046 1940.3441495140457
2165.399514119681 1882.151000145761
2166.021096340013 1691.3282287209945
2166.6425287532384 2129.5506443466375
2167.263811394385 2121.609033626726
2167.8849442984574 2113.8275904328407
2168.505927500455 1733.9812427144211
2169.126761035366 1938.317423290961
2169.7474449381552 1594.37501260376
2170.367979243778 1778.4092786016336
2170.9883639871823 1963.0160830056598
2171.608599203293 1691.438812993986
2172.2286849270276 2315.3540525893163
2172.8486211932886 2292.1178226547713
2173.4684080369625 1988.0767599543738
2174.0880454929265 1598.7539523273958
2174.7075335960417 1826.6238140308487
2175.3268723811543 1432.789188589427
2175.9460618831 1603.4416528034867
2176.565102136701 1873.3496852255416
2177.1839931767627 1826.0197728789594
2177.802735038078 1778.5910024182704
2178.421327755432 1787.6094190436565
2179.0397713635866 1713.9729410238772
2179.658065897298 1829.60648688425
2180.276211391305 1829.18027403305
2180.8942078803357 1761.7645219243102
2181.5120553991 1935.2103714951536
2182.129753982299 1909.8771069905347
2182.7473036646206 1884.4962140272073
2183.3647044807367 1909.50295848295
2183.9819564653044 1516.180975977844
2184.599059652968 1802.2870162345123
2185.216014078367 2041.9088653680742
2185.832819776113 2122.7154470474725
2186.4494767808137 2203.592384327477
2187.065985127063 1767.4260483275507
2187.682344849436 1782.7018741401048
2188.298555982501 2046.001021022908
2188.9146185608097 1815.6230259020165
2189.530532618901 2064.281684817065
2190.1462981912937 2015.6547749525132
2190.761915312507 2010.5471821730455
2191.377384017036 1678.7137519331839
2191.9927043393654 1933.7849213389013
2192.6078763139667 2175.095129292298
2193.2228999753006 1724.5632480256095
2193.837775357808 1947.779252872492
2194.452502495922 1399.6620488507526
2195.0670814240602 1831.209193908245
2195.6815121766285 1709.6506766979205
2196.2957947880186 1544.603109720941
2196.9099292926057 1379.227735828834
2197.523915724758 1765.7532254426692
2198.137754118825 1716.6848406680474
2198.7514445091456 2063.167042625627
2199.3649869300443 2238.712527422906
2199.9783814158327 2414.7620387801758
2200.5916280008096 2254.4885380493165
2201.2047267192593 2117.414648658371
2201.8176776054515 1830.2566056193104
2202.430480693649 1961.7203758071435
2203.0431360180955 2093.5491742029244
2203.6556436130195 2046.1879572617338
2204.268003512645 1501.1073671917673
2204.8802157511727 1693.056718443407
2205.492280362796 1784.9722252844429
2206.1041973816937 1877.1994315502939
2206.715966842032 1816.8627045448752
2207.3275887779655 1940.1934904401976
2207.93906322363 1956.8197083101877
2208.550390213153 1888.7521106329318
2209.1615697806465 2211.920255009551
2209.7726019602105 1755.4964221193513
2210.3834867859277 1405.3224647656823
2210.9942242918787 1722.3925679480715
2211.6048145121167 1939.3203572154423
2212.2152574806914 2468.675299980173
2212.825553231638 1694.948685093712
2213.435701798975 1726.1970118888516
2214.045703216707 1757.667807797649
2214.655557518832 1366.6151898055564
2215.2652647393297 1579.0728008369867
2215.874824912169 1687.8606940756883
2216.4842380713 1797.0865630688597
2217.09350425067 1575.9642046154318
2217.7026234842033 2016.6744209240871
2218.311595805819 2086.2411333554987
2218.9204212494133 1803.1816903365357
2219.52909984888 2176.9120230328817
2220.137631638092 1449.4003399930227
2220.7460166509154 2208.6360004158123
2221.354254921198 1569.8191973338614
2221.9623464827764 1815.2650943997455
2222.5702913694713 1756.6138786497922
2223.178089615096 1692.1069693174427
2223.7857412534486 1627.480435891489
2224.39324631831 1461.8861682812126
2225.000604843457 1529.5286502979898
2225.607816862641 1706.8969310013974
2226.214882409611 1884.4606208771959
2226.8218015180973 2106.9735984548934
2227.4285742218217 1720.7685405084594
2228.0352005544864 1804.2783508620341
2228.6416805497847 1486.7340639500921
2229.248014241399 1700.466863687352
2229.8542016629945 1530.3332900941996
2230.460242848223 1995.2353174447533
2231.0661378307304 2306.910617958244
2231.671886644139 1551.8563724844319
2232.277489322065 1544.1111414171514
2232.8829458981127 1329.9424545252982
2233.48825640587 1755.5737269365013
2234.0934208789095 1950.32165790373
2234.6984393507955 2145.359952630089
2235.3033118550793 1798.4778213781333
2235.9080384252975 1715.187552164675
2236.5126190949723 1426.0003045872004
2237.1170538976166 1393.5367936166278
2237.721342866729 1361.0446445819189
2238.32548603579 1593.373959452601
2238.9294834382763 1651.7793662406998
2239.533335107646 1824.582078432195
2240.1370410773434 1799.6096077346606
2240.740601380803 1648.3414352733955
2241.3440160514474 1718.6991300197744
2241.9472851226783 2109.743512807822
2242.550408627896 1865.7349643633843
2243.1533866004793 2189.866641383615
2243.756219073799 1807.013802654136
2244.3589060812064 1634.5005737838903
2244.961447656049 1739.3340971852645
2245.5638438316564 1746.8437429271576
2246.166094641343 1798.7987178907765
2246.7682001184166 1523.6151000638413
2247.3701602961664 1591.8287665022158
2247.971975207871 1789.2737147530177
2248.5736448867974 2052.4234780744746
2249.175169366197 1734.6976018466928
2249.7765486793123 1762.9973950310782
2250.3777828593684 1890.999564267832
2250.9788719395783 1750.8228126617983
2251.579815953146 1804.2162450857224
2252.1806149332606 1687.4818684722547
2252.781268913097 1581.0081810788772
2253.381777925817 1602.8790250429406
2253.9821420045737 1853.5121710542437
2254.5823611825035 1939.9370880969666
2255.1824354927303 1815.4524643934044
2255.782364968365 1633.1884790864765
2256.38214964251 1450.7231188633093
2256.9817895482483 1538.8035022104518
2257.5812847186553 1751.6717648340496
2258.180635186791 1578.810097013476
2258.779840985704 1706.4575854228412
2259.37890214843 1662.7958735419736
2259.97781870799 1771.2263856952382
2260.5765906973957 1879.865322436061
2261.175218149645 1789.4940395343558
2261.773701097718 1913.4082184905517
2262.3720395745895 1460.024368148283
2262.970233613216 1391.6254098037275
2263.568283246548 1742.4686726629284
2264.1661885075137 1525.5667432455714
2264.763949429038 1628.2407093698635
2265.3615660440246 2114.9203657656303
2265.959038385374 2075.4001212980593
2266.5563664859637 2035.8765070837878
2267.153550378669 1601.0143351241825
2267.7505900963424 2118.300523429123
2268.3474856718312 1655.6102992879719
2268.9442371379664 1664.8539280981263
2269.5408445275643 1471.190286170749
2270.1373078734377 1554.5022789603793
2270.7336272083758 1637.995739828722
2271.32980256516 1428.4139875923988
2271.925833976562 1925.0034312933324
2272.5217214753357 2034.3592910560717
2273.117465094223 1640.1089843340983
2273.7130648659586 1589.4461646630118
2274.308520823257 1672.5628819637852
2274.903832998827 1931.4471009636577
2275.4990014253563 1537.0397137580742
2276.094026135528 1935.1519633829048
2276.6889071620117 1521.3712938747783
2277.2836445374614 1702.0513211546481
2277.878238294519 1969.5987164803744
2278.472688465812 1701.6602638064555
2279.066995083962 1433.2596898515003
2279.6611581815705 1569.2344924688337
2280.255177791232 1536.2660960675098
2280.8490539455233 1831.8314433182372
2281.442786677013 2127.994992544182
2282.0363760182554 2084.834193988265
2282.6298220017943 1776.9438593404716
2283.223124660155 2229.4405701173523
2283.816284025859 1612.2137370943324
2284.4093001314086 2150.10504880862
2285.002173009292 1508.0155423864828
2285.5949026919952 1871.640481334319
2286.1874892119777 1723.2499997663108
2286.7799326016993 1744.009310439819
2287.3722328936 1387.5049125660503
2287.964390120109 1341.6723209577317
2288.556404313642 1881.4203587492138
2289.1482755066027 2218.698645746651
2289.7400037313873 1889.2652921714125
2290.3315890203703 1680.8112798287093
2290.9230314059205 2005.9923839977703
2291.5143309203904 1751.521214267254
2292.1054875961236 1553.6679047789835
2292.6965014654506 2323.3130101009433
2293.287372560684 1832.543846245168
2293.878100914131 1677.341478318381
2294.468686558086 1521.861673784254
2295.059129524827 1609.4337130327544
2295.649429846617 1977.439729044759
2296.239587555716 1761.1649889416135
2296.8296026843636 1793.2727402855157
2297.419475264791 1742.2886776234893
2298.0092053292137 1691.101537614215
2298.598792909839 1926.1160451739117
2299.1882380388597 1743.46180657624
2299.777540748455 1769.5278399487888
2300.3667010707904 1795.51568646518
2300.9557190380256 1857.5315349626228
2301.544594682302 1638.6321973526326
2302.1333280357503 2134.16404325016
2302.721919130485 1863.762838948495
2303.3103679986198 2311.8956817672674
2303.898674672242 2125.265578142481
2304.486839183437 1929.7459766703055
2305.0748615642697 1734.1104502417777
2305.6627418468015 1732.6898589989487
2306.2504800630704 1518.1577645885095
2306.8380762451143 1825.5438269093968
2307.425530424949 1867.3106103723821
2308.012842634582 1909.1587135140876
2308.6000129060103 2291.0534115522833
2309.187041271214 2448.0041171942526
2309.773927762164 2296.325733954065
2310.3606724108213 2144.350899344283
2310.9472752491274 1630.1159672994468
2311.5337363090184 1832.9162829062993
2312.120055622414 1827.0252193479705
2312.706233221221 1785.121079145664
2313.2922691373424 1389.1742737964637
2313.8781634026564 1475.3668933371184
2314.463916049037 1561.7474598686872
2315.049527108342 1897.4515516019103
2315.6349966124235 2169.7066550867785
2316.2203245931123 2137.6141195230316
2316.8055110822315 1638.3816687340832
2317.3905561115935 1549.353621663179
2317.9754597129977 1668.5065544607442
2318.560221918229 1514.7384443510168
2319.1448427590603 1360.6542671768425
2319.729322267256 1523.2516765575735
2320.313660474563 1466.9794287194286
2320.8978574127195 1651.903129588077
2321.481913113452 1837.398595340933
2322.0658276084705 1531.2997221283717
2322.6496009294806 1627.0306096612794
2323.233233108165 1871.9512107283444
2323.8167241762058 1779.0817990731848
2324.4000741652617 1810.0362598872973
2324.983283106987 2282.7756678426076
2325.5663510330232 2041.6404569431797
2326.1492779749933 1771.0873185155579
2326.7320639645204 2104.8269482849346
2327.3147090332004 2257.5582150914133
2327.897213212629 1749.3999150414118
2328.4795765343843 1940.5707081153528
2329.0617990300307 1830.2115712880598
2329.643880731124 2100.2746512596864
2330.22582166921 1878.301180865536
2330.807621875816 1629.8920269345501
2331.3892813824623 1917.729415949554
2331.9708002206517 1533.4907081477302
2332.5521784218818 1935.8025680345684
2333.133416017634 1803.4882129946534
2333.7145130393765 1534.7956588986872
2334.295469518571 1958.9701845980355
2334.876285486658 2070.2649387821157
2335.456960975076 2051.215028106969
2336.037496015242 2032.1580643417299
2336.6178906385667 1695.6434979625697
2337.198144876451 1752.451009032136
2337.778258760278 1648.158788645765
2338.3582323214214 1747.12375599287
2338.938065591243 1846.2748773275107
2339.517758601087 1927.5199442189164
2340.0973113822965 1902.0329543131986
2340.676723966193 1872.9742840666968
2341.255996384094 1759.2033787252954
2341.835128667295 1996.0625287564737
2342.4141208470883 2077.680420196395
2342.992972954751 1813.0777580006538
2343.5716850215467 1858.2554949248085
2344.1502570787306 1068.7262334596762
2344.7286891575386 1519.620587800023
2345.3069812892045 2155.515734909005
2345.885133504944 1920.5988224911046
2346.4631458359618 1733.9386143141558
2347.04101831345 1600.926148641544
2347.6187509685915 1762.3210750243882
2348.196343832553 1763.3868818396998
2348.7737969364935 1627.4318846430263
2349.351110311558 1491.3421728978424
2349.9282839888765 1441.637855298083
2350.5053179995757 1460.1442791050733
2351.0822123747585 1471.7498130025256
2351.658967145526 1505.3509387212362
2352.2355823429643 1539.0965608822771
2352.812057998144 1754.6214518723616
2353.3883941421263 1696.6130638201328
2353.9645908059647 1933.9818149695934
2354.540648020693 1740.646842898535
2355.116565817336 1843.8734752859177
2355.6923442269126 1947.3486652349625
2356.2679832804224 1802.8999755710906
2356.8434830088518 1742.953756988858
2357.41884344318 1695.1988426114717
2357.994064614377 1973.2430751263407
