#exp_cfg={"servo_angle": 0.0, "laser_lim": 100.0, "servo_angle_to": 18.0, "laser_wup": 0.0, "bt_dev": "EnSpectr-25AE3", "laser_wdn_max": 0.0, "frames": 10.0, "servo_used": 0, "servo_calib_use": 0, "laser_wdn_min": 0.0, "servo_pix_from": 90.0, "cooler_tout": 300.0, "servo_angle_from": 0.0, "servo_calib": "[-1.9174921013161362e-09, 3.9322238269163779e-05, -0.27385609119055809, 653.59552119713567]", "laser_autoctl": 0, "servo_pix_to": 3682.0, "laser_pw": 100.0, "cooler_on": 0, "laser_volt": 4.0, "cooler_autoctl": 0, "cooler_curr": 70.0, "cooler_startup": 10.0, "laser_fixed_pw": 0, "gain": 1.3, "offset": 2.53059635486, "servo_calib_degree": 3.0, "laser_curr": 55.0, "shutter": 8200.0, "servo_calib_step": 1.0, "laser_fixed_curr": 0, "exp": 2000.0, "ccd_volt": 4.7, "bt_addr": "00:06:66:62:5A:E3", "servo_delay": 500.0, "laser_autooff": 1}
#proc_cfg={"flat_auto_wnd": 200.0, "flat_auto_fr": 200.0, "flat_auto_shift": 5.0, "yconv": 1, "flatten": 1, "flatten_strength": 100.0, "xfrom": 300.0, "auto_max_frame": 2000.0, "auto_signal": 48000.0, "flat_auto_tol": 0.1, "autoclip": 1, "xrel_range": 0.0, "flat_auto_to": 4000.0, "intensity_adj": 1.0, "xrel": 7852.0, "rmhot": 1, "flat_auto_slit": 4.999999999999997, "auto_ini_exp": 300.0, "auto_off": 0, "xto": 2860.0, "flat_auto_ref": "", "flat_auto_rank": 1, "autobackg": 0, "xrel_adj": 0.0, "auto_black_lvl": 1, "base_wnd": 100.0, "sub_baseline": 0, "xconv": 2, "auto_max_exp": 1000.0, "auto_total_exp": 10000.0, "auto_exp": 0, "rmripple": 0, "black_lvl": 8274.425, "shutter_clip_adj": 0.0, "auto_bckg": 0, "flat_auto_thr": 0.9, "subbackg": 1}
316.8218498245369 15015.022227774554
317.89969571804795 14843.819073592056
318.977263876126 14790.178490530025
320.05455438786703 14795.961934439334
321.1315673423287 14709.70639237274
322.2083028285215 14809.664752412476
323.2847609354267 14572.04571752744
324.3609417519747 14592.715838209604
325.43684536705587 14623.042264165397
326.5124718695279 14657.104131025302
327.58782134820103 14473.94799659579
328.66289389184385 14511.191807636505
329.7376895891921 14401.114798487291
330.8122085289342 14463.531862553747
331.88645079971866 14457.034694529011
332.9604164901575 14284.069245738821
334.03410568881554 14279.215517650267
335.1075184842266 14466.556462942419
336.18065496487543 14244.404998937302
337.2535152192122 14282.059464045058
338.32609933564163 14356.38318670008
339.39840740253203 14283.403593607587
340.4704395082099 14199.838516836226
341.5421957409617 14171.118093808287
342.6136761890357 14259.935695651002
343.6848809406365 14235.63016445714
344.75581008392874 14030.860578929172
345.82646370703696 13980.358884857424
346.8968418980512 14011.18709613636
347.96694474501055 14065.709185297112
349.0367723359268 13997.600114791105
350.106324758759 14075.961835604006
351.1756021014353 13860.328899240925
352.2446044518383 13921.067515038874
353.31333189781435 13978.174989054096
354.38178452716966 13931.191800321525
355.449962427665 13894.355024955443
356.51786568702846 13925.795842222307
357.58549439294256 14005.6504948994
358.6528486330535 13980.113970273169
359.71992849496564 13874.850119282506
360.7867340662433 13970.983471016889
361.8532654344144 13979.30926005615
362.9195226869597 14031.074283383152
363.9855059113288 13839.7817239677
365.05121519492604 13719.03348079749
366.11665062511565 13850.665419926136
367.1818122892273 13755.045141547653
368.2467002745434 13879.004400804415
369.31131466831175 13801.83962983492
370.375655557742 13843.95777187054
371.4397230299983 13898.614609357279
372.5035171722102 13758.217741296725
373.5670380714637 13795.164986506381
374.6302858148101 13854.687185566043
375.6932604892554 13834.59050453205
376.7559621817709 13850.948189633675
377.81839097928605 13761.177210466549
378.8805469686886 13834.88764895139
379.94243023683157 13982.678075267666
381.0040408705263 13863.005740339411
382.0653789565458 13902.192799425447
383.1264445816196 14068.83378693139
384.1872378324406 14100.820524855473
385.2477587956637 14209.613735631307
386.3080075579037 14135.622373011493
387.3679842057336 14125.216858938855
388.4276888256918 14317.805403200899
389.48712150426945 14356.276795816268
390.54628232792857 14365.649113007647
391.6051713830857 14152.635974233659
392.66378875611736 14193.871534084401
393.7221345333637 14033.633476022855
394.7802088011249 13868.330815317855
395.838011645661 13824.955062932862
396.89554315319765 13640.593296220428
397.9528034099112 13445.977470876702
399.00979250194723 13372.267556933759
400.06651051541485 13345.610918269731
401.1229575363741 13453.69947927628
402.17913365085224 13245.99237694697
403.23503894483656 13391.513659943517
404.2906735042761 13264.149327667134
405.3460374150818 13174.62211875375
406.401130763119 13258.049185194051
407.455953634224 13247.697020573623
408.5105061141876 13232.078021423335
409.56478828876243 13067.562763011869
410.6188002436629 13035.55982348347
411.6725420645689 13026.616789882371
412.72601383711117 13121.157217294516
413.77921564689314 13218.992411695723
414.8321475794728 12992.647340038477
415.88480972036814 13039.99787607944
416.93720215506437 12976.930942898472
417.9893249690049 13061.69754599863
419.04117824759123 12940.5907106802
420.09276207619223 12896.344413214352
421.144076540133 12913.432834869689
422.1951217247042 12892.523531700816
423.24589771515275 12911.346431516464
424.2964045966928 12853.734577474757
425.34664245449494 12861.990506714656
426.3966113736933 12864.722382652437
427.4463114393875 12764.260351738234
428.49574273662984 12802.744172774403
429.5449053504417 12780.142502182289
430.5937993658026 12761.794729590087
431.6424248676558 12675.88409994939
432.6907819409007 12700.874091234416
433.73887067040596 12701.639673619273
434.7866911409965 12794.999732132728
435.8342434374608 12641.798906627439
436.88152764455117 12704.129591641064
437.9285438469724 12628.220761371766
438.9752921294057 12563.773983105164
440.02177257648145 12655.006667147256
441.06798527279716 12535.310403001622
442.1139303029122 12733.418442986158
443.1596077513459 12687.42961009259
444.2050177025794 12615.258937782999
445.25016024105753 12616.834108295243
446.2950354511886 12624.791199312687
447.33964341733736 12615.31607951098
448.383984223834 12585.753629005047
449.4280579549686 12542.94819119058
450.471864694995 12638.898275724192
451.5154045281306 12678.403536310412
452.5586775385509 12641.954904495147
453.60168381039693 12593.683463837948
454.64442342776783 12669.268097857097
455.6868964747264 12594.62722143132
456.7291030353008 12512.238911355718
457.77104319347563 12702.172724433396
458.8127170332027 12534.108895963242
459.854124638392 12637.293699472179
460.895266092919 12669.420814252828
461.93614148061897 12647.776499131936
462.97675088529104 12747.653112603646
464.01709439069236 12778.956742646053
465.0571720805492 12668.28795263247
466.0969840385442 12704.725251512784
467.1365303483253 12880.905107825141
468.17581109350067 12754.442783872139
469.2148263576437 12759.602898939
470.2535762242878 12777.588414892485
471.29206077693016 12961.328089100767
472.33028009902773 12878.570086353999
473.3682342740012 12854.454860600921
474.40592338523857 12730.11817393167
475.4433475160804 12808.675802517968
476.4805067498364 12805.7840846103
477.51740116978 12650.908027330206
478.5540308591426 12818.365122367619
479.59039590112116 12812.709018819329
480.6264963788726 12694.471890798111
481.6623323755193 12836.747678001546
482.6979039741436 12754.91714737185
483.7332112577915 12970.335609696927
484.76825430947247 13074.56469060607
485.80303321215797 12969.527444795964
486.837548048783 12973.228173823762
487.8717989022425 13175.887775243697
488.90578585539697 13145.046900646255
489.9395089910686 13416.204880411222
490.97296839203955 13160.080200158718
492.00616414106116 13122.349789113354
493.0390963208429 13175.685252784562
494.0717650140559 13206.232949322442
495.10417030333883 13276.87781563749
496.1363122712901 13301.35863341123
497.16819100046814 13360.923902033624
498.1998065734024 13407.32580641664
499.2311590725767 13588.553055795699
500.26224858044407 13771.994206456147
501.2930751794156 13952.97583311057
502.3236389518679 14091.231143863213
503.35393998014115 13865.64384098576
504.38397834653733 13726.813497673826
505.4137541333221 13544.27868309175
506.4432674227228 13206.12589682241
507.4725182969323 12972.143034007438
508.5015068381035 12770.642732507644
509.53023312835467 12658.244779729232
510.55869724976765 12553.132324251439
511.58689928438434 12354.162142965846
512.6148393142121 12320.48008259314
513.6425174212218 12370.186898658774
514.6699336873462 12334.639055403477
515.6970881944835 12444.189157327573
516.7239810244901 12276.420710672252
517.7506122591931 12378.770967196546
518.7769819803761 12344.97281111446
519.8030902697901 12483.668139240914
520.8289372091476 12414.258765574566
521.8545228801249 12534.467567241001
522.8798473643619 12418.056242507279
523.9049107434621 12467.304949578403
524.9297130989908 12455.05411693631
525.9542545124805 12401.80308855847
526.9785350654201 12400.232054037955
528.0025548392696 12387.929774131802
529.0263139154504 12252.998143981382
530.0498123753423 12367.559809539047
531.073050300296 12298.461286144608
532.0960277716204 12203.344781798769
533.1187448705896 12212.24292315771
534.1412016784416 12233.618023277037
535.1633982763833 12177.341270525762
536.1853347455726 12075.452012178579
537.2070111671401 12173.359112558057
538.2284276221817 12081.010333423152
539.2495841917516 12011.910699295755
540.2704809568677 11942.648581632948
541.2911179985167 11979.092371518353
542.3114953976419 11898.17233184836
543.3316132351592 11820.747026578436
544.3514715919409 11832.532213947708
545.3710705488247 11752.872244776181
546.3904101866156 11765.161759418985
547.4094905860784 11773.213856995048
548.4283118279418 11738.818550479182
549.4468739929034 11717.262330590624
550.4651771616191 11689.195384637414
551.4832214147063 11552.131429028623
552.501006832761 11720.057176862314
553.5185334963226 11681.383041209676
554.5358014859103 11596.257455250347
555.5528108820035 11628.436666826874
556.5695617650363 11562.738032131949
557.5860542154242 11625.759968868242
558.6022883135283 11592.120144909453
559.6182641396881 11530.507758843814
560.6339817741991 11623.877943776284
561.6494412973225 11582.584919468167
562.6646427892883 11652.325601468465
563.6795863302796 11503.388687078184
564.694272000459 11485.771408508268
565.7086998799423 11616.227941217603
566.7228700488104 11452.766560285556
567.7367825871115 11519.078486013155
568.7504375748576 11552.283744345441
569.7638350920224 11514.187211468818
570.7769752185486 11426.27473929252
571.7898580343353 11451.50138999475
572.802483619258 11403.359011105818
573.8148520531431 11649.54086144939
574.8269634157932 11512.406320530788
575.8388177869692 11425.793505257572
576.8504152463938 11466.294346469123
577.8617558737587 11651.278293262092
578.8728397487175 11492.756463834588
579.883666950891 11466.977818841977
580.8942375598654 11581.140893219808
581.9045516551851 11599.229083905839
582.9146093163617 11786.647912266995
583.924410622878 11628.961735363062
584.9339556541727 11646.075892704364
585.9432444896538 11751.242330366676
586.9522772086875 11651.72354677338
587.9610538906127 11715.070785690414
588.9695746147318 11643.878893233104
589.9778394603054 11711.446344322942
590.985848506567 11668.902843798094
591.9936018327098 11683.589300646436
593.0010995178891 11431.750004792411
594.0083416412344 11604.389880099308
595.0153282818283 11413.319665561055
596.0220595187293 11376.367620275418
597.0285354309508 11398.299565603762
598.0347560974806 11419.724166799897
599.0407215972609 11365.504505451543
600.0464320092051 11305.962634574085
601.0518874121954 11350.174496803713
602.0570878850685 11275.236572812877
603.062033506636 11332.887775817197
604.0667243556636 11313.519533512082
605.0711605108936 11190.7238910308
606.0753420510264 11489.42574675369
607.0792690547278 11338.516950265494
608.082941600629 11297.588669145656
609.0863597673306 11352.376975513385
610.0895236333909 11419.571568451442
611.0924332773357 11537.107087350221
612.0950887776617 11384.38196756874
613.0974902128219 11464.903695366958
614.0996376612384 11608.114545329723
615.1015312013005 11641.838885797213
616.1031709113595 11705.241332230746
617.1045568697336 11668.203456823481
618.1056891547069 11722.467647896596
619.1065678445229 11759.997249886863
620.1071930173985 11994.409626579298
621.1075647515099 11994.010169181725
622.1076831250048 12048.485275483523
623.1075482159849 12159.720498396386
624.1071601025305 12180.959258077712
625.1065188626781 12202.039675184722
626.105624574433 12386.891347503115
627.1044773157682 12402.245154388578
628.1030771646128 12417.49200825427
629.1014241988742 12580.075908179706
630.0995184964158 12647.197398640783
631.0973601350688 12667.553099923727
632.0949491926294 12855.634269080516
633.0922857468631 12545.310004995194
634.089369875499 12681.254687222774
635.0862016562278 12628.97091742456
636.0827811667077 12470.757388538128
637.0791084845641 12505.910110700697
638.0751836873878 12348.138442236652
639.0710068527369 12469.69568026584
640.0665780581294 12259.403299711852
641.0618973810506 12180.795612573791
642.0569648989604 12294.003356739082
643.0517806892676 11994.905485296864
644.0463448293649 12027.976598650548
645.040657396592 12011.251694006314
646.0347184682723 11901.81280191825
647.0285281216875 11764.588178928932
648.0220864340772 11666.697630317827
649.0153934826558 11638.212025428691
650.0084493446047 11570.754726027513
651.0012540970674 11614.981165021032
651.9938078171526 11426.280667033134
652.9861105819346 11456.14372878594
653.9781624684565 11446.129417499895
654.9699635537254 11319.32079140937
655.9615139147136 11372.033344598067
656.9528136283589 11277.24812901644
657.9438627715699 11331.587890530052
658.9346614212154 11271.867120421803
659.925209654135 11037.757225901463
660.9155075471263 11023.180298417981
661.9055551769616 11102.403773371743
662.895352620375 11187.040574951952
663.8848999540678 11002.209872010077
664.8741972547068 10906.481638415356
665.863244598926 10900.696922808962
666.8520420633213 10985.64743332155
667.8405897244611 10810.323328122055
668.8288876588758 10829.97348207698
669.8169359430613 10914.14512113529
670.8047346534822 10881.106926229832
671.7922838665672 10791.010603518935
672.7795836587156 10810.403066604247
673.766634106285 11011.70733484647
674.7534352856092 10746.017952256276
675.7399872729766 10687.003513803435
676.7262901446538 10739.87658501302
677.712343976862 10744.132649067846
678.6981488457986 10843.56194535892
679.6837048276229 10664.139631605063
680.6690119984596 10752.102868324668
681.6540704344043 10765.271764600406
682.6388802115107 10702.140775208212
683.6234414058108 10686.180487387464
684.6077540932874 10646.980352893139
685.591818349907 10622.118209973922
686.575634251587 10631.626642508269
687.5592018742263 10543.939267542944
688.5425212936734 10454.747647352557
689.5255925857564 10622.891755583085
690.5084158262707 10585.488288163895
691.4909910909646 10471.363498955769
692.4733184555644 10386.446940592488
693.4553979957618 10494.25131658994
694.4372297872123 10454.619508174455
695.4188139055404 10403.597737498203
696.4001504263324 10276.695813304279
697.3812394251509 10461.031141657153
698.3620809775111 10479.02707051337
699.3426751589104 10296.336814690152
700.3230220448004 10225.112032104185
701.3031217106054 10390.994623496439
702.2829742317172 10516.054755510148
703.2625796834873 10160.12184989464
704.2419381412474 10267.987243612632
705.22104968028 10372.547925031415
706.1999143758458 10242.918186704797
707.178532303169 10224.874013072844
708.1569035374378 10305.454847276455
709.1350281538107 10344.619832277263
710.1129062274158 10182.45915790205
711.0905378333373 10352.073589989059
712.0679230466376 10423.278441787386
713.0450619423427 10389.521180500604
714.0219545954424 10584.959755030199
714.9986010808989 10349.767301855321
715.9750014736292 10286.84586681666
716.9511558485392 10488.430852744788
717.9270642804786 10589.912667466671
718.9027268442787 10564.187333577474
719.8781436147328 10559.404537243452
720.8533146666014 10492.122449528204
721.828240074612 10579.67491452464
722.8029199134635 10543.315678782845
723.7773542578125 10472.502170733915
724.751543182294 10404.341275691357
725.7254867615029 10502.259737848446
726.6991850700015 10247.393606959573
727.6726381823228 10326.255403063557
728.6458461729599 10311.67906823076
729.6188091163858 10242.205358839552
730.5915270870246 10208.461819120354
731.5640001592856 10142.854513447151
732.536228407529 10121.152219115851
733.5082119060917 10075.120600180515
734.4799507292755 10145.626104094508
735.4514449513481 10080.35219425766
736.4226946465496 10207.914106540742
737.3936998890786 10290.381774019315
738.3644607531078 10057.227913784332
739.3349773127793 10107.444275104168
740.3052496421951 10190.644310846705
741.27527781543 10070.894115920022
742.2450619065221 9970.333710620916
743.2146019894826 9964.560467728135
744.183898138288 10069.717688217952
745.1529504268801 9981.334401454264
746.1217589291682 9822.068961956178
747.0903237190341 9922.209525737779
748.058644870318 9897.670853281006
749.0267224568397 9847.451225894914
749.994556552374 9731.331958940367
750.9621472306771 9877.994910807709
751.9294945654583 9773.577435748348
752.8965986304011 9827.861892465395
753.8634594991636 9721.230636551545
754.8300772453586 9843.205264225977
755.7964519425768 9728.046764724033
756.762583664371 9822.016021736668
757.7284724842611 9812.49717921751
758.6941184757416 9753.74858534677
759.6595217122667 9762.747428300787
760.6246822672638 9768.096908770356
761.5896002141235 9641.124612356765
762.5542756262093 9745.889469282909
763.5187085768503 9720.17004511529
764.4828991393406 9694.795078693465
765.4468473869474 9730.290097088786
766.4105533929032 9732.884986804713
767.3740172304078 9641.516897575404
768.3372389726283 9704.615318897275
769.3002186926988 9602.296712252828
770.2629564637282 9612.652487151443
771.2254523587872 9554.043811854219
772.1877064509154 9496.202995824204
773.1497188131179 9467.746245858996
774.1114895183728 9454.797060331639
775.0730186396268 9402.510386593509
776.0343062497905 9378.018613385044
776.9953524217381 9328.716606883947
777.9561572283274 9403.6085870977
778.9167207423689 9429.138272188009
779.8770430366476 9251.554916055733
780.8371241839159 9325.358151143844
781.7969642568951 9303.53843780112
782.7565633282757 9459.51295190098
783.7159214707099 9272.772386597053
784.6750387568281 9284.372106271014
785.6339152592227 9266.059423639985
786.5925510504512 9303.48150281325
787.5509462030477 9406.298085044804
788.5091007895098 9305.074278914908
789.4670148823006 9301.097201651977
790.4246885538596 9306.128590592794
791.3821218765861 9332.104590215573
792.3393149228505 9129.304972772868
793.2962677649975 9316.116523956172
794.2529804753303 9297.414470534171
795.20945312613 9341.752322801174
796.1656857896378 9226.67868856588
797.1216785380675 9215.959882283012
798.0774314435985 9422.207673416511
799.0329445783846 9519.570749296576
799.9882180145414 9460.284573934307
800.9432518241574 9386.436384627365
801.89804607929 9464.747074238298
802.852600851962 9578.153698679927
803.8069162141637 9455.665257686587
804.760992237856 9557.574867049228
805.714828994971 9575.500369134772
806.6684265574077 9640.69869114553
807.6217849970271 9584.689507148767
808.574904385674 9525.672843878734
809.527784795142 9674.093863882677
810.4804262972102 9756.587968206466
811.4328289636178 9534.461432564678
812.3849928660748 9374.943824519518
813.3369180762638 9445.861687528353
814.2886046658241 9490.377693120265
815.2400527063783 9375.481507403003
816.1912622695108 9277.503491738675
817.1422334267718 9435.973391116324
818.0929662496856 9198.971722172555
819.0434608097457 9100.464522826547
819.9937171784059 9226.512905653413
820.9437354271013 9075.31499456675
821.8935156272255 9232.127316259879
822.8430578501484 9044.043318014355
823.7923621672016 8908.808867487669
824.7414286496896 8982.168686744026
825.6902573688876 9079.899968287546
826.6388483960363 8955.966262927639
827.5872018023492 8913.708280712324
828.5353176590033 9090.333834015453
829.4831960371503 8858.444551413322
830.4308370079016 8873.905357984957
831.3782406423525 8977.929710510018
832.3254070115545 8863.631286300877
833.2723361865319 8785.905060284047
834.2190282382799 8687.181888990503
835.1654832377644 8786.956151682183
836.1117012559116 8785.077453939715
837.0576823636256 8848.821348120251
838.003426631778 8607.367436896548
838.9489341312074 8668.885216997905
839.8942049327197 8811.778332486034
840.8392391070975 8805.185561689037
841.7840367250865 8780.329393498743
842.7285978573982 8672.382351961003
843.672922574724 8773.01631603823
844.6170109477152 8675.830229793708
845.560863046996 8627.939085323029
846.5044789431595 8665.136038485376
847.4478587067697 8680.502821719077
848.3910024083561 8832.428530447834
849.333910118421 8644.702017030797
850.2765819074339 8586.763276125657
851.2190178458332 8710.93748682414
852.161218004032 8789.505245844086
853.1031824524016 8647.407349169556
854.0449112612987 8561.807312518347
854.9864045010327 8720.419649602183
855.9276622418947 8553.873894082484
856.8686845541379 8634.808843897732
857.8094715079915 8559.084291142784
858.7500231736467 8709.99901670781
859.690339621271 8554.829136344437
860.6304209209939 8602.349063286165
861.5702671429244 8552.747009934474
862.5098783571284 8555.345501372069
863.4492546336569 8592.891822861788
864.3883960425155 8572.54319664654
865.3273026536863 8528.873173471795
866.2659745371238 8404.216195625331
867.2044117627465 8615.354491846014
868.1426144004472 8526.648939888373
869.0805825200823 8596.690566018433
870.0183161914847 8603.595595091054
870.9558154844526 8810.857023702945
871.8930804687552 8630.626818246534
872.8301112141307 8564.667788076013
873.7669077902865 8766.969876269843
874.7034702669062 8805.46795432864
875.6397987136315 8706.587888196298
876.5758932000863 8765.491706975628
877.5117537958522 8774.81034798512
878.4473805704911 8652.598947756094
879.3827735935283 8688.748527226924
880.3179329344603 8887.206247885466
881.2528586627541 8875.672970117414
882.1875508478479 8891.634174450173
883.1220095591489 8796.528242378386
884.0562348660296 8724.89387229364
884.9902268378391 8818.833134078568
885.9239855438955 8667.081449574078
886.8575110534839 8623.08313417006
887.7908034358588 8687.991178645538
888.7238627602474 8665.52284595202
889.6566890958475 8701.894305227926
890.5892825118208 8527.722368832328
891.5216430773125 8680.72189489274
892.4537708614189 8538.978286850877
893.3856659332196 8437.570724275232
894.3173283617652 8427.277281330247
895.2487582160684 8495.977832942297
896.179955565116 8335.717557010945
897.110920477864 8430.637972098208
898.0416530232451 8292.634841724379
898.9721532701478 8276.783386903999
899.9024212874428 8368.598024126208
900.8324571439662 8183.337610046903
901.7622609085302 8256.322311095351
902.6918326499072 8139.973747754113
903.6211724368477 8272.262995283474
904.5502803380696 8339.228980415977
905.4791564222614 8408.306854349836
906.4078007580792 8188.000155508455
907.3362134141571 8189.869753055626
908.2643944590909 8278.542810239102
909.1923439614493 8146.899678504509
910.1200619897754 8198.019819638386
911.0475486125779 8288.157378503507
911.9748038983344 8177.887961960672
912.9018279155007 8078.856754058705
913.8286207324982 8060.427136752262
914.7551824177117 8139.579930962235
915.6815130395116 8095.235676678899
916.6076126662283 8000.127242732039
917.533481366163 8117.540529786471
918.4591192075914 8075.580208016125
919.3845262587565 8178.1400114864055
920.3097025878706 7997.413830405759
921.2346482631237 7988.693450637655
922.1593633526682 8076.746645568785
923.0838479246304 8109.713712173281
924.0081020471061 8204.677355369424
924.9321257881656 7874.60386916329
925.8559192158464 8017.895020086289
926.7794823981512 7972.877882277959
927.7028154030686 7830.040864967746
928.6259182985414 7851.802785359287
929.5487911524906 8086.897179917871
930.4714340328119 8043.1028320522
931.3938470073608 7837.5741550988405
932.3160301439748 7953.408433230965
933.2379835104548 8009.467287502072
934.1597071745709 8114.352817560735
935.0812012040769 8028.58458062518
936.002465666681 8063.185438949203
936.9235006300696 8010.255272110377
937.8443061619055 7981.412574970862
938.7648823298077 7844.325890718983
939.6852292013809 7848.788327097146
940.6053468441951 7980.138975744788
941.5252353257874 7891.621497029101
942.4448947136698 7810.632600615616
943.364325075323 7855.848769852848
944.2835264782043 7846.913309907669
945.2024989897309 7809.144340846557
946.1212426773054 7847.484288551471
947.0397576082851 7904.300801176862
947.9580438500125 8005.200343665238
948.8761014697939 7978.602783639716
949.7939305349064 7909.13731812902
950.7115311125999 7797.3280382642815
951.6289032700952 7811.904500234031
952.5460470745875 7995.809511436152
953.4629625932339 7828.758993836306
954.3796498931715 7899.610115476587
955.2961090415029 7945.4673257677805
956.2123401053068 7863.140932735025
957.1283431516276 7867.651210238539
958.0441182474842 7755.995859299513
958.9596654598663 8010.355924354333
959.8749848557309 7817.556464932159
960.7900765020167 7754.2698736437615
961.7049404656209 7777.306387944976
962.6195768134185 7840.919503000982
963.5339856122537 7850.952279840009
964.4481669289453 7874.914447704019
965.3621208302793 7768.396969310881
966.2758473830145 7674.1362432123115
967.1893466538822 7930.89423214616
968.1026187095813 7756.619849923157
969.0156636167867 7720.396668683441
969.9284814421426 7815.882478732861
970.8410722522622 7761.544364522732
971.753436113735 7738.188683994861
972.6655730931161 7736.10443202233
973.5774832569368 7855.497633376333
974.4891666716958 7628.987406982005
975.4006234038698 7666.140522977262
976.3118535198955 7661.098869390997
977.2228570861935 7834.286574598414
978.1336341691494 7808.452335197444
979.0441848351202 7611.212135508611
979.9545091504333 7792.907999221758
980.864607181391 7752.010737434894
981.7744789942699 7792.237155407948
982.6841246553086 7795.309647183526
983.5935442307236 7807.567721913809
984.5027377867027 7831.143594651066
985.4117053894024 7759.287083596326
986.3204471049557 7747.670635281991
987.2289629994648 7835.277068634508
988.1372531390007 7936.577120948947
989.0453175896091 7824.674058259661
989.9531564173067 7820.355842706439
990.860769688079 7720.994602426149
991.7681574678918 7758.502278565521
992.6753198226706 7870.773175539236
993.582256818323 7849.872093296949
994.4889685207218 7789.564058947476
995.3954549957143 8068.982075550228
996.301716309119 7971.727226034212
997.2077525267232 7887.065123852584
998.1135637142943 7840.3444056612625
999.0191499375615 8029.927548462756
999.924511262232 8021.082782058911
1000.8296477539861 7976.48960346601
1001.7345594784656 7937.310442498131
1002.6392465012996 7917.608899471251
1003.5437088880753 8054.943874102266
1004.4479467043584 7964.681132041731
1005.3519600156869 7781.665318730814
1006.2557488875718 7910.740922175697
1007.1593133854858 7924.296266278402
1008.0626535748888 7787.278217881748
1008.9657695212009 7653.452245639167
1009.8686612898182 7870.531406516192
1010.7713289461135 7849.605658775101
1011.6737725554212 7809.583081437192
1012.5759921830577 7729.612479894914
1013.4779878943027 7818.697464219202
1014.379759754418 7882.954427925254
1015.2813078286254 7659.982733682799
1016.18263218213 7592.046421959938
1017.0837328801026 7687.507549285032
1017.9846099876886 7817.732380734135
1018.8852635700023 7642.442157059859
1019.7856936921362 7551.176771405435
1020.6859004191447 7829.03760442045
1021.5858838160675 7605.13070295406
1022.4856439479063 7530.6471851944125
1023.3851808796389 7568.850741876944
1024.2844946762143 7708.342325696266
1025.183585402554 7665.721811426893
1026.082453123554 7429.501621670861
1026.9810979040776 7499.657994113598
1027.8795198089647 7459.781293562577
1028.777718903024 7548.177342117029
1029.6756952510368 7538.687842526866
1030.5734489177648 7457.806755199503
1031.4709799679313 7486.92266292625
1032.3682884662358 7697.9346836913555
1033.2653744773506 7422.7070918155005
1034.1622380659192 7301.788347523718
1035.058879296559 7578.481810000301
1035.9552982338591 7639.8027119977805
1036.8514949423825 7529.7685018109305
1037.7474694866614 7501.432114430671
1038.6432219312028 7347.676768776309
1039.5387523404825 7649.394789072545
1040.4340607789582 7497.547400667386
1041.3291473110476 7538.092238223343
1042.2240120011465 7610.736988741647
1043.1186549136273 7713.6515707580165
1044.0130761128294 7579.324156469226
1044.9072756630649 7530.751020419276
1045.8012536286205 7715.060716462032
1046.6950100737577 7626.246571057093
1047.588545062701 7785.781044115878
1048.481858659663 7796.298710019696
1049.3749509288118 7928.094650758263
1050.2678219343034 7720.257814329348
1051.1604717402515 7760.54859418202
1052.0529004107575 7747.101767701033
1052.9451080098825 7834.010289035917
1053.8370946016694 7874.436387780229
1054.7288602501267 7899.780201250795
1055.6204050192446 7827.237160045862
1056.511728972977 8032.265516128107
1057.402832175254 7971.0314539541505
1058.2937146899785 7955.967085941282
1059.1843765810263 7943.946065171274
1060.0748179122456 8094.449790137395
1060.9650387474576 8003.886445027623
1061.855039150456 7984.953988878615
1062.7448191850071 7938.055248488423
1063.6343789148505 7848.460160211138
1064.5237184037014 8027.525094676154
1065.412837715241 7803.043671043148
1066.3017369131267 7842.823213861133
1067.190416060992 7729.50042918891
1068.0788752224398 7695.475754804413
1068.9671144610438 7635.902502295806
1069.8551338403558 7730.472765201945
1070.7429334239023 7702.6346676749645
1071.6305132751695 7467.159300044732
1072.517873457633 7673.458156781473
1073.4050140347335 7430.497480746958
1074.2919350698776 7510.785943166016
1075.1786366264623 7496.6886075832135
1076.0651187678395 7451.354027721895
1076.95138155735 7345.121064091893
1077.8374250582929 7382.8907269454185
1078.7232493339507 7382.739666579664
1079.608854447577 7340.7571573032765
1080.4942404623907 7187.517439067563
1081.3794074415982 7388.876455386194
1082.2643554483657 7400.719437239643
1083.149084545841 7353.063118626778
1084.033594797138 7222.239725592753
1084.9178862653516 7248.529227671717
1085.8019590135427 7488.953944427088
1086.6858131047484 7251.758268097939
1087.5694486019802 7293.615759420887
1088.4528655682225 7305.188444343739
1089.3360640664287 7442.251397879631
1090.2190441595321 7410.840550580158
1091.1018059104317 7311.649395479915
1091.98434938201 7395.188998325949
1092.866674637111 7412.720599376601
1093.748781738559 7323.208661228472
1094.6306707491512 7192.798867307605
1095.5123417316554 7281.0502603132745
1096.3937947488157 7321.294824099927
1097.2750298633455 7200.501722317012
1098.156047137938 7101.378767582452
1099.0368466352556 7242.110662307726
1099.9174284179317 7360.983540199037
1100.7977925485757 7083.223624239302
1101.6779390897755 7104.132882261069
1102.5578681040806 7214.620742681599
1103.4375796540226 7248.047068875979
1104.3170738021054 7144.298889718184
1105.1963506108077 7080.91141748753
1106.0754101425773 7051.24950928442
1106.9542524598382 7161.451918131829
1107.8328776249855 7094.050296654811
1108.7112857003904 7050.93230656873
1109.5894767483987 7041.444135443385
1110.4674508313292 7203.528843789192
1111.3452080114657 7037.472969301879
1112.2227483510815 7215.10019035033
1113.1000719124077 7163.567144732595
1113.9771787576592 7231.202168643436
1114.854068949022 7153.319538344011
1115.7307425486542 7251.4133795015805
1116.6071996186893 7371.329739160213
1117.483440221229 7366.225713945962
1118.3594644183577 7270.118351809634
1119.235272272128 7290.5005078809
1120.1108638445658 7400.1414003466925
1120.9862391976712 7554.550933570572
1121.8613983934229 7497.030593034088
1122.7363414937627 7495.743526904739
1123.6110685606182 7471.004464989887
1124.485579655884 7698.073037169082
1125.359874841426 7566.290233562812
1126.2339541790916 7566.526105806542
1127.1078177306936 7846.913865211301
1127.9814655580267 7606.142994580006
1128.854897722851 7670.748345803719
1129.7281142869106 7714.514743437217
1130.6011153119125 7714.279132905004
1131.473900859548 7839.84887122019
1132.3464709914697 7684.08843246693
1133.2188257693178 7721.287790940971
1134.0909652546961 7611.403735981085
1134.96288950919 7525.910084217379
1135.8345985943506 7592.088070653818
1136.7060925717087 7546.608828661677
1137.57737150277 7609.7503579842205
1138.4484354490069 7600.69610380455
1139.3192844718778 7434.956723335912
1140.1899186327992 7275.464167534145
1141.060337993178 7465.259767871503
1141.930542614382 7419.56295300433
1142.8005325577597 7250.905658478087
1143.670307884635 7159.687279162371
1144.5398686563003 7288.9616076243665
1145.409214934025 7187.338507239385
1146.2783467790541 7008.950667712228
1147.1472642526023 7132.480478093555
1148.0159674158622 7156.755483403528
1148.8844563300026 6961.059609726169
1149.7527310561618 6939.1718424261835
1150.6207916554504 6826.6702134123
1151.4886381889592 6849.456623698391
1152.3562707177498 6875.630203193601
1153.2236893028585 6867.06632597461
1154.090894005296 6782.589716414948
1154.9578848860474 6864.598521891118
1155.8246620060709 6872.596364488943
1156.6912254262988 6732.194908610409
1157.5575752076438 6696.2521079962
1158.42371141098 6939.499345712781
1159.2896340971656 6827.727437777088
1160.1553433270346 6777.8968867924705
1161.0208391613887 6858.779897676379
1161.8861216610057 6866.831083338948
1162.75119088664 6849.282962100571
1163.6160468990201 6833.414033550606
1164.4806897588442 6743.030907032233
1165.3451195267917 6917.745933308598
1166.2093362635114 6846.554469354598
1167.0733400296285 6849.449523576979
1167.9371308857444 6784.814892604755
1168.8007088924278 6802.331492513044
1169.6640741102328 6820.83604754502
1170.5272265996773 6705.5615418502175
1171.390166421259 6533.368755309135
1172.252893635452 6754.868981171674
1173.1154083026995 6821.000074886373
1173.977710483421 6795.062718595169
1174.8398002380145 6599.1754093256295
1175.7016776268483 6703.629436639305
1176.563342710264 6641.059810380912
1177.4247955485826 6631.4769752750435
1178.2860362020947 6701.319408659944
1179.147064731069 6553.492237196269
1180.0078811957483 6735.586310777857
1180.8684856563486 6554.692863682241
1181.7288781730604 6649.420072071729
1182.589058806052 6774.241807231217
1183.4490276154593 6893.563392079144
1184.3087846614017 6668.072304421473
1185.1683300039676 6749.581361211318
1186.027663703222 6945.461834755309
1186.8867858192025 6845.5349319157085
1187.7456964119228 6800.889879100466
1188.6043955413716 6908.927399453377
1189.4628832675116 6980.229320724948
1190.3211596502842 7041.513274812096
1191.179224749596 7005.329359318479
1192.0370786253388 6832.489900618852
1192.8947213373758 7175.529820750504
1193.7521529455407 7180.910573115956
1194.6093735096438 6877.728506730773
1195.466383089477 6967.689883403567
1196.3231817447977 6958.837083419446
1197.1797695353398 7238.94760888106
1198.0361465208189 6850.745875939037
1198.8923127609214 6850.138104206448
1199.7482683153048 7030.356805839785
1200.6040132436028 7121.588282740636
1201.459547605431 6964.0584478257315
1202.3148714603722 7087.466572036644
1203.1699848679855 6962.744077113993
1204.0248878878065 7011.153041510974
1204.8795805793507 6704.308680384708
1205.7340630020935 6892.12068138233
1206.5883352155033 7005.722583311968
1207.4423972790064 6956.689315941483
1208.2962492520237 6750.151354440767
1209.1498911939307 6822.687853572976
1210.0033231640937 6862.869997713535
1210.8565452218427 6798.193293367642
1211.7095574264913 6650.098934029574
1212.5623598373222 6637.6953683500615
1213.4149525135963 6607.285104778147
1214.2673355145507 6707.916167408579
1215.1195088993936 6561.990604864142
1215.9714727273113 6609.470135331413
1216.8232270574663 6778.140158613787
1217.6747719489904 6478.640010812061
1218.5261074609934 6491.609006960016
1219.3772336525653 6615.676458394783
1220.2281505827668 6572.234583282479
1221.0788583106296 6690.446953134517
1221.9293568951707 6410.713984295426
1222.7796463953746 6392.2733769715505
1223.629726870202 6563.383065907963
1224.4795983785934 6516.125343513837
1225.3292609794553 6413.422341653798
1226.1787147316809 6301.831886233008
1227.0279596941327 6540.632230505081
1227.8769959256424 6315.1996362744885
1228.7258234850306 6530.071147111356
1229.5744424310833 6227.900644615299
1230.422852822563 6497.820769925923
1231.2710547182105 6679.705711537999
1232.119048176739 6421.811312215845
1232.9668332568417 6217.622150958383
1233.8144100171812 6417.501880302219
1234.6617785163999 6422.814680783547
1235.508938813111 6227.529174534278
1236.3558909659114 6359.963653301284
1237.2026350333617 6415.48371186969
1238.049171074008 6514.24368621662
1238.8954991463652 6349.452954797507
1239.741619308932 6274.932024149097
1240.587531620169 6970.507697037649
1241.4332361385277 6548.291876424741
1242.2787329224248 6389.553563100927
1243.1240220302534 6195.791723207919
1243.9691035203869 6233.2575857189595
1244.813977451171 6507.205140513086
1245.6586438809263 6288.942624425856
1246.5031028679496 6197.340995983601
1247.3473544705157 6316.814684124847
1248.1913987468706 6219.444695114543
1249.0352357552383 6133.459205863219
1249.8788655538228 6225.952825086513
1250.7222882007918 6384.529136313249
1251.565503754302 6303.500279033729
1252.4085122724755 6071.4231090495505
1253.2513138134182 6245.939574660115
1254.0939084352049 6275.745866621291
1254.9362961958905 6191.241544090055
1255.7784771535007 6175.997402229045
1256.6204513660432 6265.181911652105
1257.4622188915 6386.599903388635
1258.3037797878242 6228.945466123399
1259.1451341129468 6121.215055236576
1259.9862819247755 6271.460372375933
1260.8272232811978 6212.113097088994
1261.6679582400666 6356.360380756947
1262.5084868592203 6119.48027636561
1263.34880919647 6127.983182456106
1264.1889253095997 6220.097264151131
1265.0288352563712 6283.035329361905
1265.8685390945266 6158.76134180282
1266.7080368817751 6208.189109644565
1267.5473286758115 6312.823374814951
1268.386414534294 6195.266433075447
1269.2252945148703 5980.924203447499
1270.0639686751547 6004.304133913223
1270.9024370727402 6037.496451605262
1271.7406997651997 6091.119583160561
1272.5787568100714 5958.813081686802
1273.4166082648808 5952.1233257650365
1274.2542541871244 6139.251995661722
1275.091694634275 6328.052386472489
1275.9289296637817 5918.780333909727
1276.7659593330663 6094.906550309094
1277.6027836995308 6084.900200445208
1278.4394028205552 6244.402588086171
1279.2758167534867 6041.651745687506
1280.112025555658 6070.606986471379
1280.9480292843746 6089.821774255424
1281.7838279969128 5833.600521141781
1282.6194217505326 5878.332390423437
1283.4548106024686 5931.419127375839
1284.289994609926 5946.157465677652
1285.1249738300921 6073.613548703002
1285.959748320127 5894.451690534178
1286.7943181371702 5944.141964605919
1287.6286833383328 5967.610725243416
1288.4628439807038 6066.53836899439
1289.2968001213521 5914.809579394477
1290.1305518173194 5879.930088139307
1290.9640991256183 6024.559401114619
1291.7974421032523 5921.237667926874
1292.630580807183 5878.615828239509
1293.463515294361 5981.063259281853
1294.29624562171 6194.026956341246
1295.12877184613 6029.097925383901
1295.961094024493 6029.219924080289
1296.79321221365 5923.097201928003
1297.6251264704333 6077.9026192127285
1298.4568368516466 6232.485811269578
1299.2883434140658 6035.107295298784
1300.1196462144526 5940.532808852309
1300.9507453095375 6095.511981880313
1301.7816407560313 6139.532136793738
1302.6123326106172 6011.095985994783
1303.4428209299622 5910.807054103317
1304.2731057707024 6232.362711132481
1305.1031871894502 6048.754419352899
1305.933065242798 6116.841215011149
1306.7627399873181 6020.060428316354
1307.5922114795467 6297.598939222461
1308.4214797760123 6467.879827927159
1309.2505449332057 6017.029126328403
1310.0794070076026 6202.079966011731
1310.9080660556538 6271.839461729691
1311.736522133786 6422.889183980657
1312.5647752983987 6136.732741380574
1313.3928256058734 5964.704862386092
1314.2206731125661 6198.050052862939
1315.048317874809 6119.394327319629
1315.8757599489109 6135.412464625833
1316.7029993911547 6122.715700333666
1317.5300362578055 6220.601927821991
1318.356870605101 6069.146310445825
1319.183502489257 5988.844109625574
1320.0099319664623 6183.77952226551
1320.836159092889 6173.109019777338
1321.66218392468 6232.538788631513
1322.4880065179532 6019.373571350988
1323.3136269288134 6105.538937330633
1324.1390452133292 6199.117207367095
1324.9642614275563 6329.065352310727
1325.7892756275214 6061.620424052284
1326.6140878692295 6046.359251353889
1327.4386982086617 6438.953909947393
1328.2631067017755 6180.078394839054
1329.0873134045069 6223.453983691508
1329.911318372764 6107.540700018035
1330.735121662441 6245.959047989605
1331.558723329399 6028.938143000277
1332.3821234294774 6073.211250788553
1333.2053220185007 6066.64553758268
1334.0283191522612 6114.891685553072
1334.851114886529 6190.930875100642
1335.6737092770582 5941.017233979635
1336.4961023795695 6016.219715464152
1337.3182942497697 5899.366082021378
1338.1402849433325 6138.625697784931
1338.962074515921 5816.562063220752
1339.7836630231632 5840.48274945293
1340.6050505206676 6160.590978072886
1341.426237064028 6155.552164912169
1342.2472227088037 5938.738710263906
1343.0680075105338 5864.271955563529
1343.888591524741 5912.807667066806
1344.7089748069138 6022.498098998602
1345.5291574125276 5905.390577867001
1346.3491393970307 5781.864096901237
1347.168920815846 6018.286227272906
1347.9885017243778 6033.254136762332
1348.8078821780036 5997.240166096193
1349.6270622320844 5911.150372077043
1350.4460419419447 5944.57823363699
1351.2648213629054 5987.892778435237
1352.0834005502438 5757.076828498199
1352.90177955923 5781.582406043055
1353.7199584451064 5903.30913604762
1354.5379372630887 5960.053828396716
1355.355716068374 5831.986140378883
1356.1732949161305 5797.049944336003
1356.9906738615155 5914.124335878731
1357.8078529596478 5933.587755440938
1358.6248322656375 5922.854531056292
1359.441611834567 5765.742071465207
1360.2581917214866 5958.028849775734
1361.0745719814367 5867.642457180997
1361.890752669433 5743.356131845113
1362.7067338404577 5687.2743305435615
1363.5225155494845 5888.487819524416
1364.3380978514506 6001.68074226055
1365.1534808012839 5584.599954132188
1365.9686644538815 5555.037110643713
1366.783648864117 5916.663190189665
1367.5984340868417 5873.237670047657
1368.413020176893 5747.338970653273
1369.2274071890715 5505.839664129178
1370.0415951781652 5809.33560375247
1370.8555841989346 5920.027164458685
1371.6693743061223 5550.305469498267
1372.48296555444 5522.162302098799
1373.2963579985844 5719.655982218879
1374.1095516932255 5688.7399954172715
1374.9225466930166 5490.915515063081
1375.7353430525782 5703.11088253419
1376.5479408265164 5570.824045292897
1377.36034006941 5725.211552467688
1378.1725408358216 5780.972513074477
1378.9845431802805 5465.226379083967
1379.796347157304 5868.12828791276
1380.6079528213813 5723.351599109738
1381.4193602269788 5476.621219130118
1382.230569428546 5464.324194306171
1383.0415804805016 5760.359763552674
1383.852393437246 5548.045872390148
1384.6630083531563 5589.439117354271
1385.4734252825892 5508.889837168475
1386.2836442798798 5629.7580509745585
1387.0936653993322 5617.286345291956
1387.9034886952395 5527.747920053062
1388.713114221864 5556.429407266017
1389.5225420334482 5573.730706078433
1390.331772184214 5482.084572003444
1391.1408047283585 5305.08561072121
1391.9496397200564 5479.514375555494
1392.758277213461 5593.04220011394
1393.5667172627054 5692.534769129188
1394.3749599218918 5429.618790314553
1395.1830052451114 5369.537222664377
1395.9908532864265 5499.577830599673
1396.7985040998774 5598.837389830741
1397.6059577394808 5307.676208915568
1398.4132142592352 5391.823473211562
1399.2202737131156 5423.111391878685
1400.027136155073 5593.281731429071
1400.8338016390353 5357.674925078473
1401.6402702189134 5322.855853511117
1402.446541948586 5474.608936169594
1403.2526168819204 5357.379320346552
1404.058495072757 5331.214418870293
1404.8641765749107 5446.228826623998
1405.6696614421799 5503.413830442276
1406.4749497283356 5737.830801558519
1407.280041487129 5404.192369081402
1408.084936772295 5169.654567016169
1408.8896356375335 5639.562876144032
1409.6941381365323 5492.6402654117755
1410.498444322955 5245.802476463932
1411.3025542504402 5326.321411941449
1412.106467972606 5444.9683511697485
1412.9101855430508 5542.018227542764
1413.7137070153458 5239.756818254603
1414.5170324430437 5323.698301293292
1415.320161879672 5463.356358811298
1416.1230953787435 5587.691031905236
1416.925832993742 5265.095412381319
1417.7283747781275 5111.238026065001
1418.5307207853439 5378.714861263981
1419.3328710688093 5322.951482079512
1420.134825681922 5079.474333559128
1420.9365846780584 5148.889624497026
1421.7381481105713 5416.74744945101
1422.539516032788 5284.551509921547
1423.3406884980232 5138.999192277299
1424.1416655595604 5213.677790702959
1424.942447270665 5274.658876326439
1425.7430336845828 5297.815558383498
1426.5434248545298 5088.646496509406
1427.3436208337116 5305.388760043291
1428.143621675301 5293.085465076821
1428.9434274324558 5398.888599113201
1429.7430381583108 5077.086602137471
1430.5424539059713 5210.98398135283
1431.3416747285337 5679.002161122552
1432.1407006790632 5349.870017422891
1432.9395318106053 5212.049852337994
1433.7381681761835 5009.053499671348
1434.5366098288014 5207.847940396773
1435.3348568214424 5358.300403435935
1436.1329092070573 5127.211500922102
1436.9307670385879 5167.800285296502
1437.7284303689503 5471.860506934978
1438.5258992510335 5476.018660692882
1439.3231737377118 5290.771510231383
1440.1202538818306 5178.643596236195
1440.9171397362225 5334.988791827976
1441.7138313536925 5350.623532500603
1442.5103287870243 5222.73465601685
1443.3066320889775 5022.074051660746
1444.1027413122956 5464.859476101412
1444.8986565096966 5254.045527161288
1445.694377733882 5288.784997044577
1446.4899050375207 5061.36895186154
1447.2852384732687 5243.472590156613
1448.0803780937622 5316.525946468828
1448.8753239516063 5102.648435099869
1449.6700760993954 4959.535191681415
1450.464634589689 5172.963359641835
1451.2589994750397 5486.846204075788
1452.0531708079689 4976.6359109352225
1452.8471486409799 4965.263831964059
1453.6409330265524 5274.840996564881
1454.4345240171442 5126.612945061112
1455.2279216651987 5003.01705423685
1456.0211260231263 4992.101863467569
1456.8141371433194 5223.264045885457
1457.6069550781594 5232.8948311848735
1458.3995798799897 4942.229908028631
1459.1920116011424 4816.560410578613
1459.98425029393 4874.798877771744
1460.7762960106338 4935.391003701863
1461.5681488035225 4962.837450555546
1462.3598087248392 5005.33652471253
1463.1512758268036 5177.100458439065
1463.942550161617 4915.982887916772
1464.7336317814625 4828.2841263520595
1465.524520738496 4926.639429815708
1466.3152170848552 4937.534297232301
1467.1057208726506 4921.540069848799
1467.8960321539817 4860.415496173342
1468.6861509809169 4768.029037065351
1469.4760774055085 4815.815494124304
1470.265811479785 4978.786044185795
1471.055353255755 4780.688064668358
1471.844702785409 4633.874756005701
1472.6338601207044 4763.192253638012
1473.4228253135934 4977.273105040831
1474.2115984159936 4669.88824682934
1475.0001794798063 4615.684103386544
1475.7885685569145 4810.982448306791
1476.576765699172 4719.699778907314
1477.3647709584238 4623.078413481517
1478.1525843864802 4946.9013985757365
1478.9402060351367 4832.357890488634
1479.7276359561693 4941.555024267238
1480.514874201328 4587.261016577659
1481.3019208223468 4588.458775506469
1482.0887758709323 4593.673688164119
1482.8754393987747 4838.835946900076
1483.6619114575406 4482.226074204687
1484.4481920988783 4626.548374343964
1485.2342813744108 4740.377638931799
1486.0201793357446 4817.15843630746
1486.8058860344572 4584.762381981302
1487.591401522117 4601.908871642872
1488.3767258502594 4739.6567909541445
1489.1618590704056 4758.263731896711
1489.9468012340494 4427.473780028214
1490.7315523926754 4676.6392253453605
1491.5161125977356 4805.267350505749
1492.3004819006637 4751.151088833224
1493.084660352877 4547.306380596199
1493.8686480057622 4717.55266003124
1494.6524449106964 4856.323692003107
1495.4360511190262 5011.333606674826
1496.219466682087 4722.779367110147
1497.0026916511779 4681.277746004094
1497.7857260775945 4817.906534045626
1498.5685700125996 4890.665398807496
1499.3512235074395 4530.131702613838
1500.133686613337 4526.792029026964
1500.9159593814966 4729.102870719946
1501.698041863101 5056.540416918483
1502.4799341093094 4593.697636890618
1503.2616361712662 4511.182701607162
1504.043148100087 4737.763651575899
1504.8244699468742 4755.059726934282
1505.6056017626997 4542.686753955191
1506.3865435986281 4501.931075680359
1507.1672955056893 4772.596975775277
1507.9478575348967 4566.824774923021
1508.7282297372512 4710.059411680553
1509.5084121637192 4527.242264275902
1510.2884048652577 4718.771458756532
1511.0682078927948 4562.792346335449
1511.8478212972423 4565.643469924789
1512.6272451294917 4486.611314366435
1513.4064794404076 4711.348721465519
1514.1855242808433 4748.727602617705
1514.9643797016215 4550.591973635682
1515.743045753552 4697.70743984204
1516.5215224874191 4714.8238031485425
1517.2998099539836 4447.89279426457
1518.077908203999 4537.929179380548
1518.8558172881785 4621.100393748517
1519.633537257234 4673.603142000503
1520.4110681618404 4620.868214726799
1521.1884100526604 4557.863919607905
1521.9655629803365 4497.904405554731
1522.7425269954856 4683.762543061859
1523.5193021487103 4886.384944050315
1524.2958884905856 4505.363109011634
1525.0722860716687 4541.818368794184
1525.848494942502 4510.759607440387
1526.624515153595 4553.867577595198
1527.4003467554485 4567.497853071383
1528.175989798534 4655.514372921247
1528.9514443333064 4594.714157095857
1529.726710410203 4781.2812176381385
1530.5017880796331 4400.630502247959
1531.276677391992 4460.805040970934
1532.0513783976457 4796.7184014416425
1532.825891146953 4495.913965094714
1533.6002156902414 4672.075634837587
1534.3743520778207 4430.031225922323
1535.1483003599806 4611.27931487575
1535.9220605869923 4633.237462552503
1536.6956328091019 4565.037863961683
1537.4690170765407 4635.790772191744
1538.242213439511 4621.984556649893
1539.015221948208 4625.1197187785565
1539.78804265279 4579.315057060181
1540.560675603405 4551.453466653094
1541.3331208501804 4758.520444198418
1542.1053784432224 4783.871576826533
1542.8774484326168 4615.887117304753
1543.649330868422 4598.967562464778
1544.4210258006842 4659.312690802232
1545.1925332794308 4663.05402755741
1545.9638533546604 4676.435217637878
1546.7349860763552 4544.522835978836
1547.5059314944829 4933.924491124015
1548.27668965898 4689.281726350426
1549.0472606197673 4674.996636483948
1549.817644426752 4587.92313978302
1550.5878411298072 4833.507769633728
1551.3578507787988 4714.816575139838
1552.1276734235635 4573.200389650319
1552.8973091139233 4632.852100125959
1553.6667578996767 4812.402269448596
1554.436019830604 4674.2461867667
1555.20509495646 4545.840013898251
1555.9739833269869 4533.944017495498
1556.7426849919011 4658.388760860216
1557.511200000903 4863.7008580960955
1558.2795284036674 4738.301557950818
1559.0476702498509 4570.081030526237
1559.8156255890954 4852.600763116869
1560.5833944710157 5014.419358231793
1561.3509769452048 4633.119941564208
1562.1183730612447 4659.091432716835
1562.8855828686865 4723.695304323557
1563.6526064170703 4905.326193311064
1564.4194437559127 4693.656052639878
1565.1860949347047 4590.815729739799
1565.9525600029283 5028.232784285294
1566.7188390100328 4963.79014917448
1567.4849320054564 4541.1311552995885
1568.250839038612 4619.727451700432
1569.0165601588997 4653.278089821121
1569.7820954156887 4716.754014487539
1570.5474448583373 4582.871369846178
1571.31260853618 4498.121954170133
1572.0775864985299 4515.482672046678
1572.8423787946813 4631.423171022165
1573.6069854739108 4568.668007321108
1574.371406585471 4579.021561813756
1575.1356421785986 4749.253013039097
1575.899692302506 4605.709964500314
1576.6635570063845 4629.228369166745
1577.4272363394157 4491.949124090233
1578.190730350747 4634.740258690067
1578.9540390895163 4713.688762827222
1579.7171626048384 4340.124157588767
1580.480100945806 4402.098434870239
1581.2428541614918 4567.995723481122
1582.0054223009538 4704.26199636689
1582.767805413223 4520.874457811514
1583.5300035473156 4481.751381082272
1584.292016752228 4956.132087767458
1585.0538450769309 4647.042420933589
1585.8154885703807 4455.985530052321
1586.5769472815136 4416.671677073645
1587.3382212592405 4522.895043366914
1588.099310552463 4742.150836725914
1588.8602152100484 4476.140029143255
1589.6209352808564 4583.467424233677
1590.3814708137234 4581.894792500703
1591.14182185746 4579.651313723206
1591.9019884608679 4503.02246675398
1592.6619706727215 4241.9010233590525
1593.4217685417734 4593.109214832047
1594.1813821167616 4804.288521611616
1594.9408114464022 4413.433904507878
1595.7000565793933 4451.110573902124
1596.459117564409 4551.584907399881
1597.2179944501113 4353.524143700298
1597.9766872851324 4376.87897321996
1598.735196118092 4567.212527581951
1599.4935209975883 4568.006467259498
1600.2516619721973 4716.862028603626
1601.0096190904787 4366.011184724857
1601.7673924009723 4480.066813062961
1602.524981952196 4445.447271965352
1603.2823877926476 4294.2340970251835
1604.0396099708087 4292.973660094482
1604.7966485351371 4300.796300377549
1605.5535035340745 4362.405486656718
1606.3101750160404 4574.658043853646
1607.0666630294363 4309.204296075827
1607.822967622642 4154.168335784905
1608.5790888440224 4529.3515016969395
1609.3350267419137 4549.088691262097
1610.0907813646445 4323.792354865905
1610.8463527605145 4236.5381762174065
1611.601740977805 4470.964282484902
1612.356946064785 4377.327477606775
1613.1119680696902 4078.6664192371463
1613.8668070407512 4205.957887271298
1614.6214630261748 4318.659494302464
1615.375936074137 4428.104144334808
1616.1302262328118 4245.825186188409
1616.8843335503425 4298.782996397752
1617.638258074854 4159.697644164729
1618.391999854457 4241.271478246988
1619.1455589372363 4510.922392666577
1619.8989353712623 4278.593745985685
1620.65212920458 4045.1732284374293
1621.4051404852235 4148.852547326919
1622.1579692611976 4152.356532837778
1622.9106155804966 4039.9634616987823
1623.663079491087 4111.097980536685
1624.4153610409248 4316.849867643606
1625.1674602779385 4209.9823789785605
1625.9193772500403 4018.2096680727664
1626.6711120051277 4518.4778479169945
1627.4226645910676 4242.419604107321
1628.174035055721 4107.03955916546
1628.9252234469168 4211.7507523336735
1629.676229812474 4153.56395354878
1630.4270542001905 4448.858526246217
1631.1776966578382 4221.126818621897
1631.9281572331747 4064.0488310228347
1632.678435973945 4261.931632880385
1633.4285329278573 4152.764764891579
1634.1784481426203 3868.5602695712487
1634.9281816659113 3996.165044186956
1635.677733545388 4243.259465370442
1636.4271038286934 4064.2156610607467
1637.176292563452 4199.814787683796
1637.9252997972635 4098.659255103158
1638.674125577716 4136.452601384453
1639.4227699523672 4402.620129205727
1640.171232968767 3859.37903640176
1640.9195146744423 4086.308064548285
1641.6676151168977 4277.920689652702
1642.4155343436178 4397.490576770285
1643.1632724020765 4131.578039743525
1643.9108293397167 4072.730713227119
1644.658205203974 4014.0287863376266
1645.4054000422566 4513.232442922766
1646.1524139019566 4043.526161396984
1646.8992468304423 3882.986332211255
1647.6458988750728 3910.001146483097
1648.3923700831765 3968.882316819197
1649.1386605020743 4030.803771160535
1649.8847701790564 4235.493942339027
1650.6306991614038 4064.5679944758785
1651.3764474963682 4232.930476079384
1652.1220152311944 3921.854944636622
1652.867402413096 4163.063609262793
1653.6126090892776 4146.738599752431
1654.3576353069184 4278.441779220349
1655.1024811131829 4127.536185720714
1655.8471465552066 4032.8528697976603
1656.5916316801213 4214.061546664452
1657.3359365350298 4242.486537350485
1658.0800611670165 4014.3152826183186
1658.824005623148 4094.9018154669284
1659.5677699504722 3932.2708946095627
1660.3113541960192 4103.026703652408
1661.054758406799 4061.5554663945813
1661.7979826297997 3855.393410598118
1662.5410269119966 4015.251431868892
1663.283891300338 4187.997146185733
1664.0265758417645 3963.7072666889
1664.7690805831826 4124.336661952157
1665.5114055714948 4123.845140596645
1666.2535508535748 4449.381820429468
1666.9955164762814 3900.2018378274624
1667.7373024864555 4009.2016699737164
1668.478908930916 4163.471307782577
1669.220335856462 4048.512412717565
1669.9615833098778 3911.876267046189
1670.7026513379296 3858.169175578628
1671.44353998736 4005.0775680627753
1672.1842493048916 4093.242728293506
1672.9247793372379 3861.873557226701
1673.6651301310812 4002.0424703906633
1674.4053017330934 3915.8251012431692
1675.1452941899242 4054.7916487843772
1675.885107548207 3554.7246896374136
1676.6247418545518 3629.2902370955862
1677.3641971555535 3741.874168637779
1678.1034734977893 3980.696311020244
1678.8425709278108 3806.06713432435
1679.5814894921605 4017.4709203840366
1680.320229237359 3967.896320247027
1681.0587902098978 3966.2600418901543
1681.7971724562685 3740.5525009444927
1682.5353760229264 3637.6812122525225
1683.2734009563173 3814.39537135426
1684.0112473028657 3617.645396948319
1684.7489151089794 3801.142717835564
1685.4864044210462 3977.035494622583
1686.2237152854377 3476.759813916936
1686.960847748498 3885.980558357676
1687.6978018565642 3484.449426540934
1688.434577655944 3462.1174733267203
1689.1711751929379 3402.8801454630184
1689.9075945138156 3640.510153135182
1690.6438356648396 3571.9238547359187
1691.3798986922448 3226.753605673388
1692.1157836422499 3546.863723431902
1692.851490561059 3447.657647127274
1693.587019494853 3576.9310594497583
1694.3223704897991 3348.6829878769618
1695.0575435920364 3279.7775117775645
1695.792538847696 3805.0368637361053
1696.527356302886 3407.9838422528564
1697.2619960036936 3261.94904659922
1697.9964579961907 3450.7469298630836
1698.730742326432 3015.7045160954103
1699.4648490404488 3204.710806772653
1700.1987781842563 3296.5726319980595
1700.9325298038548 3423.055412213404
1701.6661039452174 3532.886969643824
1702.3995006543082 3381.0123877951964
1703.1327199770658 3430.2641246198305
1703.865761959416 3254.17196411696
1704.598626647261 3463.308075531506
1705.3313140864866 3113.6382087310467
1706.0638243229587 3220.9147891576777
1706.7961574025303 3505.3730832326764
1707.528313371029 3355.681811914516
1708.260292274268 3198.2186084330965
1708.9920941580403 3318.1863176851934
1709.7237190681226 3293.869805782006
1710.4551670502697 3224.891426865012
1711.18643815022 3023.8675014550836
1711.9175324136959 3558.254847299856
1712.6484498863938 3250.45950733405
1713.379190614005 2983.261149298338
1714.109754642188 3110.08077683795
1714.8401420165883 3140.7610531105015
1715.570352782839 3661.690722683873
1716.3003869865497 3170.086067702211
1717.0302446733076 3123.0844592468425
1717.7599258886876 3184.808187611242
1718.4894306782444 3501.779977598772
1719.2187590875183 2973.0445557547905
1719.9479111620203 3377.727025212952
1720.6768869472544 3094.0604966671435
1721.4056864887025 3485.323945470436
1722.1343098318284 3408.152270480129
1722.8627570220742 3177.8468123279104
1723.591028104871 3129.5326080509676
1724.3191231256242 2969.0891986720426
1725.0470421297232 3087.9320894506463
1725.7747851625427 3288.7447242007934
1726.5023522694337 3241.8464951334654
1727.2297434957363 3147.201578927222
1727.9569588867635 2933.9725211498017
1728.6839984878152 3246.868397735362
1729.4108623441734 2774.0579247372903
1730.1375505011038 3283.9305841782902
1730.8640630038426 3020.5105967031277
1731.5903998976264 2943.115621283705
1732.316561227657 3159.679637066366
1733.0425470391274 2937.4390827735438
1733.7683573772065 3078.3039998878326
1734.4939922870508 3159.512338411866
1735.2194518137949 3099.34484957142
1735.9447360025606 3017.5472931334257
1736.669844898439 3119.8200405671587
1737.3947785465189 2884.037672933156
1738.1195369918605 2870.5621827545765
1738.8441202795093 3146.505338046515
1739.5685284544943 3065.428112953123
1740.292761561821 3190.70090649478
1741.0168196464838 3055.5883646257016
1741.7407027534518 3091.137293356048
1742.464410927687 3090.707094921857
1743.187944214118 3055.069530111411
1743.9113026576688 3040.2779595093007
1744.634486303241 3057.166238169165
1745.3574951957125 3110.4386405618457
1746.0803293799509 3238.6678267515795
1746.8029889008048 3039.107002169293
1747.5254738031017 3099.1633712869507
1748.2477841316504 2981.069991944472
1748.969919931249 3082.977456240729
1749.6918812466665 2958.44005819748
1750.4136681226646 3237.8398004532696
1751.1352806039777 3023.352390425156
1751.856718735331 2738.680709528677
1752.5779825614281 2773.514398857575
1753.2990721269507 3096.2379597086488
1754.0199874765676 3067.846397274533
1754.7407286549314 2879.5662243463094
1755.4612957066693 2904.49323044213
1756.1816886763954 3026.0514204678357
1756.9019076087097 3076.3595347955793
1757.6219525481865 3132.6445038678235
1758.3418235393856 2997.6520391649747
1759.061520626854 3116.754637727704
1759.7810438551096 3093.950643728819
1760.5003932686614 2884.4784218831946
1761.2195689119999 3093.6085571796048
1761.938570829594 3058.2450643497327
1762.657399065898 3061.4934158881915
1763.376053665348 2789.2318475113134
1764.0945346723602 2806.113721340834
1764.812842131334 3152.071452991373
1765.5309760866512 2813.0165059094993
1766.2489365826787 2838.4104218811026
1766.9667236637597 2958.6467489828415
1767.684337374223 2706.554428213607
1768.401777758383 2859.543781404453
1769.1190448605284 2834.137887458493
1769.836138724937 2753.3143336722655
1770.5530593958665 2908.700764620081
1771.2698069175603 3106.521065505355
1771.9863813342326 3056.740532559587
1772.702782690094 2894.5103835148084
1773.4190110293293 3070.261467695219
1774.1350663961111 2943.1402340868744
1774.8509488345844 2765.268048221741
1775.5666583888924 2962.193005206408
1776.2821951031437 3132.884555439093
1776.9975590214362 2923.9329592419963
1777.7127501878585 3079.600952576608
1778.4277686464684 2980.1644154493047
1779.1426144413108 3131.5837520522973
1779.8572876164162 3091.7568212350793
1780.571788215797 2689.1848594869375
1781.2861162834415 2939.2922965930375
1782.0002718633277 2843.2791639120796
1782.7142549994132 2958.0196438596295
1783.4280657356376 2995.505605825427
1784.141704115922 2736.0209858287094
1784.855170184177 2849.69326816684
1785.5684639842839 3004.5633625725204
1786.2815855601148 2623.4799706652757
1786.9945349555237 2973.268012675925
1787.707312214343 2784.4033958034543
1788.4199173803918 3181.3348747268574
1789.132350497468 2734.8583424485905
1789.8446116093583 2896.7188378261462
1790.556700759822 2761.6423549998476
1791.2686179926077 2764.7112382777364
1791.9803633514493 2876.1790801973793
1792.6919368800554 2664.9161960350953
1793.4033386221236 2949.5133213295107
1794.1145686213295 2969.0345892762452
1794.8256269213307 3130.0869613220602
1795.536513565774 2943.357532754376
1796.247228598284 2669.3188825711045
1796.9577720624693 2773.0417279363655
1797.6681440019165 2876.11836389932
1798.3783444602013 2842.798497263817
1799.0883734808776 3022.497905872674
1799.7982311074884 2924.7006993747927
1800.5079173835475 2914.788570847188
1801.2174323525633 2969.04746488104
1801.9267760580187 2865.4810076208155
1802.635948543386 2937.6577375137113
1803.3449498521113 2641.0159481452292
1804.0537800276325 2923.158556258411
1804.7624391133668 2787.5201300674908
1805.47092715271 2642.6293324214266
1806.1792441890484 2726.424621317265
1806.8873902657433 2951.4330476844766
1807.5953654261448 2768.3848243585444
1808.3031697135812 2726.3456544853516
1809.0108031713662 2713.3353861103565
1809.71826584279 2777.6165018622205
1810.425557771141 2841.8814459526775
1811.1326789996747 3329.2324980119847
1811.839629571632 2879.3368892091416
1812.5464095302468 2816.561036062832
1813.2530189187182 2833.6895605624713
1813.959457780249 2812.3611078441313
1814.6657261580076 2915.385888106798
1815.371824095153 2821.385070113329
1816.0777516348262 2988.924590398282
1816.78350882015 2445.2241739272567
1817.4890956942272 2624.631996361384
1818.1945123001533 2888.8404241161747
1818.8997586809928 2787.4531489552273
1819.6048348798067 2597.9854465104936
1820.3097409396287 2838.3160053650145
1821.0144769034796 3139.1862103633
1821.7190428143622 2872.0954053201253
1822.423438715261 2984.0448744440273
1823.1276646491478 2793.599116072263
1823.8317206589727 2780.133194146754
1824.5356067876692 2861.4968576426536
1825.2393230781581 2831.897614059215
1825.942869573335 2563.52275102194
1826.646246316086 2637.2195587743563
1827.3494533492758 2825.337230906339
1828.052490715756 2814.2404487374247
1828.7553584583547 2805.7300779677203
1829.458056619891 2826.7524954117175
1830.1605852431585 2742.6564846883934
1830.8629443709433 2599.6650368940245
1831.5651340460063 2765.0645605483487
1832.2671543110919 2640.786880567383
1832.9690052089318 2954.2781261193327
1833.6706867822395 2549.318248280102
1834.3721990737104 2809.5617129145644
1835.0735421260233 2833.9060203730505
1835.774715981841 2804.6350496580444
1836.4757206838058 2953.822835679369
1837.1765562745459 2712.2325311570326
1837.8772227966747 2616.837203833157
1838.5777202927839 2696.430381733878
1839.2780488054523 2699.3337700670177
1839.9782083772352 2635.8871766820357
1840.6781990506806 3071.5762141726873
1841.378020868313 2705.719138834323
1842.0776738726418 2651.275213589143
1842.777158106157 2598.257154137055
1843.4764736113375 2603.6105838457356
1844.1756204306403 2752.309011749802
1844.8745986065078 2835.866706291051
1845.5734081813607 2553.6743099501646
1846.2720491976124 2567.6044738358623
1846.970521697649 2565.245530745885
1847.6688257238511 2667.903758046995
1848.3669613185684 2711.3994736352615
1849.0649285241452 2343.085259382055
1849.7627273829057 2719.7686675643313
1850.460357937156 2723.053239672999
1851.1578202291857 2456.31918455657
1851.8551143012664 2642.3537511797067
1852.5522401956569 2672.165699451148
1853.2491979545957 2967.7350654262827
1853.9459876203055 2585.3020100605054
1854.6426092349902 2479.61395768485
1855.3390628408451 2568.1361445097436
1856.0353484800362 2831.2922075767465
1856.7314661947203 2775.555339862033
1857.4274160270397 2424.3130977723354
1858.123198019115 2678.738390498897
1858.8188122130487 2473.1592966391063
1859.5142586509319 2683.83522065063
1860.209537374838 2647.788305944944
1860.9046484268183 2591.703819252395
1861.599591848917 2978.233928949453
1862.294367683151 2539.996153198635
1862.988975971528 2522.7170344785104
1863.6834167560355 2799.4441593282945
1864.3776900786452 2839.7338895575886
1865.0717959813119 2600.4110273649776
1865.7657345059724 2530.7926012210733
1866.4595056945564 2675.7730001250093
1867.1531095889586 2813.207808470151
1867.846546231076 2410.8853958464942
1868.5398156627743 2883.4924862076546
1869.2329179259123 2514.8046175858317
1869.9258530623283 2819.245269711827
1870.618621113843 2510.3186811614496
1871.3112221222636 2433.3707334536234
1872.0036561293764 2563.500697259862
1872.695923176956 2642.7921471120494
1873.3880233067594 2878.748364520939
1874.0799565605212 2465.4254713621403
1874.7717229799673 2604.7512283471606
1875.4633226068036 2880.9992490539603
1876.1547554827175 2721.856747669902
1876.8460216493859 2490.057205087697
1877.5371211484617 2599.910618676457
1878.2280540215852 2690.462474109744
1878.9188203103804 2402.244634411991
1879.6094200564548 2682.3020601104035
1880.299853301396 2468.0385140476324
1880.9901200867826 2757.38225873379
1881.6802204541673 2618.2616712646004
1882.3701544450942 2717.9203480112747
1883.059922101087 2348.176542030026
1883.7495234636517 2368.0623103165844
1884.4389585742792 2387.936021656575
1885.1282274744517 2407.35928502978
1885.8173302056166 2532.4533979442213
1886.506266809225 2657.7184161153614
1887.195037326701 2451.4943305927777
1887.8836417994517 2528.256244850965
1888.5720802688702 2850.170875368895
1889.260352776333 2670.65789880661
1889.9484593632042 2734.5016365900497
1890.63640007082 2573.5660714012674
1891.3241749405151 2420.4909322169246
1892.0117840135954 2609.2005407064016
1892.6992273313572 2514.3510273410075
1893.3865049350788 2412.133069274351
1894.0736168660223 2799.221692931095
1894.7605631654333 2623.97562281668
1895.4473438745408 2362.7276834435934
1896.133959034556 2824.245928102698
1896.820408686679 2567.9341458701792
1897.506692872088 2858.389633158093
1898.192811631945 2594.421685145796
1898.8787650073991 2418.7639784648227
1899.5645530395832 2780.259903731691
1900.2501757696118 2752.2610384614763
1900.9356332385796 2333.1089757850395
1901.620925487574 2408.4584775401554
1902.3060525576602 2484.1271648164793
1902.9910144898859 2682.7258654461557
1903.6758113252872 2450.0180755062224
1904.3604431048789 2584.6280745287704
1905.0449098696663 2712.3049787665486
1905.7292116606295 2509.161654212857
1906.4133485187394 2548.46487170248
1907.0973204849488 2209.337240179366
1907.7811276001976 2375.5136635399176
1908.4647699053967 2450.347565585098
1909.1482474414588 2449.5789177994857
1909.8315602492694 2448.6896661711257
1910.5147083696957 2791.7170628338913
1911.1976918436012 2473.1586628708505
1911.880510711815 2323.275173652188
1912.5631650151681 2819.530620199397
1913.2456547944657 2410.54701479507
1913.927980090495 2398.4175502511107
1914.6101409440362 2425.9562455852747
1915.2921373958416 2646.5740989348747
1915.9739694866603 2466.452414257922
1916.655637257214 2757.8003213975226
1917.3371407482136 2498.874454900781
1918.0184800003572 2734.1788712113853
1918.6996550543154 2699.0864787710434
1919.3806659507554 2623.014025822375
1920.0615127303208 2506.7918049389864
1920.7421954336423 2727.4308527361577
1921.4227141013343 2680.5944825997185
1922.103068773993 2521.1662911684775
1922.783259492202 2619.272679654813
1923.4632862965227 2475.582691340698
1924.1431492275078 2423.1122678433094
1924.8228483256917 2313.8489528875425
1925.5023836315922 2454.4966382833213
1926.1817551857057 2300.508792796171
1926.8609630285227 2734.8695825563036
1927.5400072005123 2618.4635933814707
1928.218887742125 2571.2381308417994
1928.8976046938005 2203.7433675613574
1929.5761580959588 2610.1541989274256
1930.2545479890086 2476.930913067412
1930.9327744133352 2283.3841556608722
1931.6108374093164 2579.639623681384
1932.2887370173066 2812.5429208418545
1932.9664732776473 2220.7240663773878
1933.6440462306673 2481.925637130702
1934.3214559166754 2419.412185632401
1934.9987023759659 2835.4548116423894
1935.675785648813 2642.3437117385815
1936.3527057754836 2797.2715108542034
1937.029462796223 2284.8268657459475
1937.70605675126 2424.5878270096096
1938.3824876808085 2208.4832407444287
1939.058755625072 2435.713065837198
1939.7348606242267 2322.1871222107206
1940.4108027184448 2484.262690478246
1941.0865819478713 2566.439717347384
1941.7621983526478 2367.527385364924
1942.4376519728921 2305.096449064568
1943.1129428487038 2385.3522635724585
1943.7880710201734 2547.324152020623
1944.4630365273733 2537.5685742269166
1945.1378394103576 2224.6976760753405
1945.8124797091714 2237.534780790192
1946.4869574638324 2250.3191200909887
1947.161272714353 2308.404930675405
1947.8354255007234 2511.388612911945
1948.5094158629272 2334.856176472791
1949.1832438409183 2561.387107441448
1949.8569094746435 2544.3171590444686
1950.530412804037 2738.4777972065717
1951.2037538690092 2661.3812167627984
1951.8769327094578 2464.6990135798055
1952.5499493652678 2342.429937392254
1953.222803876306 2736.2335195729875
1953.895496282421 2504.7644384580826
1954.5680266234522 2589.336925745273
1955.2403949392155 2469.2585906396885
1955.9126012695142 2235.826090595664
1956.5846456541403 2352.3882694112954
1957.2565281328643 2311.9245836574937
1957.9282487454457 2672.087534263778
1958.5998075316202 2507.789438740006
1959.27120453112 2425.549002783158
1959.9424397836501 2533.245192048666
1960.613513328908 2542.1564024416957
1961.2844252065697 2615.8013541948644
1961.9551754563017 2300.750108889885
1962.6257641177453 2310.293629266918
1963.29619123054 2090.6873675135334
1963.966456834296 2269.0720441694334
1964.6365609686181 2184.791733147263
1965.306503673086 2587.8181753212443
1965.976284987275 2290.6440919189567
1966.645904950734 2415.033523623785
1967.315363603002 2193.2695704789235
1967.9846609836077 2305.702176797282
1968.6537971320486 2283.8677804962927
1969.3227720878222 2412.0063460249175
1969.9915858904042 2350.539140919367
1970.660238579252 2411.5975715429713
1971.3287301938108 2459.9994020569648
1971.997060773514 2315.8366302292825
1972.665230357772 2188.6179580175817
1973.3332389859843 2230.815567882536
1974.0010866975335 2176.1520474652116
1974.6687735317864 2320.8837145688567
1975.3362995280932 2379.4918617466
1976.003664725793 2582.17080214287
1976.6708691642052 2116.768767169201
1977.3379128826364 2390.8481209919564
1978.004795920373 2607.3754899985493
1978.6715183166925 2334.9037593670205
1979.3380801108524 2062.1137133420943
1980.0044813420973 2285.7664174943015
1980.6707220496555 2039.7490008958212
1981.3368022727373 2372.838868561605
1982.0027220505417 2453.7440123808483
1982.66848142225 1995.7136324376247
1983.3340804270283 2118.803993336083
1983.999519104027 2423.6619557908475
1984.6647974923835 2404.0413363792245
1985.329915631215 2491.833973375367
1985.99487355963 2397.7365008036936
1986.6596713167146 2672.6991530886594
1987.3243089415428 2335.619929576106
1987.9887864731754 2669.315144952089
1988.6531039506553 2282.1041057070333
1989.3172614130071 2732.4361967653413
1989.9812588992481 2317.377482492152
1990.645096448372 2062.479692909939
1991.3087740993633 2264.837737623223
1991.9722918911848 2315.571540201031
1992.635649862792 2366.426425852639
1993.2988480531185 2479.365094507418
1993.9618865010852 2754.2166502802006
1994.6247652455968 2301.24049521213
1995.287484325545 2250.7765770301367
1995.9500437798033 2228.862955611587
1996.6124436472292 2223.3225011002874
1997.2746839666706 2485.6249018013177
1997.936764776954 2228.6961637738177
1998.598686116895 2306.174532737517
1999.2604480252903 2662.81105022778
1999.9220505409212 2526.179323524996
2000.5834937025593 2114.5908563799044
2001.2447775489582 2400.8035119386745
2001.9059021188514 2369.0708134107167
2002.5668674509616 2067.9744650254697
2003.2276735839987 2356.4181305062248
2003.8883205566508 2630.6868509708274
2004.5488084075987 2274.9621757163054
2005.2091371755014 2361.30801669938
2005.8693068990033 2084.6907092663105
2006.5293176167397 2381.504619121052
2007.1891693673224 2086.1696283038336
2007.848862189354 2107.9437199310787
2008.5083961214223 2217.190374989602
2009.1677712020955 2190.6236568149934
2009.8269874699254 2112.0852277662466
2010.4860449634598 2085.0786915586623
2011.1449437212177 2058.124277520527
2011.8036837817108 2613.9452839697233
2012.4622651834325 2414.657240119396
2013.1206879648653 2437.131167173757
2013.7789521644736 2520.6306463100877
2014.4370578207036 1960.8548204843023
2015.0950049719922 2196.575910290999
2015.7527936567585 2429.787634849594
2016.4104239134067 2229.48526163547
2017.067895780323 2707.6132291884214
2017.725209295886 2685.4593363389995
2018.3823644984514 2663.1783813037537
2019.0393614263648 2306.7351101183426
2019.6962001179545 2388.559518530913
2020.3528806115355 2544.08600005015
2021.0094029454067 2445.1587359239265
2021.6657671578487 2076.8794684251943
2022.321973287133 2189.9688818844033
2022.9780213715148 2212.4450772334026
2023.6339114492293 2345.5956488541688
2024.2896435585026 2319.2219641061424
2024.9452177375442 2287.502096746223
2025.600634024544 2524.1762004587818
2026.2558924576842 2463.6982963874166
2026.9109930751292 2517.695847714253
2027.565935915025 2200.243676201252
2028.2207210155066 2561.0878709654567
2028.8753484146964 2665.4389549953034
2029.529818150695 2587.6311045915386
2030.1841302615903 2509.4041139362917
2030.8382847854573 2200.782121593032
2031.4922817603601 2466.4053744555576
2032.1461212243357 2208.9040157224
2032.7998032154192 2142.388385377276
2033.4533277716218 2230.235471516149
2034.1066949309443 2267.4648248167096
2034.7599047313688 2148.4090795193674
2035.4129572108704 2370.1850623635523
2036.0658524074006 2273.9542067675266
2036.7185903589016 2290.022433892118
2037.3711711032956 2438.5889195986547
2038.023594678496 2299.4385961852863
2038.675861122394 2187.8849097498487
2039.3279704728757 2160.4045304175534
2039.9799227678031 2133.0602829823065
2040.6317180450278 2333.14445188487
2041.2833563423865 2267.2942390774383
2041.9348376977014 2531.486710209258
2042.5861621487784 2412.1604538754846
2043.2373297334088 2492.999814002464
2043.8883404893695 2340.606063145364
2044.5391944544208 2503.746873271489
2045.1898916663158 2552.917214017266
2045.8404321627804 2711.5635344235775
2046.4908159815368 2224.228161364597
2047.1410431602853 2271.539737896212
2047.7911137367173 2180.88854376495
2048.441027748504 2564.388441747823
2049.090785233302 2108.9518435233867
2049.7403862287592 2178.363551080798
2050.389830772503 2585.866677353687
2051.0391189021466 2177.042426403592
2051.688250655294 2280.4985393499146
2052.337226069527 2033.2917532727047
2052.986045182417 2053.2468360935304
2053.634708031521 2073.398913111073
2054.283214654375 2267.895839663598
2054.931565088511 1950.5593686566856
2055.579759371436 1963.554787709744
2056.2277975406523 2320.0670437428084
2056.8756796336384 2468.81136401903
2057.5234056878617 1963.2865986812208
2058.1709757407752 2246.140053714548
2058.8183898298194 2528.904560251378
2059.465647992416 2459.209310709757
2060.1127502659747 2456.151046151415
2060.759696687888 2173.1138694527303
2061.4064872955405 2359.220410068787
2062.053122126292 2135.7207531656504
2062.699601217497 2391.8265630796614
2063.345924606485 2150.9424838623577
2063.992092330587 2343.3801817834674
2064.638104427102 2206.955030114423
2065.283960933324 2513.2442743247593
2065.92966188653 2421.1649582151063
2066.5752073239855 2622.183006593493
2067.2205972829397 2062.9044784179305
2067.86583180062 2311.737851023988
2068.5109109142522 2175.1170881234366
2069.15583466104 2301.340645807597
2069.8006030781708 2066.6747618953877
2070.445216202821 2222.580850006876
2071.089674072153 2553.010934244771
2071.7339767233116 2534.783304113646
2072.3781241934303 2370.5218851541035
2073.0221165196253 2338.565021224931
2073.6659537390024 2225.5712760365036
2074.3096358886505 2459.9208221420113
2074.953163005637 2134.383068382098
2075.596535127028 2073.9325009169843
2076.2397522898664 2143.9502362699036
2076.882814531182 2187.717560840297
2077.5257218879924 2354.189984752503
2078.1684743973 2110.2219956049603
2078.8110720960885 1956.5865123326937
2079.453515021336 2114.5172434009864
2080.095803209997 2272.573681614197
2080.7379366990135 2259.9996253612353
2081.37991552532 2422.1969686508737
2082.0217397258275 2463.6873260399657
2082.6634093374414 2017.036202189355
2083.3049243970418 2276.221528786485
2083.9462849415067 2392.9177261126174
2084.587491007689 2431.5125026419178
2085.2285426324324 2233.6768210516902
2085.869439852564 2395.0033597474603
2086.510182704902 2117.215192091452
2087.1507712262483 2164.2065384605103
2087.791205453381 2104.656982597162
2088.4314854230743 2471.6363049506663
2089.0716111720867 2231.1379485672487
2089.7115827371617 2044.847583538131
2090.351400155023 2105.8927872438953
2090.991063462385 2167.1535219498733
2091.6305726959527 2033.0083458255126
2092.2699278924047 2497.8904165247673
2092.9091290884153 2162.11858056674
2093.548176320641 2111.897037120662
2094.187069625721 2382.0368536142687
2094.8258090402887 2019.354802605369
2095.464394600951 2376.7243811570133
2096.102826344313 2298.3813273051906
2096.741104306955 2356.1453597158256
2097.379228525453 1950.6936919600842
2098.017199036358 1954.0411963937665
2098.6550158762147 2496.0044286379166
2099.2926790815527 2389.0025161271037
2099.9301886888825 2293.5401722554298
2100.5675447347076 2261.693106502868
2101.2047472555114 2494.910827201416
2101.841796287761 2124.303500010109
2102.47869186792 2354.3273689362622
2103.1154340324265 2061.1844820096285
2103.752022817709 2216.7845882529564
2104.388458260184 2293.0041304094348
2105.024740396251 2252.6579444495437
2105.660869262292 2156.1917141737413
2106.296844894685 2500.174787223868
2106.93266732978 2327.354856740349
2107.5683366039284 2228.395044014943
2108.2038527534532 2243.0980228552835
2108.8392158146726 2380.2709200120617
2109.4744258238843 2307.5865808760673
2110.1094828173755 2267.2290449370025
2110.744386831422 2724.2652462950055
2111.3791379022787 2333.4552627495027
2112.01373606619 2545.4778333261197
2112.648181359389 2391.6381946347774
2113.28247381809 2284.5697380568167
2113.916613478492 2392.9463402375636
2114.550600376786 2421.3554552568935
2115.1844345491445 2217.575323703896
2115.818116031729 2077.681918135563
2116.451644860679 2262.54366605722
2117.085021072133 2088.0223430318088
2117.718244702204 2102.1976174823308
2118.3513157869984 2133.3918565326085
2118.984234362604 2113.2001660492037
2119.617000465092 2260.4956796963043
2120.249614130529 2510.8193782466797
2120.8820753949585 2222.4023369635524
2121.5143842944162 2171.501202812251
2122.14654086492 2206.5773714633538
2122.7785451424734 2436.059420061402
2123.4103971630702 1882.7962771068426
2124.042096962681 2227.443769794071
2124.6736445772767 2263.6548162409645
2125.305040042802 2170.4231470720197
2125.936283395191 2169.667179329482
2126.567374670365 2342.1286646522303
2127.198313904233 2274.331493725992
2127.8291011326855 2155.84911896104
2128.4597363916037 2036.8626662552492
2129.0902197168507 2094.592014323034
2129.720551144279 1991.713675495194
2130.3507307097225 2544.715888910813
2130.980758449008 2601.170281056498
2131.6106343979427 2574.0280887176195
2132.2403585923203 2546.7220902906856
2132.8699310679276 2496.831909132412
2133.499351860526 2453.0914923547343
2134.1286210058715 2211.9446818625593
2134.7577385397053 2402.4272018771117
2135.3867044977487 2593.225611944576
2136.0155189157176 2548.540282984831
2136.644181829308 2422.573713235723
2137.2726932742025 2221.388416517785
2137.901053286074 2166.7386512849152
2138.5292619005777 2112.091277876619
2139.1573191533535 2134.045295132969
2139.7852250800315 2489.294639896267
2140.4129797162295 2442.5051194523885
2141.0405830975433 1874.1407638087192
2141.6680352595613 1965.4495982807068
2142.2953362378576 2056.955744417148
2142.9224860679915 2234.567676847163
2143.549484785508 2249.4000178265314
2144.1763324259373 2075.6371153357545
2144.803029024799 2191.6319397613497
2145.429574617594 2000.8343414199785
2146.0559692398165 2027.2421605364743
2146.682212926942 2053.5250857037568
2147.308305714432 2181.999366393415
2147.9342476377333 2458.0365575861956
2148.5600387322847 2609.6317676896488
2149.185679033506 2230.492310964545
2149.8111685768017 2053.5978320598224
2150.4365073975678 2143.135971118859
2151.061695531187 2239.432529006944
2151.686733013021 2461.3101770616913
2152.311619878423 2346.197655211273
2152.9363561627342 2215.5162142679883
2153.560941901278 1874.3336431367843
2154.1853771293663 2328.8041555854275
2154.809661882293 2307.562246453008
2155.433796195348 2619.937795025718
2156.0577801037944 2496.0539660751056
2156.681613642895 2371.7962550120083
2157.3052968478896 2168.191434714091
2157.928829754006 2458.488513645262
2158.552212396462 2293.42484749763
2159.1754448104566 2378.212529554411
2159.7985270311783 1927.2943266213329
2160.4214590938027 1690.0532042495583
2161.0442410334927 1750.715872714019
2161.6668728853874 2215.8562040556326
2162.289354684628 1965.7824624934437
2162.911686466332 2080.142521263996
2163.533868265602 2436.8366862424373
2164.1559001175337 2584.098122502096
2164.7777820572046 2418.878462342711
2165.399514119681 2246.82041872577
2166.021096340013 2182.3020340649937
2166.6425287532384 2406.3773973814996
2167.263811394385 2025.8386408915417
2167.8849442984574 2431.5296026092747
2168.505927500455 2011.5926400193675
2169.126761035366 2277.603031042509
2169.7474449381552 2070.0182774533364
2170.367979243778 1831.9466268610377
2170.9883639871823 2342.9599642930134
2171.608599203293 2104.7170797949902
2172.2286849270276 2675.315354698194
2172.8486211932886 2752.5687364803225
2173.4684080369625 2262.020211183628
2174.0880454929265 1780.6924283288088
2174.7075335960417 1809.3278427293058
2175.3268723811543 1893.5846730941655
2175.9460618831 1978.0808404160446
2176.565102136701 2208.6925591714235
2177.1839931767627 2237.481539676443
2177.802735038078 2266.3787404590057
2178.421327755432 2089.673206797487
2179.0397713635866 1933.78836177128
2179.658065897298 2101.754534412996
2180.276211391305 1899.8794853551876
2180.8942078803357 2038.5812785639832
2181.5120553991 2081.0799741654673
2182.129753982299 1859.467765750485
2182.7473036646206 2095.1268666095575
2183.3647044807367 2139.1901277161933
2183.9819564653044 1977.5716009180073
2184.599059652968 2239.9922078998798
2185.216014078367 2408.6663415009657
2185.832819776113 2365.674438441894
2186.4494767808137 2322.4451271802163
2187.065985127063 2124.6206680761816
2187.682344849436 2072.5049764755877
2188.298555982501 2319.7899216976666
2188.9146185608097 2259.2812983809877
2189.530532618901 2439.0268347672004
2190.1462981912937 2332.2515450122823
2190.761915312507 2270.2702287869556
2191.377384017036 2171.513183147952
2191.9927043393654 2109.477070461152
2192.6078763139667 1958.730324737903
2193.2228999753006 2059.0159812206134
2193.837775357808 2159.5403590692686
2194.452502495922 1875.7451392360333
2195.0670814240602 2161.2065448167305
2195.6815121766285 1928.9141205031578
2196.2957947880186 1858.1090074160675
2196.9099292926057 1787.167426640874
2197.523915724758 2160.358723228567
2198.137754118825 2172.290334053361
2198.7514445091456 2590.9494527907013
2199.3649869300443 2609.7865298398438
2199.9783814158327 2628.7772080748064
2200.5916280008096 2548.9948684662504
2201.2047267192593 2495.3876084771364
2201.8176776054515 2221.186883929502
2202.430480693649 2078.224710177305
2203.0431360180955 2395.113405224943
2203.6556436130195 2455.342891151679
2204.268003512645 1817.4165679166806
2204.8802157511727 2156.3837924720183
2205.492280362796 2602.6558196564565
2206.1041973816937 2229.875707119891
2206.715966842032 2115.375615112785
2207.3275887779655 2223.6854709853114
2207.93906322363 1931.3810740698877
2208.550390213153 2451.6586108546358
2209.1615697806465 2410.460071865259
2209.7726019602105 1978.1808645240276
2210.3834867859277 1820.0858614713525
2210.9942242918787 2213.6348397580314
2211.6048145121167 2187.8136429910587
2212.2152574806914 2800.6525843429195
2212.825553231638 2834.3695163711764
2213.435701798975 2868.301522616557
2214.045703216707 2301.0438541706653
2214.655557518832 1826.8233916682057
2215.2652647393297 1866.7327488157916
2215.874824912169 2077.2902500140103
2216.4842380713 2288.5552944085725
2217.09350425067 2110.7175484982836
2217.7026234842033 2496.556268605603
2218.311595805819 2381.3245557489095
2218.9204212494133 2107.1887394020714
2219.52909984888 2441.239055184933
2220.137631638092 1797.0095667178732
2220.7460166509154 2615.325665966602
2221.354254921198 1958.2580967526414
2221.9623464827764 2310.2701184739153
2222.5702913694713 2233.4029819104057
2223.178089615096 2416.650561872743
2223.7857412534486 2074.934675917035
2224.39324631831 1772.9047070317677
2225.000604843457 1846.5950080122445
2225.607816862641 2390.774078162893
2226.214882409611 2203.49814088057
2226.8218015180973 2265.8191873717506
2227.4285742218217 2167.518912093802
2228.0352005544864 2061.7255393893615
2228.6416805497847 1729.8438262826344
2229.248014241399 2084.2234720994034
2229.8542016629945 1883.854706316218
2230.460242848223 2327.1967202426777
2231.0661378307304 2190.691059754685
2231.671886644139 2054.085688675651
2232.277489322065 1930.4283582272114
2232.8829458981127 1675.801543708755
2233.48825640587 2107.474919893645
2234.0934208789095 2772.6277981485314
2234.6984393507955 2445.288379612185
2235.3033118550793 2324.5493811602155
2235.9080384252975 1955.7372900561343
2236.5126190949723 1836.074899911171
2237.1170538976166 1969.0313069604756
2237.721342866729 1742.5383325820007
2238.32548603579 1926.8883825361286
2238.9294834382763 2126.1616311327034
2239.533335107646 2016.4553121003082
2240.1370410773434 1990.1664843181516
2240.740601380803 2013.7424046991644
2241.3440160514474 2119.6501111324565
2241.9472851226783 2378.685323792678
2242.550408627896 2137.8428699632204
2243.1533866004793 2423.910839318306
2243.756219073799 2030.9413540467344
2244.3589060812064 1925.0180027457468
2244.961447656049 1991.7164794170262
2245.5638438316564 2049.7128261106095
2246.166094641343 1958.4443291093862
2246.7682001184166 2025.509116623712
2247.3701602961664 2076.430315469249
2247.971975207871 2266.935812524799
2248.5736448867974 2315.181584056803
2249.175169366197 2039.327197982284
2249.7765486793123 2105.09268404303
2250.3777828593684 2212.522309460376
2250.9788719395783 2153.0586884670342
2251.579815953146 2045.6669771315742
2252.1806149332606 1948.4862766863457
2252.781268913097 2200.5328802653084
2253.381777925817 2101.7579339601953
2253.9821420045737 2268.9750940195086
2254.5823611825035 2221.027771151223
2255.1824354927303 2104.20906538284
2255.782364968365 1991.043079124198
2256.38214964251 1877.7825035899618
2256.9817895482483 1898.6772166323256
2257.5812847186553 2065.2870881040153
2258.180635186791 1940.7581748056007
2258.779840985704 1903.3032207843717
2259.37890214843 2141.253281270622
2259.97781870799 2599.585938379626
2260.5765906973957 2202.375645683171
2261.175218149645 2147.001433199383
2261.773701097718 2171.5438068059757
2262.3720395745895 1871.0599764267422
2262.970233613216 1772.7391514479834
2263.568283246548 2073.914589380613
2264.1661885075137 1795.1339629887946
2264.763949429038 1934.39023932952
2265.3615660440246 2348.4494908459674
2265.959038385374 1877.8649816621814
2266.5563664859637 2397.3764160839833
2267.153550378669 2044.9102376603569
2267.7505900963424 2255.1338385588556
2268.3474856718312 1836.7451150158129
2268.9442371379664 1975.7766031082233
2269.5408445275643 2096.872477423135
2270.1373078734377 2239.6780058430677
2270.7336272083758 1959.0795209102312
2271.32980256516 2014.7477706100926
2271.925833976562 2312.672244687306
2272.5217214753357 2287.392512719487
2273.117465094223 1873.4263128147481
2273.7130648659586 1872.1905364318268
2274.308520823257 1938.6551638593708
2274.903832998827 1957.4901661171589
2275.4990014253563 1976.3453572940512
2276.094026135528 2117.1278711115783
2276.6889071620117 1961.4970165185248
2277.2836445374614 2065.2528819432446
2277.878238294519 2227.8726572550195
2278.472688465812 1998.0746005519813
2279.066995083962 1767.8621057458054
2279.6611581815705 1975.4223727406588
2280.255177791232 2283.434297930838
2280.8490539455233 2022.7397482739357
2281.442786677013 2294.1926038561764
2282.0363760182554 2288.5303406166067
2282.6298220017943 1907.635496783918
2283.223124660155 2446.0283010328176
2283.816284025859 1971.090500344601
2284.4093001314086 2404.6903013142546
2285.002173009292 2310.514013560653
2285.5949026919952 2216.112988288761
2286.1874892119777 1978.729622909767
2286.7799326016993 2252.544792209015
2287.3722328936 1847.8537044628872
2287.964390120109 1670.3243964273067
2288.556404313642 2326.8949565014173
2289.1482755066027 2557.385021853458
2289.7400037313873 2152.5169044772138
2290.3315890203703 2007.4089256854609
2290.9230314059205 1958.452223154402
2291.5143309203904 1909.4770490795247
2292.1054875961236 2167.499873269571
2292.6965014654506 2472.0513719010296
2293.287372560684 1902.1563833593707
2293.878100914131 1899.393248752652
2294.468686558086 1896.6853724318237
2295.059129524827 2159.6389964634127
2295.649429846617 2214.552360595982
2296.239587555716 2035.194280945964
2296.8296026843636 2054.815055830807
2297.419475264791 2079.950227882693
2298.0092053292137 2105.003141405408
2298.598792909839 2375.5639556176343
2299.1882380388597 2143.6186284802416
2299.777540748455 2414.326289091241
2300.3667010707904 2119.2491514291537
2300.9557190380256 2492.6934630456844
2301.544594682302 2603.2062571047877
2302.1333280357503 2422.2994015263475
2302.721919130485 2241.2407858526926
2303.3103679986198 2467.71203910223
2303.898674672242 2615.871998024331
2304.486839183437 2395.795746269713
2305.0748615642697 2175.6156307384645
2305.6627418468015 2082.6818651484346
2306.2504800630704 2130.2265569420206
2306.8380762451143 2179.5595929139736
2307.425530424949 2184.495123030707
2308.012842634582 2189.4249652717835
2308.6000129060103 2336.3384629930392
2309.187041271214 2099.37352369232
2309.773927762164 2539.3336544037124
2310.3606724108213 2215.8487697852984
2310.9472752491274 2057.1269198674404
2311.5337363090184 2289.838150010618
2312.120055622414 1967.4340011091306
2312.706233221221 2061.533192442108
2313.2922691373424 2300.031838403282
2313.8781634026564 1909.1309631991803
2314.463916049037 2128.260424375637
2315.049527108342 2420.243199904334
2315.6349966124235 2592.68381711873
2316.2203245931123 2219.87660488704
2316.8055110822315 1971.570758036767
2317.3905561115935 1985.3440695046193
2317.9754597129977 2000.7865401690422
2318.560221918229 2332.5300757355944
2319.1448427590603 1920.788072251108
2319.729322267256 1994.4299500471484
2320.313660474563 1882.2440962994456
2320.8978574127195 2150.8979308866647
2321.481913113452 2420.369991950004
2322.0658276084705 1904.863757778081
2322.6496009294806 2077.978491751756
2323.233233108165 2047.4735964392598
2323.8167241762058 2258.1146986926665
2324.4000741652617 2220.9350699021206
2324.983283106987 2403.575226554868
2325.5663510330232 2322.3742325892767
2326.1492779749933 2001.6125511437695
2326.7320639645204 2266.4713375069923
2327.3147090332004 1919.1867352209642
2327.897213212629 2109.64573546562
2328.4795765343843 2300.206430234085
2329.0617990300307 1711.7381133466413
2329.643880731124 2463.7405288522696
2330.22582166921 1976.3031825308794
2330.807621875816 1860.0760021618912
2331.3892813824623 1743.8213799696525
2331.9708002206517 1814.977514943695
2332.5521784218818 1937.3416782203972
2333.133416017634 2060.0402752264354
2333.7145130393765 2295.3727061433506
2334.295469518571 2371.107547491223
2334.876285486658 2358.3458294075217
2335.456960975076 2304.612184079655
2336.037496015242 2250.798347113648
2336.6178906385667 2137.008700324391
2337.198144876451 1983.5911078999118
2337.778258760278 1985.9223886411132
2338.3582323214214 2024.317206965951
2338.938065591243 2062.7504387899344
2339.517758601087 2374.887240429795
2340.0973113822965 2118.9850605607144
2340.676723966193 2084.9785969970444
2341.255996384094 2125.100414570283
2341.835128667295 2355.4180606623804
2342.4141208470883 2357.8116384191717
2342.992972954751 2171.4337391855524
2343.5716850215467 2067.873714668065
2344.1502570787306 1294.169358950853
2344.7286891575386 1677.5293302283667
2345.3069812892045 2447.4308452107375
2345.885133504944 2423.279440055837
2346.4631458359618 1754.6698088932183
2347.04101831345 1865.600989506999
2347.6187509685915 2143.9716131211167
2348.196343832553 2038.853900340496
2348.7737969364935 2141.33477509609
2349.351110311558 1837.015884343063
2349.9282839888765 1934.3547126980716
2350.5053179995757 1673.3626748373122
2351.0822123747585 1965.186531382686
2351.658967145526 2462.5326454885444
2352.2355823429643 2419.965730505615
2352.812057998144 2377.454620976877
2353.3883941421263 1793.0636212475988
2353.9645908059647 2021.7389633452326
2354.540648020693 2025.6524933072355
2355.116565817336 1719.4708715176541
2355.6923442269126 2164.177097547769
2356.2679832804224 2117.102891736772
2356.8434830088518 1914.2849538069663
2357.41884344318 1790.6040726568147
2357.994064614377 1826.9210873993597
