#exp_cfg={"servo_angle": 0.0, "laser_lim": 100.0, "servo_angle_to": 18.0, "laser_wup": 0.0, "bt_dev": "EnSpectr-25AE3", "laser_wdn_max": 0.0, "frames": 10.0, "servo_used": 0, "servo_calib_use": 0, "laser_wdn_min": 0.0, "servo_pix_from": 90.0, "cooler_tout": 300.0, "servo_angle_from": 0.0, "servo_calib": "[-1.9174921013161362e-09, 3.9322238269163779e-05, -0.27385609119055809, 653.59552119713567]", "laser_autoctl": 0, "servo_pix_to": 3682.0, "laser_pw": 100.0, "cooler_on": 0, "laser_volt": 4.0, "cooler_autoctl": 0, "cooler_curr": 70.0, "cooler_startup": 10.0, "laser_fixed_pw": 0, "gain": 1.3, "offset": 2.53059635486, "servo_calib_degree": 3.0, "laser_curr": 55.0, "shutter": 8200.0, "servo_calib_step": 1.0, "laser_fixed_curr": 0, "exp": 2000.0, "ccd_volt": 4.7, "bt_addr": "00:06:66:62:5A:E3", "servo_delay": 500.0, "laser_autooff": 1}
#proc_cfg={"flat_auto_wnd": 200.0, "flat_auto_fr": 200.0, "flat_auto_shift": 5.0, "yconv": 1, "flatten": 1, "flatten_strength": 100.0, "xfrom": 300.0, "auto_max_frame": 2000.0, "auto_signal": 48000.0, "flat_auto_tol": 0.1, "autoclip": 1, "xrel_range": 0.0, "flat_auto_to": 4000.0, "intensity_adj": 1.0, "xrel": 7852.0, "rmhot": 1, "flat_auto_slit": 4.999999999999997, "auto_ini_exp": 300.0, "auto_off": 0, "xto": 2860.0, "flat_auto_ref": "", "flat_auto_rank": 1, "autobackg": 0, "xrel_adj": 0.0, "auto_black_lvl": 1, "base_wnd": 100.0, "sub_baseline": 0, "xconv": 2, "auto_max_exp": 1000.0, "auto_total_exp": 10000.0, "auto_exp": 0, "rmripple": 0, "black_lvl": 8277.434375, "shutter_clip_adj": 0.0, "auto_bckg": 0, "flat_auto_thr": 0.9, "subbackg": 1}
316.8218498245369 18591.779435032753
317.89969571804795 18381.51030973886
318.977263876126 18406.99365423965
320.05455438786703 18201.626880740234
321.1315673423287 18170.832581870247
322.2083028285215 18267.989016504525
323.2847609354267 18107.24144804736
324.3609417519747 18075.69346591794
325.43684536705587 17944.734669245623
326.5124718695279 17952.751606930386
327.58782134820103 17920.097588545417
328.66289389184385 18011.083000829996
329.7376895891921 17779.963099763965
330.8122085289342 17832.463588436436
331.88645079971866 17863.83387687552
332.9604164901575 17789.18700465507
334.03410568881554 17671.720238587626
335.1075184842266 17799.594160137167
336.18065496487543 17531.586024749296
337.2535152192122 17697.40868672556
338.32609933564163 17626.39057820591
339.39840740253203 17544.463847566447
340.4704395082099 17487.21866013865
341.5421957409617 17353.04737620007
342.6136761890357 17529.577450055753
343.6848809406365 17455.665497152884
344.75581008392874 17374.06706647421
345.82646370703696 17292.072178094306
346.8968418980512 17215.582428356178
347.96694474501055 17394.307162731733
349.0367723359268 17353.977172057905
350.106324758759 17282.199662195973
351.1756021014353 17186.69163319941
352.2446044518383 17191.37625405979
353.31333189781435 17256.427337563055
354.38178452716966 17153.88552926246
355.449962427665 17135.926634445073
356.51786568702846 16992.49319885971
357.58549439294256 17107.37782607094
358.6528486330535 17133.795693121858
359.71992849496564 16966.35176547792
360.7867340662433 17068.715085507636
361.8532654344144 16993.124053286014
362.9195226869597 17121.27097171963
363.9855059113288 16979.972965416146
365.05121519492604 16895.027224760524
366.11665062511565 17026.22768478994
367.1818122892273 17001.83161590498
368.2467002745434 16980.19787318573
369.31131466831175 17047.368839411374
370.375655557742 16963.074342084892
371.4397230299983 16961.335299596605
372.5035171722102 16929.775947631064
373.5670380714637 16850.340068526646
374.6302858148101 17041.382806765832
375.6932604892554 16953.0903034721
376.7559621817709 17064.41466534025
377.81839097928605 16839.03935360522
378.8805469686886 16946.414741003136
379.94243023683157 17089.2698980356
381.0040408705263 16894.253174858968
382.0653789565458 16772.39170694029
383.1264445816196 16801.374813252598
384.1872378324406 16847.01180428623
385.2477587956637 16800.264853063847
386.3080075579037 16777.707190677138
387.3679842057336 16563.394432090747
388.4276888256918 16788.226015800436
389.48712150426945 16673.35191399007
390.54628232792857 16634.80245498418
391.6051713830857 16508.52520221004
392.66378875611736 16530.98061308113
393.7221345333637 16565.1546937136
394.7802088011249 16433.286209347043
395.838011645661 16466.940415327586
396.89554315319765 16423.620365497634
397.9528034099112 16410.498371348098
399.00979250194723 16323.100860714132
400.06651051541485 16321.883101808306
401.1229575363741 16403.206915097104
402.17913365085224 16268.45100955295
403.23503894483656 16413.151767740997
404.2906735042761 16277.551021077035
405.3460374150818 16200.241649647956
406.401130763119 16216.672338876378
407.455953634224 16300.648013581778
408.5105061141876 16095.666472197297
409.56478828876243 16174.26905274147
410.6188002436629 16091.114717938204
411.6725420645689 16110.235842135051
412.72601383711117 16200.350607076307
413.77921564689314 16154.208915432187
414.8321475794728 16004.640198301528
415.88480972036814 15927.520923405475
416.93720215506437 15940.015446045381
417.9893249690049 15938.044659569825
419.04117824759123 15881.840702898326
420.09276207619223 15923.27389884131
421.144076540133 15848.915945448869
422.1951217247042 15840.781008688899
423.24589771515275 15852.1105285
424.2964045966928 15926.484881697921
425.34664245449494 15915.770340051517
426.3966113736933 15874.18026390365
427.4463114393875 15771.14090947025
428.49574273662984 15817.545148232937
429.5449053504417 15694.810365979376
430.5937993658026 15826.249656583774
431.6424248676558 15681.376515835722
432.6907819409007 15719.372626521601
433.73887067040596 15730.107765871022
434.7866911409965 15724.949082470732
435.8342434374608 15590.961119029791
436.88152764455117 15650.285593856379
437.9285438469724 15596.953626066757
438.9752921294057 15602.97126386071
440.02177257648145 15633.121958321495
441.06798527279716 15517.979142049106
442.1139303029122 15732.28845893109
443.1596077513459 15623.916308422853
444.2050177025794 15582.051387238496
445.25016024105753 15641.878390677803
446.2950354511886 15557.366783148133
447.33964341733736 15661.656672910316
448.383984223834 15554.012028286172
449.4280579549686 15469.596967427915
450.471864694995 15461.170954394871
451.5154045281306 15503.944545548793
452.5586775385509 15484.697069565405
453.60168381039693 15436.231202164534
454.64442342776783 15490.324635782872
455.6868964747264 15417.641964551925
456.7291030353008 15321.578054117572
457.77104319347563 15544.804400165925
458.8127170332027 15504.91923848548
459.854124638392 15441.487012100337
460.895266092919 15583.924745600238
461.93614148061897 15652.915878207345
462.97675088529104 15583.45876227636
464.01709439069236 15556.147351931842
465.0571720805492 15542.238111916002
466.0969840385442 15642.522892685456
467.1365303483253 15684.754107854242
468.17581109350067 15701.117656628685
469.2148263576437 15600.040125385338
470.2535762242878 15604.155245257134
471.29206077693016 15691.084277423448
472.33028009902773 15760.225964006288
473.3682342740012 15672.612900894394
474.40592338523857 15679.191891174394
475.4433475160804 15735.852573408123
476.4805067498364 15714.557974910513
477.51740116978 15637.734101296057
478.5540308591426 15794.067148465077
479.59039590112116 15898.215679033372
480.6264963788726 15784.243637467624
481.6623323755193 15988.994609913865
482.6979039741436 15973.087976324972
483.7332112577915 16003.669663820638
484.76825430947247 16211.982816243564
485.80303321215797 16217.27177174786
486.837548048783 16336.310708544279
487.8717989022425 16443.448909486608
488.90578585539697 16417.480722156586
489.9395089910686 16551.82384058242
490.97296839203955 16313.69329418842
492.00616414106116 16219.575812921059
493.0390963208429 16279.052345749322
494.0717650140559 16186.974681258589
495.10417030333883 16145.832757937998
496.1363122712901 16124.840997604595
497.16819100046814 15981.824527314011
498.1998065734024 15852.486252687226
499.2311590725767 15833.392082691984
500.26224858044407 15738.657074165862
501.2930751794156 15615.383090229947
502.3236389518679 15696.656452726465
503.35393998014115 15588.623364303003
504.38397834653733 15552.161473449465
505.4137541333221 15582.758234946461
506.4432674227228 15528.435342899253
507.4725182969323 15473.521018240252
508.5015068381035 15404.06845876637
509.53023312835467 15490.307572250513
510.55869724976765 15518.727649460396
511.58689928438434 15371.947983473006
512.6148393142121 15394.819069174788
513.6425174212218 15522.332642602641
514.6699336873462 15478.254034345799
515.6970881944835 15543.969560172665
516.7239810244901 15404.516415692855
517.7506122591931 15481.176540803857
518.7769819803761 15566.536948851775
519.8030902697901 15703.082310613168
520.8289372091476 15624.331116441384
521.8545228801249 15856.731627626534
522.8798473643619 15622.380875178933
523.9049107434621 15698.054308714307
524.9297130989908 15765.243083075224
525.9542545124805 15663.17763002569
526.9785350654201 15574.796078446632
528.0025548392696 15595.869836804468
529.0263139154504 15491.268076898134
530.0498123753423 15537.871234119686
531.073050300296 15463.783332554798
532.0960277716204 15390.97969020775
533.1187448705896 15398.855486832195
534.1412016784416 15356.218069742903
535.1633982763833 15282.566670437227
536.1853347455726 15213.155195852049
537.2070111671401 15092.435811897642
538.2284276221817 15046.990769156453
539.2495841917516 15014.433889836035
540.2704809568677 14941.873688123329
541.2911179985167 14987.060604885399
542.3114953976419 14865.332438454952
543.3316132351592 14799.331915234372
544.3514715919409 14702.92149101546
545.3710705488247 14658.902387397815
546.3904101866156 14654.85837302732
547.4094905860784 14773.161429410658
548.4283118279418 14677.853048302091
549.4468739929034 14751.50072962291
550.4651771616191 14639.661079731119
551.4832214147063 14605.515278770272
552.501006832761 14599.290238190937
553.5185334963226 14594.234290602453
554.5358014859103 14589.232024838047
555.5528108820035 14674.661175104575
556.5695617650363 14616.964891964433
557.5860542154242 14611.525818695221
558.6022883135283 14641.761057501184
559.6182641396881 14584.036748098157
560.6339817741991 14574.268689751489
561.6494412973225 14594.33148000301
562.6646427892883 14692.161259733592
563.6795863302796 14563.084391769667
564.694272000459 14545.71686451318
565.7086998799423 14757.791113460033
566.7228700488104 14598.448178799381
567.7367825871115 14627.34151595468
568.7504375748576 14674.271156200455
569.7638350920224 14640.12468227745
570.7769752185486 14491.041884031021
571.7898580343353 14599.456561967056
572.802483619258 14529.218349889332
573.8148520531431 14697.140122215967
574.8269634157932 14705.97955228074
575.8388177869692 14623.749273444244
576.8504152463938 14732.39720123301
577.8617558737587 14851.649116650011
578.8728397487175 14675.333815946675
579.883666950891 14811.66641143795
580.8942375598654 14879.966933994521
581.9045516551851 14938.825904051151
582.9146093163617 15132.864939645942
583.924410622878 14947.8782499154
584.9339556541727 14966.697673177387
585.9432444896538 15145.600911355072
586.9522772086875 14958.805229156336
587.9610538906127 15097.377271702771
588.9695746147318 15010.339927841065
589.9778394603054 15109.272940437459
590.985848506567 14999.519495717741
591.9936018327098 14919.535887337686
593.0010995178891 14748.4558541509
594.0083416412344 14933.983498119103
595.0153282818283 14716.670817928472
596.0220595187293 14700.623468869879
597.0285354309508 14690.151316841171
598.0347560974806 14667.938347181585
599.0407215972609 14657.550311469575
600.0464320092051 14660.636482461437
601.0518874121954 14695.038295499548
602.0570878850685 14622.560390106519
603.062033506636 14735.944439766678
604.0667243556636 14681.460763557296
605.0711605108936 14569.453554009835
606.0753420510264 14877.538064598572
607.0792690547278 14748.420890550411
608.082941600629 14624.467762080942
609.0863597673306 14658.036818617524
610.0895236333909 14889.482827981143
611.0924332773357 15035.638622828958
612.0950887776617 15024.43635790245
613.0974902128219 15145.469440679419
614.0996376612384 15150.044407079817
615.1015312013005 15318.033358050234
616.1031709113595 15485.981420845743
617.1045568697336 15391.521011400522
618.1056891547069 15505.449681768974
619.1065678445229 15733.001390204223
620.1071930173985 15969.142877754066
621.1075647515099 16015.548301420431
622.1076831250048 16033.684121002952
623.1075482159849 16214.160834207247
624.1071601025305 16226.161295493079
625.1065188626781 16382.955808985007
626.105624574433 16638.984004738042
627.1044773157682 16749.7247418998
628.1030771646128 16764.309187638224
629.1014241988742 16854.568700234606
630.0995184964158 16953.024754058955
631.0973601350688 17062.852497265445
632.0949491926294 17261.004473598423
633.0922857468631 16971.42974365324
634.089369875499 17051.24569684295
635.0862016562278 17015.09470681858
636.0827811667077 16762.672013119147
637.0791084845641 16816.292205541173
638.0751836873878 16685.398507381633
639.0710068527369 16662.61586257547
640.0665780581294 16394.59562461032
641.0618973810506 16280.311830409762
642.0569648989604 16473.348457020802
643.0517806892676 16024.328119416019
644.0463448293649 16108.166875267547
645.040657396592 15998.664483702192
646.0347184682723 15880.561215029098
647.0285281216875 15700.637751932614
648.0220864340772 15681.951555847578
649.0153934826558 15632.892967631875
650.0084493446047 15421.02534296398
651.0012540970674 15419.64428991447
651.9938078171526 15344.60851091616
652.9861105819346 15252.495848670276
653.9781624684565 15299.186514581426
654.9699635537254 15104.352154254153
655.9615139147136 15173.297448320689
656.9528136283589 14968.777076244416
657.9438627715699 15039.820101760075
658.9346614212154 15017.49403352204
659.925209654135 14844.78359710628
660.9155075471263 14807.55854398487
661.9055551769616 14869.70197549096
662.895352620375 14957.00029263547
663.8848999540678 14710.76955051464
664.8741972547068 14690.864402766285
665.863244598926 14686.075733534939
666.8520420633213 14765.896824764652
667.8405897244611 14650.631713031029
668.8288876588758 14486.736946089935
669.8169359430613 14639.385681559821
670.8047346534822 14690.882477988998
671.7922838665672 14506.21367515869
672.7795836587156 14626.38604535678
673.766634106285 14845.117932021758
674.7534352856092 14573.056252968698
675.7399872729766 14448.562080330405
676.7262901446538 14553.01212771342
677.712343976862 14506.616110989518
678.6981488457986 14683.117850016439
679.6837048276229 14527.439040748757
680.6690119984596 14403.601184686984
681.6540704344043 14426.405909203648
682.6388802115107 14438.383691088708
683.6234414058108 14394.934044597005
684.6077540932874 14339.26207542483
685.591818349907 14354.047698103333
686.575634251587 14342.701788136517
687.5592018742263 14297.463575959391
688.5425212936734 14184.636694735227
689.5255925857564 14324.430168946328
690.5084158262707 14305.807009539514
691.4909910909646 14274.782663338216
692.4733184555644 14102.188712998093
693.4553979957618 14224.150822711274
694.4372297872123 14232.144437424115
695.4188139055404 14199.761283793001
696.4001504263324 14028.430600707565
697.3812394251509 14195.952955214956
698.3620809775111 14209.5538353369
699.3426751589104 14111.390378685386
700.3230220448004 14173.824948169146
701.3031217106054 14135.357827480791
702.2829742317172 14406.145427950503
703.2625796834873 14095.334509587841
704.2419381412474 14101.739550776012
705.22104968028 14198.76142962045
706.1999143758458 14186.549587469935
707.178532303169 14041.176799755596
708.1569035374378 14177.830654668924
709.1350281538107 14262.271860526438
710.1129062274158 14353.999234465475
711.0905378333373 14476.454451542926
712.0679230466376 14593.942954540596
713.0450619423427 14666.577505995918
714.0219545954424 14832.429128715356
714.9986010808989 14692.679145480539
715.9750014736292 14870.354917608729
716.9511558485392 15001.826320784186
717.9270642804786 15060.1030162854
718.9027268442787 15089.363947885378
719.8781436147328 15119.531565073343
720.8533146666014 15063.998776750732
721.828240074612 15120.075534238806
722.8029199134635 14908.19341382847
723.7773542578125 14883.63280561984
724.751543182294 14765.1608914227
725.7254867615029 14779.107523262031
726.6991850700015 14428.553864858619
727.6726381823228 14460.383570836271
728.6458461729599 14406.876764060138
729.6188091163858 14298.9659803582
730.5915270870246 14264.877635051493
731.5640001592856 14188.97174133501
732.536228407529 14246.375294639152
733.5082119060917 14232.988872715683
734.4799507292755 14157.443054577388
735.4514449513481 14112.96032981024
736.4226946465496 14232.044671583784
737.3936998890786 14255.718804572902
738.3644607531078 14050.688350588456
739.3349773127793 14034.126179694958
740.3052496421951 14113.431419771
741.27527781543 13940.332217029232
742.2450619065221 13866.226840605803
743.2146019894826 13859.963336123092
744.183898138288 13870.288162940536
745.1529504268801 13764.089204207761
746.1217589291682 13595.593363486918
747.0903237190341 13558.114586750919
748.058644870318 13531.072069699268
749.0267224568397 13494.32082289887
749.994556552374 13430.293011382728
750.9621472306771 13469.018428894618
751.9294945654583 13438.343396400009
752.8965986304011 13364.559001440048
753.8634594991636 13291.677462286467
754.8300772453586 13489.38460409556
755.7964519425768 13390.513899048912
756.762583664371 13442.388258356234
757.7284724842611 13383.259398622002
758.6941184757416 13320.385287310997
759.6595217122667 13277.127830451038
760.6246822672638 13308.08341175798
761.5896002141235 13218.07514109473
762.5542756262093 13345.778472512617
763.5187085768503 13278.97221806562
764.4828991393406 13215.193913490259
765.4468473869474 13181.388492829352
766.4105533929032 13276.399666641737
767.3740172304078 13132.114584025006
768.3372389726283 13260.421075937333
769.3002186926988 13103.75085840223
770.2629564637282 13028.258674150176
771.2254523587872 13119.415894500236
772.1877064509154 13026.030843151308
773.1497188131179 12929.029277164775
774.1114895183728 12859.702030683491
775.0730186396268 12973.875587240069
776.0343062497905 12940.169016488215
776.9953524217381 12885.190488520271
777.9561572283274 12873.562608986285
778.9167207423689 12813.597741272348
779.8770430366476 12797.497751163575
780.8371241839159 12807.71049953823
781.7969642568951 12824.161232630893
782.7565633282757 13092.265769096211
783.7159214707099 12783.203835674845
784.6750387568281 12847.870981155927
785.6339152592227 12818.808982235834
786.5925510504512 12804.872324524747
787.5509462030477 12927.376802916691
788.5091007895098 12814.178526800097
789.4670148823006 12815.08735170262
790.4246885538596 12853.197330142979
791.3821218765861 12854.278538133458
792.3393149228505 12766.328014782337
793.2962677649975 12927.512447410867
794.2529804753303 12862.376783564268
795.20945312613 12899.171108633456
796.1656857896378 12772.383258769372
797.1216785380675 12811.28444849296
798.0774314435985 12873.789562653403
799.0329445783846 13096.827081321593
799.9882180145414 13085.769418447804
800.9432518241574 13049.421488983808
801.89804607929 13242.04873636636
802.852600851962 13243.303963855444
803.8069162141637 13244.293141243168
804.760992237856 13392.962913507305
805.714828994971 13307.023829116582
806.6684265574077 13526.927503107296
807.6217849970271 13335.150050510341
808.574904385674 13274.94512055105
809.527784795142 13430.557208018008
810.4804262972102 13509.449070747974
811.4328289636178 13189.376136061499
812.3849928660748 13068.19553369294
813.3369180762638 13125.847823623044
814.2886046658241 13169.256265282336
815.2400527063783 12965.0487138787
816.1912622695108 12866.981262522899
817.1422334267718 12933.946515694124
818.0929662496856 12810.328308767877
819.0434608097457 12614.964694050634
819.9937171784059 12651.49391408149
820.9437354271013 12639.870315638695
821.8935156272255 12794.660365834463
822.8430578501484 12546.355827412914
823.7923621672016 12466.589759193841
824.7414286496896 12560.983870761982
825.6902573688876 12569.186165848543
826.6388483960363 12529.989766798648
827.5872018023492 12439.113825904598
828.5353176590033 12537.731198885178
829.4831960371503 12456.58835783374
830.4308370079016 12462.994768827068
831.3782406423525 12386.502974781793
832.3254070115545 12416.171988346463
833.2723361865319 12382.004395568418
834.2190282382799 12278.742113853463
835.1654832377644 12343.511545656784
836.1117012559116 12254.081666648275
837.0576823636256 12463.64929124059
838.003426631778 12224.96734157571
838.9489341312074 12146.029607220302
839.8942049327197 12365.446787613122
840.8392391070975 12433.080126060824
841.7840367250865 12331.394262897626
842.7285978573982 12098.938286831064
843.672922574724 12316.053566574776
844.6170109477152 12262.37039859837
845.560863046996 12214.488908693555
846.5044789431595 12176.82603455873
847.4478587067697 12177.319196901306
848.3910024083561 12283.035196490251
849.333910118421 12214.810046733643
850.2765819074339 12140.466888738865
851.2190178458332 12267.141020509694
852.161218004032 12342.886150042223
853.1031824524016 12265.278716846591
854.0449112612987 12110.083789635519
854.9864045010327 12345.205658123561
855.9276622418947 12215.967326289665
856.8686845541379 12185.313063125106
857.8094715079915 12333.562964161505
858.7500231736467 12359.7732152016
859.690339621271 12246.219605012082
860.6304209209939 12305.327214592045
861.5702671429244 12209.112233345622
862.5098783571284 12308.440419708124
863.4492546336569 12334.626110726434
864.3883960425155 12274.698400494675
865.3273026536863 12281.772748604923
866.2659745371238 12274.128718253516
867.2044117627465 12517.208497730478
868.1426144004472 12283.370730227634
869.0805825200823 12501.008552821397
870.0183161914847 12525.396228192165
870.9558154844526 12582.923945851677
871.8930804687552 12553.606392373435
872.8301112141307 12435.404912375781
873.7669077902865 12640.79255451257
874.7034702669062 12792.884848399332
875.6397987136315 12665.463283634675
876.5758932000863 12675.415453882728
877.5117537958522 12831.889315970566
878.4473805704911 12705.118322181448
879.3827735935283 12671.390131919541
880.3179329344603 12791.099259575045
881.2528586627541 12959.719359650484
882.1875508478479 12910.26651626187
883.1220095591489 12703.78001787054
884.0562348660296 12699.196941732442
884.9902268378391 12909.883287516986
885.9239855438955 12784.443181854283
886.8575110534839 12621.178564926264
887.7908034358588 12659.008274337955
888.7238627602474 12665.229458864611
889.6566890958475 12585.098988501773
890.5892825118208 12443.472712533225
891.5216430773125 12504.483691636855
892.4537708614189 12519.879223913318
893.3856659332196 12361.6553822851
894.3173283617652 12349.667537800153
895.2487582160684 12484.24347610764
896.179955565116 12421.839687109808
897.110920477864 12312.741105139325
898.0416530232451 12369.485507436597
898.9721532701478 12237.212603728145
899.9024212874428 12383.126254035345
900.8324571439662 12229.99919020035
901.7622609085302 12085.313981559422
902.6918326499072 12138.651449162993
903.6211724368477 12172.62484133633
904.5502803380696 12281.746107418145
905.4791564222614 12336.40677110871
906.4078007580792 12127.686781664494
907.3362134141571 12086.438792716388
908.2643944590909 12209.376001921606
909.1923439614493 11980.398243068692
910.1200619897754 11939.925383090846
911.0475486125779 12157.18631415897
911.9748038983344 12053.591617409742
912.9018279155007 11947.235719586355
913.8286207324982 11834.380262630255
914.7551824177117 12073.251502838099
915.6815130395116 11918.137097720293
916.6076126662283 11840.881173252248
917.533481366163 11908.992649740077
918.4591192075914 11965.983596048132
919.3845262587565 11990.211664269002
920.3097025878706 11759.108676189686
921.2346482631237 11792.35553471078
922.1593633526682 11801.538809632906
923.0838479246304 11964.453664075538
924.0081020471061 11988.407390864033
924.9321257881656 11701.857353565281
925.8559192158464 11754.892701428096
926.7794823981512 11735.723791417331
927.7028154030686 11810.596998984005
928.6259182985414 11659.240234002607
929.5487911524906 11939.347974136861
930.4714340328119 11869.447865988835
931.3938470073608 11610.81627107157
932.3160301439748 11728.619190897372
933.2379835104548 11916.141785199454
934.1597071745709 11876.988462663301
935.0812012040769 11854.076309573522
936.002465666681 11893.330017383929
936.9235006300696 11899.543553583357
937.8443061619055 11809.202905384105
938.7648823298077 11597.646591476074
939.6852292013809 11676.81634653483
940.6053468441951 11860.72587106898
941.5252353257874 11640.595337623932
942.4448947136698 11761.059051647873
943.364325075323 11749.299957996429
944.2835264782043 11810.837756001862
945.2024989897309 11791.769261362997
946.1212426773054 11836.279417801534
947.0397576082851 11930.265963439837
947.9580438500125 12013.859948125082
948.8761014697939 11986.941572700185
949.7939305349064 12010.74757585649
950.7115311125999 11809.334653674528
951.6289032700952 11839.552553677697
952.5460470745875 12022.271743959525
953.4629625932339 11844.341713228614
954.3796498931715 11923.749300415822
955.2961090415029 12016.870506975194
956.2123401053068 11911.732883404326
957.1283431516276 11848.971271301392
958.0441182474842 11783.137499253238
958.9596654598663 11981.616961835007
959.8749848557309 11840.459589590067
960.7900765020167 11881.333313437093
961.7049404656209 11763.635011426804
962.6195768134185 11971.66180158016
963.5339856122537 11974.557854408187
964.4481669289453 11935.914412918539
965.3621208302793 11772.581928051744
966.2758473830145 11858.202223411421
967.1893466538822 12101.104741879517
968.1026187095813 11948.311462061156
969.0156636167867 11955.754908687837
969.9284814421426 12063.176298003058
970.8410722522622 11916.204389852961
971.753436113735 12040.652375492622
972.6655730931161 11953.931342251502
973.5774832569368 12088.755628404228
974.4891666716958 11935.369718576036
975.4006234038698 12005.250497870704
976.3118535198955 11911.302890047597
977.2228570861935 12154.060489066047
978.1336341691494 12088.979996012189
979.0441848351202 11894.176159856685
979.9545091504333 12093.75384033464
980.864607181391 12032.884125976914
981.7744789942699 12141.306350703258
982.6841246553086 11984.175244305476
983.5935442307236 12003.487395829827
984.5027377867027 12080.977324889212
985.4117053894024 12011.68446451995
986.3204471049557 11958.224035940273
987.2289629994648 12027.955979196795
988.1372531390007 12180.303181386575
989.0453175896091 12093.807439523214
989.9531564173067 12132.037574924743
990.860769688079 12040.717821787717
991.7681574678918 12170.768686863352
992.6753198226706 12150.57396283208
993.582256818323 12236.385965833226
994.4889685207218 12222.972655041161
995.3954549957143 12443.369688396535
996.301716309119 12428.347321339581
997.2077525267232 12330.861737070398
998.1135637142943 12315.853730775048
999.0191499375615 12514.674936065492
999.924511262232 12373.147530140925
1000.8296477539861 12429.685709325011
1001.7345594784656 12313.876970599904
1002.6392465012996 12365.227575383926
1003.5437088880753 12354.580603687848
1004.4479467043584 12329.962434622375
1005.3519600156869 12083.734018264155
1006.2557488875718 12241.081521403055
1007.1593133854858 12275.552034894872
1008.0626535748888 12036.92364094593
1008.9657695212009 11961.854045054311
1009.8686612898182 12231.452746430517
1010.7713289461135 12128.87464703926
1011.6737725554212 12104.685688977468
1012.5759921830577 12051.920938404459
1013.4779878943027 12043.924254636051
1014.379759754418 12140.560041221614
1015.2813078286254 11927.83437834039
1016.18263218213 11869.824775304214
1017.0837328801026 11968.693325873362
1017.9846099876886 12044.855577374703
1018.8852635700023 11867.846364636129
1019.7856936921362 11796.17979046407
1020.6859004191447 11979.292601148223
1021.5858838160675 11780.818830936689
1022.4856439479063 11828.44797203177
1023.3851808796389 11670.920530961876
1024.2844946762143 11928.502907142385
1025.183585402554 11861.914899135347
1026.082453123554 11628.98976993791
1026.9810979040776 11695.666589779701
1027.8795198089647 11670.078487657924
1028.777718903024 11775.35377613072
1029.6756952510368 11722.356868048959
1030.5734489177648 11604.541546833305
1031.4709799679313 11822.727537201808
1032.3682884662358 11926.105402517656
1033.2653744773506 11696.962466051138
1034.1622380659192 11688.676454636425
1035.058879296559 11815.778765282168
1035.9552982338591 11951.405611978444
1036.8514949423825 11735.218961356508
1037.7474694866614 11794.001388426668
1038.6432219312028 11754.054743247041
1039.5387523404825 11948.20034191964
1040.4340607789582 11768.177936015663
1041.3291473110476 11770.678819304321
1042.2240120011465 11964.991119113412
1043.1186549136273 11940.996362352622
1044.0130761128294 11799.760982744221
1044.9072756630649 11773.355863854556
1045.8012536286205 11987.38853444115
1046.6950100737577 11963.785538331427
1047.588545062701 12055.47523791509
1048.481858659663 12085.53765360839
1049.3749509288118 12154.35303817208
1050.2678219343034 11985.970020722787
1051.1604717402515 12055.007741873616
1052.0529004107575 11900.442002109463
1052.9451080098825 12195.472922087985
1053.8370946016694 12128.599927687023
1054.7288602501267 12247.40242672115
1055.6204050192446 12165.640628919671
1056.511728972977 12282.37190337477
1057.402832175254 12162.181489626357
1058.2937146899785 12089.029387565559
1059.1843765810263 12102.725531123619
1060.0748179122456 12362.554776630246
1060.9650387474576 12194.777811113227
1061.855039150456 12365.468352093521
1062.7448191850071 12277.924601091285
1063.6343789148505 12330.534405096214
1064.5237184037014 12412.301205770224
1065.412837715241 12325.640157589787
1066.3017369131267 12158.404088644547
1067.190416060992 12176.633731987673
1068.0788752224398 12057.740293533927
1068.9671144610438 12188.645708892942
1069.8551338403558 12187.209429720808
1070.7429334239023 12240.57688210743
1071.6305132751695 12039.569085732846
1072.517873457633 12161.492697045196
1073.4050140347335 12008.603051408798
1074.2919350698776 12075.612982207545
1075.1786366264623 12099.695700612003
1076.0651187678395 12062.80910529377
1076.95138155735 11709.695527708061
1077.8374250582929 11999.553640674801
1078.7232493339507 11995.757609285005
1079.608854447577 11989.21872956532
1080.4942404623907 11970.615784500196
1081.3794074415982 12055.840263092932
1082.2643554483657 12063.55824386631
1083.149084545841 12004.109333752032
1084.033594797138 11870.562004641479
1084.9178862653516 11980.61334598809
1085.8019590135427 12126.41591074587
1086.6858131047484 11905.274491925124
1087.5694486019802 11961.18118368571
1088.4528655682225 12041.65939143478
1089.3360640664287 12069.781755064902
1090.2190441595321 12009.343109487887
1091.1018059104317 12018.604430573654
1091.98434938201 12088.75177374443
1092.866674637111 12089.339226175554
1093.748781738559 12050.269571696654
1094.6306707491512 11850.28597475502
1095.5123417316554 12005.552441658918
1096.3937947488157 11920.519081647817
1097.2750298633455 11976.856985601351
1098.156047137938 11904.053120804598
1099.0368466352556 12045.761689957031
1099.9174284179317 12147.273063884804
1100.7977925485757 11805.498781724376
1101.6779390897755 11991.580593063018
1102.5578681040806 12012.694454757228
1103.4375796540226 11980.786097774706
1104.3170738021054 12014.797072230218
1105.1963506108077 11872.288377785746
1106.0754101425773 11959.845137640898
1106.9542524598382 12014.679819189174
1107.8328776249855 11955.421910114237
1108.7112857003904 11873.948921013678
1109.5894767483987 11922.74880995801
1110.4674508313292 12078.192719446186
1111.3452080114657 11961.060103650234
1112.2227483510815 12091.60277153154
1113.1000719124077 12143.806617500979
1113.9771787576592 12241.307053606728
1114.854068949022 12197.956848793481
1115.7307425486542 12234.867577525565
1116.6071996186893 12365.22860865845
1117.483440221229 12611.199834210052
1118.3594644183577 12371.967484035491
1119.235272272128 12272.853185023108
1120.1108638445658 12588.926230080964
1120.9862391976712 12697.893709999295
1121.8613983934229 12696.084448105843
1122.7363414937627 12610.382071760918
1123.6110685606182 12726.510570578543
1124.485579655884 12860.175671998873
1125.359874841426 12809.801886922844
1126.2339541790916 12767.695427046498
1127.1078177306936 13040.749970638837
1127.9814655580267 12816.22229232232
1128.854897722851 12919.504946753634
1129.7281142869106 12924.223885720203
1130.6011153119125 12970.149209265688
1131.473900859548 13150.460046924441
1132.3464709914697 12957.543043813534
1133.2188257693178 12807.522293716933
1134.0909652546961 12839.559960093511
1134.96288950919 12655.724400219891
1135.8345985943506 12718.240019024732
1136.7060925717087 12511.4610151567
1137.57737150277 12740.734557087666
1138.4484354490069 12624.508519467077
1139.3192844718778 12430.086485431948
1140.1899186327992 12214.965383819614
1141.060337993178 12364.2068879408
1141.930542614382 12267.437996861388
1142.8005325577597 12088.188706373274
1143.670307884635 12000.07904032636
1144.5398686563003 12123.8972558381
1145.409214934025 11993.891958053922
1146.2783467790541 11873.162839012079
1147.1472642526023 11791.634624849392
1148.0159674158622 12045.646118450286
1148.8844563300026 11665.538127974098
1149.7527310561618 11784.131759431322
1150.6207916554504 11713.460367672382
1151.4886381889592 11735.048092488496
1152.3562707177498 11684.260101095095
1153.2236893028585 11750.142248652248
1154.090894005296 11660.594151917812
1154.9578848860474 11795.073976553209
1155.8246620060709 11683.849895132653
1156.6912254262988 11513.29826861341
1157.5575752076438 11384.660472102536
1158.42371141098 11737.720346089958
1159.2896340971656 11628.306680289039
1160.1553433270346 11573.811047307727
1161.0208391613887 11746.174195805232
1161.8861216610057 11713.041807671134
1162.75119088664 11721.580820856852
1163.6160468990201 11642.411024061648
1164.4806897588442 11529.928133329442
1165.3451195267917 11651.86715612549
1166.2093362635114 11686.035467432073
1167.0733400296285 11628.50449492512
1167.9371308857444 11556.051733574517
1168.8007088924278 11609.831722824249
1169.6640741102328 11653.67554412248
1170.5272265996773 11562.673666603307
1171.390166421259 11488.260313216439
1172.252893635452 11660.98109385211
1173.1154083026995 11788.77584705484
1173.977710483421 11782.889068164539
1174.8398002380145 11555.07967925633
1175.7016776268483 11760.703583964083
1176.563342710264 11668.127140033092
1177.4247955485826 11633.412844418159
1178.2860362020947 11593.024141975005
1179.147064731069 11598.766820323037
1180.0078811957483 11613.14966904995
1180.8684856563486 11674.02511323929
1181.7288781730604 11756.767462410788
1182.589058806052 11827.164623436967
1183.4490276154593 12018.060223657787
1184.3087846614017 11792.67096776881
1185.1683300039676 11937.715908242386
1186.027663703222 12291.338728809747
1186.8867858192025 12060.746876978403
1187.7456964119228 12173.027653494051
1188.6043955413716 12220.398852158243
1189.4628832675116 12353.063445004245
1190.3211596502842 12380.123325335511
1191.179224749596 12461.006501779459
1192.0370786253388 12209.007536526084
1192.8947213373758 12664.585200235266
1193.7521529455407 12757.606124580818
1194.6093735096438 12495.226298028887
1195.466383089477 12488.744828446961
1196.3231817447977 12563.559269513873
1197.1797695353398 12717.972619056
1198.0361465208189 12496.905380792212
1198.8923127609214 12472.67993069005
1199.7482683153048 12628.694147977805
1200.6040132436028 12688.402683569078
1201.459547605431 12523.410914715196
1202.3148714603722 12510.054022557688
1203.1699848679855 12563.96710976461
1204.0248878878065 12536.269119691005
1204.8795805793507 12315.221394697255
1205.7340630020935 12390.870253021149
1206.5883352155033 12548.853144806526
1207.4423972790064 12461.444727557582
1208.2962492520237 12212.026311404356
1209.1498911939307 12207.76984878003
1210.0033231640937 12225.826522488733
1210.8565452218427 12178.98865923935
1211.7095574264913 11923.886995355135
1212.5623598373222 11959.006983973704
1213.4149525135963 12085.327127470428
1214.2673355145507 12043.68206951629
1215.1195088993936 11875.219649490704
1215.9714727273113 11850.182422454483
1216.8232270574663 12156.712209685618
1217.6747719489904 11752.948201845309
1218.5261074609934 11819.279816515853
1219.3772336525653 11875.603733678472
1220.2281505827668 11931.370730058758
1221.0788583106296 12058.20338089045
1221.9293568951707 11769.382634387393
1222.7796463953746 11728.136253830568
1223.629726870202 11863.13872495898
1224.4795983785934 11873.146739495427
1225.3292609794553 11807.720403693707
1226.1787147316809 11741.465751819558
1227.0279596941327 11845.771679102654
1227.8769959256424 11825.192003495698
1228.7258234850306 11916.556603788631
1229.5744424310833 11644.52301452922
1230.422852822563 11923.888292138032
1231.2710547182105 11906.96574353596
1232.119048176739 11846.013712792994
1232.9668332568417 11625.390653043622
1233.8144100171812 11879.965659896585
1234.6617785163999 11961.517798061072
1235.508938813111 11686.930782143474
1236.3558909659114 11821.04664353896
1237.2026350333617 11975.279930226765
1238.049171074008 12052.973024593197
1238.8954991463652 11879.22705351058
1239.741619308932 11773.828203503292
1240.587531620169 10740.67336376868
1241.4332361385277 11808.521381156072
1242.2787329224248 11700.808528947378
1243.1240220302534 11697.246187726281
1243.9691035203869 11702.057339467367
1244.813977451171 11912.836665297267
1245.6586438809263 11801.014454522416
1246.5031028679496 11504.797316074611
1247.3473544705157 11746.6342801221
1248.1913987468706 11784.975727431327
1249.0352357552383 11595.540755580518
1249.8788655538228 11623.66088196935
1250.7222882007918 11801.056380915237
1251.565503754302 11785.059401680432
1252.4085122724755 11607.07770390745
1253.2513138134182 11776.3108878013
1254.0939084352049 11800.690915754867
1254.9362961958905 11634.204657804305
1255.7784771535007 11698.022339662715
1256.6204513660432 11734.43122176776
1257.4622188915 11969.296437515388
1258.3037797878242 11722.65008539307
1259.1451341129468 11634.865450236506
1259.9862819247755 11782.43443946793
1260.8272232811978 11848.301889112403
1261.6679582400666 11806.8677921261
1262.5084868592203 11589.781109275205
1263.34880919647 11562.419491214767
1264.1889253095997 11799.826010332736
1265.0288352563712 11756.834715636776
1265.8685390945266 11577.147223548123
1266.7080368817751 11617.033799723127
1267.5473286758115 11911.112801723924
1268.386414534294 11747.191949953067
1269.2252945148703 11510.705433433961
1270.0639686751547 11602.354610392376
1270.9024370727402 11635.687082875209
1271.7406997651997 11607.200075487683
1272.5787568100714 11531.437976166142
1273.4166082648808 11469.016833931177
1274.2542541871244 11630.498779423655
1275.091694634275 11764.939639746364
1275.9289296637817 11369.357280187789
1276.7659593330663 11554.95891386486
1277.6027836995308 11659.486730195851
1278.4394028205552 11709.887144680599
1279.2758167534867 11618.971498969167
1280.112025555658 11542.628201554737
1280.9480292843746 11672.223485619015
1281.7838279969128 11413.842435272381
1282.6194217505326 11589.614690494356
1283.4548106024686 11327.741566249684
1284.289994609926 11502.847877107437
1285.1249738300921 11644.286386988317
1285.959748320127 11491.908153988861
1286.7943181371702 11483.535273418685
1287.6286833383328 11544.742110160152
1288.4628439807038 11666.345229447821
1289.2968001213521 11547.617805939708
1290.1305518173194 11500.630555520032
1290.9640991256183 11677.223802359807
1291.7974421032523 11490.861854419507
1292.630580807183 11446.108233593166
1293.463515294361 11619.700084116566
1294.29624562171 11731.439799049862
1295.12877184613 11491.229479103036
1295.961094024493 11546.732986132387
1296.79321221365 11579.08894190296
1297.6251264704333 11664.422278363849
1298.4568368516466 11844.435518188911
1299.2883434140658 11751.832947164154
1300.1196462144526 11481.057028709572
1300.9507453095375 11734.548721674028
1301.7816407560313 11811.723519911013
1302.6123326106172 11724.990653549856
1303.4428209299622 11621.200834481373
1304.2731057707024 11977.111037917495
1305.1031871894502 11619.90525273039
1305.933065242798 11743.6487018246
1306.7627399873181 11717.527971848645
1307.5922114795467 12063.754864040926
1308.4214797760123 12261.17923504401
1309.2505449332057 11915.020772780523
1310.0794070076026 11899.922985725421
1310.9080660556538 12053.586956744128
1311.736522133786 12043.41846928916
1312.5647752983987 11931.894971202611
1313.3928256058734 11706.793970914663
1314.2206731125661 12053.023663635697
1315.048317874809 11953.895506227043
1315.8757599489109 11970.099608003613
1316.7029993911547 11960.629730879988
1317.5300362578055 12131.457467545803
1318.356870605101 11901.56655885813
1319.183502489257 11902.563724961221
1320.0099319664623 12100.1086887506
1320.836159092889 12140.83464266721
1321.66218392468 12118.629651765279
1322.4880065179532 11892.865878039749
1323.3136269288134 12024.955984304193
1324.1390452133292 12230.234248383078
1324.9642614275563 12257.008151511112
1325.7892756275214 12117.338069697304
1326.6140878692295 11916.091680687252
1327.4386982086617 12422.624949879777
1328.2631067017755 12116.341195807112
1329.0873134045069 12178.879377090638
1329.911318372764 12051.667817589085
1330.735121662441 12240.890394583877
1331.558723329399 12036.067294319719
1332.3821234294774 11936.568856130232
1333.2053220185007 12101.714614452341
1334.0283191522612 12109.958498347652
1334.851114886529 12037.152577114424
1335.6737092770582 11899.191423724227
1336.4961023795695 11924.21298364432
1337.3182942497697 11923.390141866617
1338.1402849433325 12061.839578196556
1338.962074515921 11859.92452750497
1339.7836630231632 11778.578652021308
1340.6050505206676 12185.231400265253
1341.426237064028 12055.816266814423
1342.2472227088037 11848.759982653308
1343.0680075105338 11722.550390762666
1343.888591524741 11931.884988323858
1344.7089748069138 11946.313537264932
1345.5291574125276 11781.456246771548
1346.3491393970307 11570.680208347581
1347.168920815846 11914.307808740594
1347.9885017243778 11783.668674289838
1348.8078821780036 11650.61795680616
1349.6270622320844 11632.144110480758
1350.4460419419447 11576.022390749935
1351.2648213629054 11652.010093265482
1352.0834005502438 11368.936436895583
1352.90177955923 11558.16044674034
1353.7199584451064 11571.402366157849
1354.5379372630887 11516.495811155834
1355.355716068374 11583.669461243175
1356.1732949161305 11382.915736513663
1356.9906738615155 11566.082434515756
1357.8078529596478 11454.858146455526
1358.6248322656375 11710.032810638173
1359.441611834567 11436.115889311459
1360.2581917214866 11561.430628597338
1361.0745719814367 11305.584053716333
1361.890752669433 11339.967756961885
1362.7067338404577 11312.020451279612
1363.5225155494845 11579.811755021037
1364.3380978514506 11623.245930937224
1365.1534808012839 11320.096416126153
1365.9686644538815 11047.3185200278
1366.783648864117 11611.63490892699
1367.5984340868417 11397.924038946749
1368.413020176893 11429.117019246176
1369.2274071890715 11132.928884534715
1370.0415951781652 11435.614389182616
1370.8555841989346 11572.887262477647
1371.6693743061223 11093.912238579784
1372.48296555444 10997.173332897673
1373.2963579985844 11279.239777529672
1374.1095516932255 11252.484575436292
1374.9225466930166 11047.0873127442
1375.7353430525782 11225.078019504126
1376.5479408265164 11174.421813478244
1377.36034006941 11179.351973069897
1378.1725408358216 11231.400496488139
1378.9845431802805 10909.817944854487
1379.796347157304 11414.946837306248
1380.6079528213813 11275.622685369755
1381.4193602269788 11024.698133119262
1382.230569428546 11034.446726260996
1383.0415804805016 11236.719716457548
1383.852393437246 11218.112317157738
1384.6630083531563 11189.29729343812
1385.4734252825892 11060.97427668079
1386.2836442798798 11076.4428696595
1387.0936653993322 11218.119054909115
1387.9034886952395 11204.229762132329
1388.713114221864 11195.987339789293
1389.5225420334482 11254.870116162081
1390.331772184214 11060.851137165291
1391.1408047283585 10984.559844597696
1391.9496397200564 11022.895835836354
1392.758277213461 11295.307334155392
1393.5667172627054 11236.831146121487
1394.3749599218918 11113.825193291363
1395.1830052451114 10810.068469722904
1395.9908532864265 11108.548151633218
1396.7985040998774 11249.796908094635
1397.6059577394808 10993.620442177562
1398.4132142592352 10928.864455203722
1399.2202737131156 11014.769246035938
1400.027136155073 11077.405705445306
1400.8338016390353 10819.04246992241
1401.6402702189134 10983.633434862037
1402.446541948586 11028.633116492096
1403.2526168819204 10908.78158020632
1404.058495072757 10855.539133243936
1404.8641765749107 10932.925419663161
1405.6696614421799 11005.959988882609
1406.4749497283356 11153.80648841262
1407.280041487129 10893.159926289067
1408.084936772295 10648.5831948711
1408.8896356375335 11056.907509736182
1409.6941381365323 10962.527264228997
1410.498444322955 10624.331240578475
1411.3025542504402 10721.919366486032
1412.106467972606 10836.948188663822
1412.9101855430508 10776.208995716119
1413.7137070153458 10485.783188754882
1414.5170324430437 10489.159274131858
1415.320161879672 10727.01191971411
1416.1230953787435 10858.616427984129
1416.925832993742 10503.376964709507
1417.7283747781275 10356.90533236333
1418.5307207853439 10668.660678336362
1419.3328710688093 10504.50297561769
1420.134825681922 10259.946562553372
1420.9365846780584 10351.207225763828
1421.7381481105713 10657.872263204403
1422.539516032788 10477.705685861485
1423.3406884980232 10334.368488410812
1424.1416655595604 10195.522177321316
1424.942447270665 10359.566353268187
1425.7430336845828 10516.658746122106
1426.5434248545298 10208.229029592429
1427.3436208337116 10307.49566781501
1428.143621675301 10351.392077881472
1428.9434274324558 10486.015556676584
1429.7430381583108 10155.522414437322
1430.5424539059713 10272.328205183108
1431.3416747285337 10733.396701790023
1432.1407006790632 10323.087782166423
1432.9395318106053 10087.58524885296
1433.7381681761835 10212.255199037352
1434.5366098288014 10415.92513088785
1435.3348568214424 10384.116045713368
1436.1329092070573 10270.484880773918
1436.9307670385879 10235.65228668166
1437.7284303689503 10452.778833240656
1438.5258992510335 10467.99218540771
1439.3231737377118 10255.951350445157
1440.1202538818306 10247.282556342225
1440.9171397362225 10393.75297700355
1441.7138313536925 10366.62788348563
1442.5103287870243 10235.325968354857
1443.3066320889775 10015.841363467265
1444.1027413122956 10413.392099781904
1444.8986565096966 10221.730856441252
1445.694377733882 10233.071130205815
1446.4899050375207 10032.402217576528
1447.2852384732687 10192.837575504916
1448.0803780937622 10222.101158675967
1448.8753239516063 10053.21652769966
1449.6700760993954 9853.151890499063
1450.464634589689 10132.005321966391
1451.2589994750397 10354.593806075007
1452.0531708079689 9929.86745083296
1452.8471486409799 9895.566794558028
1453.6409330265524 10294.712143885778
1454.4345240171442 9974.386102815328
1455.2279216651987 9994.70498854952
1456.0211260231263 10037.092387054276
1456.8141371433194 10136.403942086486
1457.6069550781594 10203.532419862648
1458.3995798799897 9921.808216348569
1459.1920116011424 9754.064606550015
1459.98425029393 9890.95992657867
1460.7762960106338 9956.45443284855
1461.5681488035225 9869.493721793693
1462.3598087248392 9968.421029479287
1463.1512758268036 10081.276019406807
1463.942550161617 9900.393196339537
1464.7336317814625 9880.759839349332
1465.524520738496 9844.76187236494
1466.3152170848552 9842.018049144071
1467.1057208726506 9779.035133287622
1467.8960321539817 9819.309157098241
1468.6861509809169 9549.753658562955
1469.4760774055085 9736.080213549372
1470.265811479785 9762.752691926225
1471.055353255755 9524.69422970722
1471.844702785409 9593.378243835123
1472.6338601207044 9606.979728764407
1473.4228253135934 9749.396709680646
1474.2115984159936 9532.007026729942
1475.0001794798063 9267.443227060838
1475.7885685569145 9526.38069976526
1476.576765699172 9606.713101115736
1477.3647709584238 9474.820177114403
1478.1525843864802 9654.848913472311
1478.9402060351367 9580.650102937427
1479.7276359561693 9587.802659080662
1480.514874201328 9341.802382656384
1481.3019208223468 9337.197983964006
1482.0887758709323 9265.579130293914
1482.8754393987747 9576.828752305413
1483.6619114575406 9223.735008529973
1484.4481920988783 9299.491764949864
1485.2342813744108 9507.637994597628
1486.0201793357446 9567.61745676146
1486.8058860344572 9330.400768865436
1487.591401522117 9299.552023893024
1488.3767258502594 9430.886430048893
1489.1618590704056 9497.169650459588
1489.9468012340494 9146.402356179538
1490.7315523926754 9390.3920538135
1491.5161125977356 9592.328387196434
1492.3004819006637 9482.893356226436
1493.084660352877 9159.801578603528
1493.8686480057622 9431.17414262395
1494.6524449106964 9683.658969873333
1495.4360511190262 9617.024199153986
1496.219466682087 9530.608796267621
1497.0026916511779 9484.106862777398
1497.7857260775945 9551.74879949578
1498.5685700125996 9574.573817187827
1499.3512235074395 9234.103883047326
1500.133686613337 9256.27637814131
1500.9159593814966 9492.610658494557
1501.698041863101 9822.468277311656
1502.4799341093094 9207.442763891875
1503.2616361712662 9217.188035410134
1504.043148100087 9473.968380335591
1504.8244699468742 9360.578928796514
1505.6056017626997 9294.546911727697
1506.3865435986281 9297.616819625724
1507.1672955056893 9536.389448224625
1507.9478575348967 9290.315048859935
1508.7282297372512 9653.124628431056
1509.5084121637192 9294.989575369134
1510.2884048652577 9386.298734608667
1511.0682078927948 9361.678576480768
1511.8478212972423 9300.817086323179
1512.6272451294917 9356.57530170519
1513.4064794404076 9503.1298025877
1514.1855242808433 9410.18738021565
1514.9643797016215 9271.666207118733
1515.743045753552 9382.281191353544
1516.5215224874191 9491.95809491687
1517.2998099539836 9253.362570610272
1518.077908203999 9246.642021137419
1518.8558172881785 9286.326894760927
1519.633537257234 9493.814106033793
1520.4110681618404 9408.590440405698
1521.1884100526604 9378.598392966256
1521.9655629803365 9184.928252586948
1522.7425269954856 9565.970241469096
1523.5193021487103 9604.052528263112
1524.2958884905856 9129.219127797736
1525.0722860716687 9212.640684380007
1525.848494942502 9258.604182271549
1526.624515153595 9249.204365020403
1527.4003467554485 9358.28284325785
1528.175989798534 9392.43931433455
1528.9514443333064 9441.325957896875
1529.726710410203 9498.165160246206
1530.5017880796331 9086.765066612514
1531.276677391992 9088.931089790642
1532.0513783976457 9408.005626553608
1532.825891146953 9251.942611314546
1533.6002156902414 9464.836641330407
1534.3743520778207 9146.431572305684
1535.1483003599806 9343.382562773711
1535.9220605869923 9182.583841414647
1536.6956328091019 9469.590981492998
1537.4690170765407 9253.24727962288
1538.242213439511 9429.602966104161
1539.015221948208 9190.922521247363
1539.78804265279 9258.247311935624
1540.560675603405 8999.360407905937
1541.3331208501804 9400.34811831894
1542.1053784432224 9435.400102038355
1542.8774484326168 9249.469881550416
1543.649330868422 9137.722666685988
1544.4210258006842 9260.869213472452
1545.1925332794308 9272.682479979008
1545.9638533546604 9318.144938502597
1546.7349860763552 9194.946456218795
1547.5059314944829 9668.512125197982
1548.27668965898 9293.020010087921
1549.0472606197673 9208.576326556233
1549.817644426752 9105.196630040178
1550.5878411298072 9349.464127040697
1551.3578507787988 9286.553044872846
1552.1276734235635 9093.799659013777
1552.8973091139233 9293.672527829165
1553.6667578996767 9428.371915493786
1554.436019830604 9225.073620401758
1555.20509495646 9109.620432535985
1555.9739833269869 9113.656617354925
1556.7426849919011 9284.138682119346
1557.511200000903 9487.725754891651
1558.2795284036674 9354.597811979786
1559.0476702498509 9154.364855880156
1559.8156255890954 9472.683571249334
1560.5833944710157 9539.760102511016
1561.3509769452048 9190.282053887862
1562.1183730612447 9361.664792201213
1562.8855828686865 9341.401885703115
1563.6526064170703 9596.9364862622
1564.4194437559127 9420.08298144708
1565.1860949347047 9267.405314130068
1565.9525600029283 9681.719098384081
1566.7188390100328 9663.078515265184
1567.4849320054564 9279.691923314851
1568.250839038612 9381.964489068469
1569.0165601588997 9319.64320172888
1569.7820954156887 9481.907210964146
1570.5474448583373 9207.112963676926
1571.31260853618 9139.848752990263
1572.0775864985299 9215.840992142776
1572.8423787946813 9371.89721045335
1573.6069854739108 9347.614870689282
1574.371406585471 9380.752476416454
1575.1356421785986 9432.938443569356
1575.899692302506 9187.777555733854
1576.6635570063845 9396.49543236529
1577.4272363394157 9292.444181702986
1578.190730350747 9278.823137848207
1578.9540390895163 9323.740276083308
1579.7171626048384 9081.055224668027
1580.480100945806 9034.275280650898
1581.2428541614918 9166.888829525167
1582.0054223009538 9253.518525804584
1582.767805413223 9262.059403419718
1583.5300035473156 9121.246557912487
1584.292016752228 9528.710351215203
1585.0538450769309 9306.781595289163
1585.8154885703807 9016.325351644027
1586.5769472815136 9006.53653226596
1587.3382212592405 9137.815470942698
1588.099310552463 9283.2275179519
1588.8602152100484 9020.797166448743
1589.6209352808564 9020.761491839721
1590.3814708137234 9083.231279678304
1591.14182185746 9217.43403306141
1591.9019884608679 8934.592701553229
1592.6619706727215 8791.542663480597
1593.4217685417734 9137.0746697236
1594.1813821167616 9219.899528403826
1594.9408114464022 8977.532269933248
1595.7000565793933 9015.3555225264
1596.459117564409 9020.882976509312
1597.2179944501113 8818.34006596825
1597.9766872851324 8761.962030738365
1598.735196118092 9075.13652344711
1599.4935209975883 9076.679708973323
1600.2516619721973 9061.508361735812
1601.0096190904787 8896.803322928343
1601.7673924009723 8793.755301114277
1602.524981952196 8933.693640622794
1603.2823877926476 8630.638316731696
1604.0396099708087 8616.835539351285
1604.7966485351371 8584.544740502557
1605.5535035340745 8708.417961192532
1606.3101750160404 8955.495046790964
1607.0666630294363 8581.972894417242
1607.822967622642 8545.674789722467
1608.5790888440224 8772.329229501844
1609.3350267419137 8917.949057394319
1610.0907813646445 8582.980150046737
1610.8463527605145 8519.515797044822
1611.601740977805 8834.43792538276
1612.356946064785 8471.708122620661
1613.1119680696902 8303.612820945042
1613.8668070407512 8496.605462323132
1614.6214630261748 8487.464072944442
1615.375936074137 8481.0320495012
1616.1302262328118 8342.363718719338
1616.8843335503425 8462.992842408998
1617.638258074854 8331.075856125808
1618.391999854457 8361.99573859539
1619.1455589372363 8506.486439239005
1619.8989353712623 8329.115874258408
1620.65212920458 8012.010179815114
1621.4051404852235 8193.10961357634
1622.1579692611976 8237.044332566471
1622.9106155804966 7998.064558481448
1623.663079491087 8027.047605544278
1624.4153610409248 8182.709323486747
1625.1674602779385 8011.039715930844
1625.9193772500403 7975.1845257816185
1626.6711120051277 8343.76984615881
1627.4226645910676 8032.146026151105
1628.174035055721 7996.187971751213
1628.9252234469168 8042.784616369931
1629.676229812474 7939.101192774101
1630.4270542001905 8414.136022649798
1631.1776966578382 8059.5767285279235
1631.9281572331747 7813.806944493377
1632.678435973945 8032.592623774659
1633.4285329278573 7985.354203742992
1634.1784481426203 7624.371621319439
1634.9281816659113 7682.574942292662
1635.677733545388 8027.197853661828
1636.4271038286934 7816.850020362639
1637.176292563452 7904.102585862303
1637.9252997972635 7721.209307773197
1638.674125577716 7870.943822458605
1639.4227699523672 8136.539025818698
1640.171232968767 7418.140176182028
1640.9195146744423 7599.304214172368
1641.6676151168977 7776.597670189032
1642.4155343436178 7913.938404462421
1643.1632724020765 7635.930879593431
1643.9108293397167 7525.336228394876
1644.658205203974 7659.024487420225
1645.4054000422566 8148.466130686985
1646.1524139019566 7616.9573153650035
1646.8992468304423 7377.798010774704
1647.6458988750728 7452.387143648671
1648.3923700831765 7449.852831077065
1649.1386605020743 7458.794465986107
1649.8847701790564 7699.1975663063295
1650.6306991614038 7519.392973234806
1651.3764474963682 7576.745156681449
1652.1220152311944 7249.6590090733125
1652.867402413096 7449.388316794206
1653.6126090892776 7477.697970570727
1654.3576353069184 7655.598052528732
1655.1024811131829 7437.04128359815
1655.8471465552066 7307.401562520579
1656.5916316801213 7492.061695160186
1657.3359365350298 7576.461193806633
1658.0800611670165 7401.146602996634
1658.824005623148 7260.879658879376
1659.5677699504722 7303.346695775539
1660.3113541960192 7379.806849855704
1661.054758406799 7341.373906941801
1661.7979826297997 7154.350516544626
1662.5410269119966 7054.555137844244
1663.283891300338 7320.601613619004
1664.0265758417645 7105.00604830553
1664.7690805831826 7261.447878896773
1665.5114055714948 7298.290264713129
1666.2535508535748 7472.725524699943
1666.9955164762814 6961.806532810753
1667.7373024864555 7035.844838265941
1668.478908930916 7232.912967021208
1669.220335856462 7133.60743486603
1669.9615833098778 6927.926062354263
1670.7026513379296 6898.166094085895
1671.44353998736 7091.844245392317
1672.1842493048916 7026.173928493483
1672.9247793372379 6818.375731727193
1673.6651301310812 6924.656360304749
1674.4053017330934 6936.096505883448
1675.1452941899242 7043.074052802956
1675.885107548207 6430.22910439839
1676.6247418545518 6429.725895399426
1677.3641971555535 6712.834481105038
1678.1034734977893 6837.508590108906
1678.8425709278108 6700.532459546805
1679.5814894921605 6796.376867954341
1680.320229237359 6794.127063547504
1681.0587902098978 6795.120237096603
1681.7971724562685 6687.164539998041
1682.5353760229264 6351.956842068307
1683.2734009563173 6679.582419250786
1684.0112473028657 6395.870545719419
1684.7489151089794 6799.866212235835
1685.4864044210462 6610.081817079021
1686.2237152854377 6256.977206623444
1686.960847748498 6750.072939424836
1687.6978018565642 6284.283135031111
1688.434577655944 6183.22688464922
1689.1711751929379 6122.829327476711
1689.9075945138156 6436.294635032864
1690.6438356648396 6235.127809770453
1691.3798986922448 5865.432159335697
1692.1157836422499 6211.080363698051
1692.851490561059 6163.498325455456
1693.587019494853 6233.451423172352
1694.3223704897991 5906.9451715890555
1695.0575435920364 5865.028929854256
1695.792538847696 6471.210894687258
1696.527356302886 5899.380611186791
1697.2619960036936 5821.0398111550985
1697.9964579961907 5858.976340175281
1698.730742326432 5634.41537044372
1699.4648490404488 5689.383975332266
1700.1987781842563 5863.920467467594
1700.9325298038548 6087.1520598766665
1701.6661039452174 6054.8390232655465
1702.3995006543082 5897.209283936104
1703.1327199770658 5959.156197188322
1703.865761959416 5648.942828872115
1704.598626647261 5981.988799727025
1705.3313140864866 5668.984103280925
1706.0638243229587 5670.181928804482
1706.7961574025303 5945.736084286756
1707.528313371029 5709.622475558071
1708.260292274268 5500.206282747056
1708.9920941580403 5695.109522106725
1709.7237190681226 5702.029427575268
1710.4551670502697 5558.337041998974
1711.18643815022 5429.006027658444
1711.9175324136959 5920.2877949953745
1712.6484498863938 5573.096607180218
1713.379190614005 5429.029719067627
1714.109754642188 5527.888097921508
1714.8401420165883 5452.010634808705
1715.570352782839 6029.940254315925
1716.3003869865497 5495.065467117222
1717.0302446733076 5407.736517669253
1717.7599258886876 5491.656772062508
1718.4894306782444 5782.312220455837
1719.2187590875183 5204.7622189023
1719.9479111620203 5663.668923703971
1720.6768869472544 5289.922666847115
1721.4056864887025 5668.841613687889
1722.1343098318284 5663.255275102677
1722.8627570220742 5491.167777588391
1723.591028104871 5285.692471521614
1724.3191231256242 5220.955597609515
1725.0470421297232 5446.80810150262
1725.7747851625427 5568.011637860136
1726.5023522694337 5523.280951925235
1727.2297434957363 5394.483010064629
1727.9569588867635 5233.631806767981
1728.6839984878152 5468.494270928435
1729.4108623441734 5039.141866776756
1730.1375505011038 5362.476518602443
1730.8640630038426 5285.772537278817
1731.5903998976264 5121.215678518807
1732.316561227657 5282.523411062657
1733.0425470391274 5022.542759178364
1733.7683573772065 5293.386731838348
1734.4939922870508 5295.218226023008
1735.2194518137949 5309.8280735788785
1735.9447360025606 5189.398446443349
1736.669844898439 5146.0742834950815
1737.3947785465189 5099.211042708039
1738.1195369918605 4994.531664648978
1738.8441202795093 5201.871208311158
1739.5685284544943 5261.500597950785
1740.292761561821 5225.210889342537
1741.0168196464838 5168.710993275907
1741.7407027534518 5232.347270480206
1742.464410927687 5214.042889413113
1743.187944214118 5114.532936173424
1743.9113026576688 5061.999279257181
1744.634486303241 5251.757750756225
1745.3574951957125 5229.167601640214
1746.0803293799509 5268.459095789814
1746.8029889008048 5130.138487225785
1747.5254738031017 5272.454110398245
1748.2477841316504 5043.059861833258
1748.969919931249 5101.450342522932
1749.6918812466665 5043.910484502207
1750.4136681226646 5240.240788726011
1751.1352806039777 5061.127288480766
1751.856718735331 4765.410876799035
1752.5779825614281 4777.599951851105
1753.2990721269507 5176.455063764899
1754.0199874765676 5106.837195877045
1754.7407286549314 4775.883754029312
1755.4612957066693 4957.320363362076
1756.1816886763954 5003.5773599344775
1756.9019076087097 5086.868523109561
1757.6219525481865 5052.359875907946
1758.3418235393856 4981.985342725021
1759.061520626854 5026.200189706552
1759.7810438551096 5237.014545667676
1760.5003932686614 4772.960969783054
1761.2195689119999 5083.329334834757
1761.938570829594 5004.216004275446
1762.657399065898 5054.065233561245
1763.376053665348 4812.884623542384
1764.0945346723602 4667.672931016529
1764.812842131334 5108.688545592531
1765.5309760866512 4777.582305092469
1766.2489365826787 4829.968249506613
1766.9667236637597 4994.69690751314
1767.684337374223 4631.721195315052
1768.401777758383 4647.5938388056775
1769.1190448605284 4766.5434058923
1769.836138724937 4698.161995972002
1770.5530593958665 4983.433953631665
1771.2698069175603 5079.602026899685
1771.9863813342326 5047.924567000124
1772.702782690094 4852.020704473608
1773.4190110293293 5056.822177458981
1774.1350663961111 4961.026965596179
1774.8509488345844 4739.355291165704
1775.5666583888924 4807.620170978449
1776.2821951031437 5008.380294296985
1776.9975590214362 4846.289163222536
1777.7127501878585 4920.880233057671
1778.4277686464684 4786.760300432245
1779.1426144413108 4999.715360920681
1779.8572876164162 4962.290815013364
1780.571788215797 4716.381400056033
1781.2861162834415 4855.950190963403
1782.0002718633277 4681.406739105485
1782.7142549994132 4848.696918341355
1783.4280657356376 4807.3966815419635
1784.141704115922 4598.7426823736
1784.855170184177 4825.366059499784
1785.5684639842839 4757.127485989552
1786.2815855601148 4563.268147161811
1786.9945349555237 4907.966199976176
1787.707312214343 4649.296661152829
1788.4199173803918 5111.77293367376
1789.132350497468 4639.46625733622
1789.8446116093583 4586.440834745488
1790.556700759822 4609.226873395529
1791.2686179926077 4651.778748987414
1791.9803633514493 4759.676899570862
1792.6919368800554 4572.541792551384
1793.4033386221236 4775.962594983882
1794.1145686213295 4854.661120379119
1794.8256269213307 4995.621193633532
1795.536513565774 4700.280877265942
1796.247228598284 4507.610222813589
1796.9577720624693 4660.8450369036855
1797.6681440019165 4813.509445226226
1798.3783444602013 4636.556020524788
1799.0883734808776 4704.3701846825725
1799.7982311074884 4721.788266348666
1800.5079173835475 4770.284198166836
1801.2174323525633 4785.549271661291
1801.9267760580187 4647.781986413296
1802.635948543386 4640.172583618797
1803.3449498521113 4524.893884218903
1804.0537800276325 4770.969184618209
1804.7624391133668 4649.717758159275
1805.47092715271 4307.989501453351
1806.1792441890484 4488.207442029735
1806.8873902657433 4737.640146672019
1807.5953654261448 4645.508063594231
1808.3031697135812 4505.127472745948
1809.0108031713662 4443.510655439474
1809.71826584279 4633.784834503294
1810.425557771141 4632.672983394001
1811.1326789996747 5122.773191228514
1811.839629571632 4611.35629012955
1812.5464095302468 4563.61713766861
1813.2530189187182 4607.399785799106
1813.959457780249 4545.930837438338
1814.6657261580076 4662.196097305468
1815.371824095153 4584.798050236943
1816.0777516348262 4743.922669437046
1816.78350882015 4251.2097432432165
1817.4890956942272 4302.715684874828
1818.1945123001533 4467.39737291608
1818.8997586809928 4474.076951010595
1819.6048348798067 4428.830290267497
1820.3097409396287 4483.210295311908
1821.0144769034796 4894.789875491477
1821.7190428143622 4662.90205632398
1822.423438715261 4696.654181623635
1823.1276646491478 4490.836113978878
1823.8317206589727 4583.702981847166
1824.5356067876692 4503.365142754979
1825.2393230781581 4585.913776280772
1825.942869573335 4380.118060357782
1826.646246316086 4498.765441863956
1827.3494533492758 4636.000721584659
1828.052490715756 4622.815798461225
1828.7553584583547 4529.806072940505
1829.458056619891 4650.644916087842
1830.1605852431585 4397.932119297351
1830.8629443709433 4320.4095529395
1831.5651340460063 4478.954080738163
1832.2671543110919 4331.051174421752
1832.9690052089318 4624.36940590065
1833.6706867822395 4200.183360017888
1834.3721990737104 4544.366540228856
1835.0735421260233 4614.971215244068
1835.774715981841 4442.826000612246
1836.4757206838058 4605.904494727755
1837.1765562745459 4414.319482063206
1837.8772227966747 4421.446728313354
1838.5777202927839 4375.359451049716
1839.2780488054523 4501.722113465691
1839.9782083772352 4462.4583096790775
1840.6781990506806 4768.911562424243
1841.378020868313 4410.604289832975
1842.0776738726418 4451.247124866768
1842.777158106157 4367.8365271048415
1843.4764736113375 4255.454196879086
1844.1756204306403 4496.570968263269
1844.8745986065078 4444.120281770147
1845.5734081813607 4233.016348835306
1846.2720491976124 4204.00642737525
1846.970521697649 4189.44722634055
1847.6688257238511 4322.855982140465
1848.3669613185684 4372.706820916469
1849.0649285241452 4176.429483820988
1849.7627273829057 4435.196063777536
1850.460357937156 4496.755023263229
1851.1578202291857 4094.713191330754
1851.8551143012664 4424.000783496433
1852.5522401956569 4363.196107626313
1853.2491979545957 4562.480143196614
1853.9459876203055 4314.852112006704
1854.6426092349902 4265.084104155825
1855.3390628408451 4321.884349090134
1856.0353484800362 4581.055622671039
1856.7314661947203 4413.519220528829
1857.4274160270397 4221.6721804174385
1858.123198019115 4334.839299858354
1858.8188122130487 4081.243589351423
1859.5142586509319 4307.041345837525
1860.209537374838 4301.729962647411
1860.9046484268183 4305.035347050298
1861.599591848917 4570.458579055032
1862.294367683151 4281.963384446278
1862.988975971528 4198.139335157932
1863.6834167560355 4364.705031573694
1864.3776900786452 4433.963060765977
1865.0717959813119 4234.102923016515
1865.7657345059724 4162.174683708099
1866.4595056945564 4405.2212399406635
1867.1531095889586 4368.493915579278
1867.846546231076 4161.449901948797
1868.5398156627743 4577.814746221429
1869.2329179259123 4125.672013133769
1869.9258530623283 4435.880881215457
1870.618621113843 4137.083011023185
1871.3112221222636 4084.2726675365293
1872.0036561293764 4153.332507263437
1872.695923176956 4420.1680964279085
1873.3880233067594 4450.745221548996
1874.0799565605212 4117.83148012677
1874.7717229799673 4234.642674237944
1875.4633226068036 4479.555367635119
1876.1547554827175 4336.70587364726
1876.8460216493859 4213.957822012173
1877.5371211484617 4194.413646681179
1878.2280540215852 4432.1987024112395
1878.9188203103804 4052.4141776988736
1879.6094200564548 4239.857524466914
1880.299853301396 4189.039578914855
1880.9901200867826 4292.474544247924
1881.6802204541673 4293.90529946486
1882.3701544450942 4307.7091671666185
1883.059922101087 4054.7022112321183
1883.7495234636517 4462.4166101299825
1884.4389585742792 4054.083176899158
1885.1282274744517 4091.554306461426
1885.8173302056166 4675.624370662986
1886.506266809225 4235.307858391236
1887.195037326701 4014.9781669555696
1887.8836417994517 4159.840990020657
1888.5720802688702 4442.698525766789
1889.260352776333 4373.535577057626
1889.9484593632042 4410.036071818271
1890.63640007082 4088.22167683028
1891.3241749405151 3919.334525992924
1892.0117840135954 4202.637463741345
1892.6992273313572 4211.533408666632
1893.3865049350788 4093.636869200835
1894.0736168660223 4421.793646830351
1894.7605631654333 4157.74600373164
1895.4473438745408 3946.276664598818
1896.133959034556 4591.9307045821615
1896.820408686679 4252.804739626454
1897.506692872088 4388.05492594248
1898.192811631945 4213.5019666675635
1898.8787650073991 4112.917133830833
1899.5645530395832 4296.365722961199
1900.2501757696118 4279.34326135148
1900.9356332385796 4006.2552495442224
1901.620925487574 4583.395735651341
1902.3060525576602 4161.067182404346
1902.9910144898859 4223.24364681284
1903.6758113252872 4014.857148647922
1904.3604431048789 4293.13658924275
1905.0449098696663 4226.794256163912
1905.7292116606295 4081.8862262539456
1906.4133485187394 4273.605237495469
1907.0973204849488 3776.375288254812
1907.7811276001976 3958.8700863376057
1908.4647699053967 4148.0259076281645
1909.1482474414588 3572.600500988264
1909.8315602492694 3966.0927491393
1910.5147083696957 4352.735332147655
1911.1976918436012 3986.753085004964
1911.880510711815 4037.74795223323
1912.5631650151681 4248.886495998691
1913.2456547944657 3958.8915281899654
1913.927980090495 4071.4322015930097
1914.6101409440362 4132.455879343139
1915.2921373958416 4199.147594094274
1915.9739694866603 4014.6224672452204
1916.655637257214 4319.158300573388
1917.3371407482136 4133.614425041362
1918.0184800003572 4369.221049284017
1918.6996550543154 4200.906044522183
1919.3806659507554 4152.761313322983
1920.0615127303208 4027.295832325104
1920.7421954336423 4278.539154464348
1921.4227141013343 4303.168458832182
1922.103068773993 4006.067298851339
1922.783259492202 4223.115170992611
1923.4632862965227 4049.634032416098
1924.1431492275078 3989.765506483442
1924.8228483256917 3884.3596405741823
1925.5023836315922 3917.0286966024696
1926.1817551857057 3546.6888187601753
1926.8609630285227 4304.330777180436
1927.5400072005123 4149.05969777223
1928.218887742125 3811.260505176121
1928.8976046938005 3822.4464736258024
1929.5761580959588 4102.079010693188
1930.2545479890086 4048.415601398157
1930.9327744133352 3735.4563071251396
1931.6108374093164 3928.051189830094
1932.2887370173066 4291.605471263793
1932.9664732776473 3548.725987944951
1933.6440462306673 4055.016159923622
1934.3214559166754 3993.271394721841
1934.9987023759659 4274.730024127968
1935.675785648813 4143.736245818144
1936.3527057754836 3707.1569774862646
1937.029462796223 4337.49753723119
1937.70605675126 3719.8065606904106
1938.3824876808085 3655.4246364964756
1939.058755625072 3805.2446110445744
1939.7348606242267 3935.4447945891384
1940.4108027184448 3978.160991198735
1941.0865819478713 4056.3266034732032
1941.7621983526478 3815.1178434704316
1942.4376519728921 3784.0270317317313
1943.1129428487038 3943.610616000985
1943.7880710201734 4072.7429479465145
1944.4630365273733 4058.860505976757
1945.1378394103576 3739.8788943807763
1945.8124797091714 4289.620132065528
1946.4869574638324 3620.0766201387437
1947.161272714353 3783.6525784407663
1947.8354255007234 4016.9664409257784
1948.5094158629272 3864.9936389188615
1949.1832438409183 3999.062076902829
1949.8569094746435 4151.756753700724
1950.530412804037 4322.157373980581
1951.2037538690092 4096.125451552577
1951.8769327094578 3753.1371509171104
1952.5499493652678 3876.828050146719
1953.222803876306 4201.861808254353
1953.895496282421 4079.5427579668067
1954.5680266234522 4062.9820295957775
1955.2403949392155 3949.741736656522
1955.9126012695142 3727.9868785872322
1956.5846456541403 3869.8904054709556
1957.2565281328643 3795.257593497463
1957.9282487454457 3920.9487261660493
1958.5998075316202 4092.935790625812
1959.27120453112 3828.9177533454545
1959.9424397836501 3835.8808146296883
1960.613513328908 3839.965692406826
1961.2844252065697 4121.621717632655
1961.9551754563017 3701.716866639439
1962.6257641177453 3799.7178024413492
1963.29619123054 3627.3335969396744
1963.966456834296 3763.40947664888
1964.6365609686181 3565.844381819735
1965.306503673086 3805.1813940171837
1965.976284987275 3881.114696192885
1966.645904950734 3837.7318472648462
1967.315363603002 3572.255893008063
1967.9846609836077 3703.0362326689783
1968.6537971320486 3717.263602429072
1969.3227720878222 3836.993189183566
1969.9915858904042 3759.1834815373018
1970.660238579252 3903.7105606667405
1971.3287301938108 3798.5050944537456
1971.997060773514 3697.5259761682014
1972.665230357772 3601.8320644581227
1973.3332389859843 3721.31137394154
1974.0010866975335 3685.7087713613755
1974.6687735317864 3765.29257516211
1975.3362995280932 3767.5740261561646
1976.003664725793 3797.5154865297764
1976.6708691642052 3487.1628689542317
1977.3379128826364 3654.7053988805283
1978.004795920373 4025.3388372495333
1978.6715183166925 4179.069741030158
1979.3380801108524 3424.8790180369424
1980.0044813420973 3714.177572584778
1980.6707220496555 3347.3347926535084
1981.3368022727373 3691.370527626904
1982.0027220505417 3917.2939298244833
1982.66848142225 3290.4895785351337
1983.3340804270283 3412.819323687646
1983.999519104027 3697.9190475247983
1984.6647974923835 3908.380076580916
1985.329915631215 3851.028981962039
1985.99487355963 3649.6659217464453
1986.6596713167146 3975.106722526069
1987.3243089415428 3617.0245738546923
1987.9887864731754 3818.748663066096
1988.6531039506553 3543.50380169196
1989.3172614130071 4092.871219468959
1989.9812588992481 3509.1919215576117
1990.645096448372 3331.227403663518
1991.3087740993633 3604.6029118774873
1991.9722918911848 3678.8675902367067
1992.635649862792 3706.6484934712353
1993.2988480531185 3741.6643457063265
1993.9618865010852 4114.323834140742
1994.6247652455968 3627.1433113666776
1995.287484325545 3596.4552284349943
1995.9500437798033 3574.0326642157333
1996.6124436472292 3582.328878400641
1997.2746839666706 3866.7086327640777
1997.936764776954 3518.3257021572767
1998.598686116895 3623.995412819874
1999.2604480252903 3964.747686384163
1999.9220505409212 3798.792926697022
2000.5834937025593 3448.22038987954
2001.2447775489582 3677.13141266583
2001.9059021188514 3769.1892014346813
2002.5668674509616 3565.1765719226632
2003.2276735839987 3603.0098988466743
2003.8883205566508 3902.945125829044
2004.5488084075987 3532.5838560803154
2005.2091371755014 3583.603466308539
2005.8693068990033 3366.857222364073
2006.5293176167397 3770.3313584388898
2007.1891693673224 3476.242195211437
2007.848862189354 3348.9509842902235
2008.5083961214223 3585.2067195326026
2009.1677712020955 3398.000415934873
2009.8269874699254 3446.9027905541216
2010.4860449634598 3386.161931494588
2011.1449437212177 3325.46146467914
2011.8036837817108 3811.972915946775
2012.4622651834325 3688.743001467491
2013.1206879648653 3660.7009755146164
2013.7789521644736 3889.902007900431
2014.4370578207036 3319.600713327539
2015.0950049719922 3683.7614867469065
2015.7527936567585 3610.1641929251514
2016.4104239134067 3596.4348333556045
2017.067895780323 4134.695288937506
2017.725209295886 4030.861967947646
2018.3823644984514 3926.6413717256864
2019.0393614263648 3722.7472715561844
2019.6962001179545 3574.6213181790845
2020.3528806115355 3681.693278024419
2021.0094029454067 3705.889812243799
2021.6657671578487 3405.559700087263
2022.321973287133 3569.7219672936835
2022.9780213715148 3473.1875098090813
2023.6339114492293 3635.069053373559
2024.2896435585026 3517.265901571608
2024.9452177375442 3417.5580951895317
2025.600634024544 3837.2207572040293
2026.2558924576842 3519.843752161524
2026.9109930751292 3935.835882413002
2027.565935915025 3382.4639062608976
2028.2207210155066 3869.0617981136047
2028.8753484146964 3911.482531709303
2029.529818150695 3290.7097996962343
2030.1841302615903 3764.9497568765787
2030.8382847854573 3528.1331589829524
2031.4922817603601 3556.0621510829674
2032.1461212243357 3423.7319132056027
2032.7998032154192 3209.496175984064
2033.4533277716218 3480.670498939493
2034.1066949309443 3290.527017181144
2034.7599047313688 3248.2060770237877
2035.4129572108704 3611.7040206243555
2036.0658524074006 3513.10549344274
2036.7185903589016 3586.3327077508243
2037.3711711032956 3688.5193516398604
2038.023594678496 3615.6189973492365
2038.675861122394 3340.7020053183014
2039.3279704728757 3876.506462389082
2039.9799227678031 3264.1376209600485
2040.6317180450278 3411.296015420851
2041.2833563423865 3440.1116163222846
2041.9348376977014 3867.027457811815
2042.5861621487784 3708.1633284202194
2043.2373297334088 3669.029212607939
2043.8883404893695 3554.7295359657896
2044.5391944544208 3583.926283848438
2045.1898916663158 3701.1264854124793
2045.8404321627804 3890.8880133712673
2046.4908159815368 3413.3368410059784
2047.1410431602853 3220.53661687536
2047.7911137367173 3408.383762825407
2048.441027748504 3735.308063887735
2049.090785233302 3390.3667118644016
2049.7403862287592 3437.902346381946
2050.389830772503 3744.913972389837
2051.0391189021466 3135.544974676482
2051.688250655294 3646.437054793683
2052.337226069527 3131.228878491648
2052.986045182417 3595.9562408006473
2053.634708031521 2963.4114729514376
2054.283214654375 3516.0127126280304
2054.931565088511 3006.822200518217
2055.579759371436 3132.540320748168
2056.2277975406523 3626.7747184728687
2056.8756796336384 3584.1991131677687
2057.5234056878617 2987.680007029081
2058.1709757407752 3307.2443629926406
2058.8183898298194 3724.008630017397
2059.465647992416 3651.171833151492
2060.1127502659747 3626.7508466529302
2060.759696687888 3326.8375248681323
2061.4064872955405 3504.00833698172
2062.053122126292 3765.24145353316
2062.699601217497 2910.091375415498
2063.345924606485 3291.930195993807
2063.992092330587 3572.1007304791624
2064.638104427102 3259.10780340367
2065.283960933324 3547.65878437
2065.92966188653 3471.914098886641
2066.5752073239855 3689.289608789247
2067.2205972829397 3238.466784403575
2067.86583180062 3518.525603640092
2068.5109109142522 3512.158723097205
2069.15583466104 3938.3764085791736
2069.8006030781708 3196.5547146783492
2070.445216202821 3244.7433742553144
2071.089674072153 3484.4468106265876
2071.7339767233116 3621.7350199354905
2072.3781241934303 3392.9437063930077
2073.0221165196253 3565.8037932218676
2073.6659537390024 3341.5243456529597
2074.3096358886505 3383.3798302494833
2074.953163005637 3391.1163086273345
2075.596535127028 3170.132258609786
2076.2397522898664 3136.67316199074
2076.882814531182 3384.990086690969
2077.5257218879924 3411.2372106910634
2078.1684743973 3336.5534127530664
2078.8110720960885 3079.234581208334
2079.453515021336 3806.8811023685375
2080.095803209997 3427.5599930071235
2080.7379366990135 3389.1641110522637
2081.37991552532 3563.4425326125593
2082.0217397258275 3393.7447113568696
2082.6634093374414 3083.441700422086
2083.3049243970418 3335.1531873538297
2083.9462849415067 3507.8426283926287
2084.587491007689 3591.057094972634
2085.2285426324324 3293.6825040170384
2085.869439852564 3453.5856370236493
2086.510182704902 3250.7322385695957
2087.1507712262483 3419.0929333451654
2087.791205453381 3161.356939362602
2088.4314854230743 3445.7361244996864
2089.0716111720867 3470.6066520088452
2089.7115827371617 3073.976418321185
2090.351400155023 3130.679123888139
2090.991063462385 3187.641692580247
2091.6305726959527 3010.235991896374
2092.2699278924047 3417.830296836747
2092.9091290884153 3198.5679353041987
2093.548176320641 3073.536242034907
2094.187069625721 3503.7876055004213
2094.8258090402887 3131.799166244968
2095.464394600951 3431.786718849746
2096.102826344313 3263.0821489360046
2096.741104306955 3503.9969287370586
2097.379228525453 3118.640279198801
2098.017199036358 2963.171402757481
2098.6550158762147 3595.822781703065
2099.2926790815527 3318.9368124157163
2099.9301886888825 3362.6752772967093
2100.5675447347076 3404.0961604945505
2101.2047472555114 3348.5200744516997
2101.841796287761 3206.3309619362058
2102.47869186792 3372.2691072777316
2103.1154340324265 3223.9139243848244
2103.752022817709 3135.889338521883
2104.388458260184 3245.2504710776375
2105.024740396251 3288.16909801922
2105.660869262292 3214.3368108126842
2106.296844894685 3522.511350305364
2106.93266732978 3375.9917534089122
2107.5683366039284 3095.1520860445735
2108.2038527534532 3361.379504961121
2108.8392158146726 3477.1427461551916
2109.4744258238843 3193.1935844309432
2110.1094828173755 3279.0737277594635
2110.744386831422 3804.873585073462
2111.3791379022787 3265.929034634437
2112.01373606619 3510.5874651543154
2112.648181359389 3313.280985230871
2113.28247381809 3271.590289975112
2113.916613478492 3502.458560896165
2114.550600376786 3467.8852246866386
2115.1844345491445 3262.892741432297
2115.818116031729 3092.5229373923185
2116.451644860679 3294.280323970709
2117.085021072133 2950.108984263306
2117.718244702204 3143.2578153160134
2118.3513157869984 3127.7508182078027
2118.984234362604 2964.1605597439243
2119.617000465092 3128.0496640776564
2120.249614130529 3603.1129471644504
2120.8820753949585 3310.6575014234913
2121.5143842944162 3167.452017874614
2122.14654086492 3155.5466028516307
2122.7785451424734 3550.6053182489172
2123.4103971630702 2853.435635005738
2124.042096962681 3266.99706295594
2124.6736445772767 3329.231685275041
2125.305040042802 2962.0936479281127
2125.936283395191 3329.644981472982
2126.567374670365 3270.8668022846023
2127.198313904233 3209.162059668652
2127.8291011326855 3095.435033691665
2128.4597363916037 2981.1022234496463
2129.0902197168507 3243.555080525383
2129.720551144279 2881.5273666109856
2130.3507307097225 3563.407688230832
2130.980758449008 3467.2666372584404
2131.6106343979427 3158.888379188901
2132.2403585923203 3517.322352158785
2132.8699310679276 3435.4716086951266
2133.499351860526 3445.8733804474323
2134.1286210058715 2965.3686378887196
2134.7577385397053 2889.4038414746624
2135.3867044977487 3630.0742703720725
2136.0155189157176 3644.844103345307
2136.644181829308 3363.112919331367
2137.2726932742025 3242.829624938008
2137.901053286074 3631.6950004480314
2138.5292619005777 2926.8629213083864
2139.1573191533535 3027.41999060834
2139.7852250800315 3377.187528469008
2140.4129797162295 3143.6926937784237
2141.0405830975433 2997.995358055282
2141.6680352595613 2989.4992957499703
2142.2953362378576 2981.0209708838292
2142.9224860679915 3140.582329487683
2143.549484785508 3132.2735690392724
2144.1763324259373 3182.157020593454
2144.803029024799 3145.886577200595
2145.429574617594 3043.4478649901203
2146.0559692398165 3304.8907933545524
2146.682212926942 2977.116207016934
2147.308305714432 3305.757538680655
2147.9342476377333 3433.6800425112897
2148.5600387322847 3570.5748269647024
2149.185679033506 3391.9256193569177
2149.8111685768017 3080.7451495794044
2150.4365073975678 2867.582753550765
2151.061695531187 3056.3947765059916
2151.686733013021 3376.1452635119554
2152.311619878423 3253.0232394815066
2152.9363561627342 3013.1996591678376
2153.560941901278 3048.267355661904
2154.1853771293663 3258.8468557374326
2154.809661882293 3174.169148430219
2155.433796195348 3551.345018157932
2156.0577801037944 2757.7618197862535
2156.681613642895 3304.117917165708
2157.3052968478896 2949.095663941759
2157.928829754006 3327.1730850722997
2158.552212396462 3389.0017670873763
2159.1754448104566 3335.2241981090165
2159.7985270311783 2926.0840541732014
2160.4214590938027 2726.9074028346013
2161.0442410334927 2692.881712288058
2161.6668728853874 3258.271386447482
2162.289354684628 2897.9673442986973
2162.911686466332 2930.373864058106
2163.533868265602 3327.9753839100076
2164.1559001175337 3640.6096543543194
2164.7777820572046 3190.8773374520306
2165.399514119681 3286.8524077597467
2166.021096340013 2982.7886819658424
2166.6425287532384 3414.237252900836
2167.263811394385 3039.764465464784
2167.8849442984574 3185.893797440763
2168.505927500455 3083.5931458166947
2169.126761035366 3234.6560550481827
2169.7474449381552 3105.384812364413
2170.367979243778 2705.0880167127475
2170.9883639871823 3373.256207648118
2171.608599203293 3032.7578915749355
2172.2286849270276 3574.397249326671
2172.8486211932886 3609.4219530495902
2173.4684080369625 3196.4049649818908
2174.0880454929265 2746.5989737625514
2174.7075335960417 2744.7344243011767
2175.3268723811543 3249.4161800845413
2175.9460618831 2876.109967863996
2176.565102136701 3131.7452629222507
2177.1839931767627 3623.1206336415685
2177.802735038078 3137.362986618192
2178.421327755432 2901.9090453871677
2179.0397713635866 2912.3772895537995
2179.658065897298 3078.9224319650607
2180.276211391305 2851.5209367518464
2180.8942078803357 3103.725833847268
2181.5120553991 3116.628583882796
2182.129753982299 2827.7838605515594
2182.7473036646206 2920.8904756032366
2183.3647044807367 3175.5542585598805
2183.9819564653044 2865.810574448353
2184.599059652968 3107.761589760262
2185.216014078367 3189.8332104163574
2185.832819776113 3203.8344260376734
2186.4494767808137 3217.685561568864
2187.065985127063 3014.05430471136
2187.682344849436 2836.8103825984963
2188.298555982501 3297.6709875421266
2188.9146185608097 3009.971791834197
2189.530532618901 3284.0391598076662
2190.1462981912937 3195.6181159340294
2190.761915312507 3323.468652791392
2191.377384017036 3041.8162974662355
2191.9927043393654 3085.537466912073
2192.6078763139667 2687.442723131204
2193.2228999753006 2897.025563380074
2193.837775357808 3107.082666109335
2194.452502495922 2591.62306743102
2195.0670814240602 3239.444743462261
2195.6815121766285 2749.0845223312103
2196.2957947880186 2707.2428839684785
2196.9099292926057 2665.326202173265
2197.523915724758 3174.208171493751
2198.137754118825 3042.6478487332015
2198.7514445091456 3425.050691804949
2199.3649869300443 2805.241836749172
2199.9783814158327 3301.800299975018
2200.5916280008096 3451.0799053524665
2201.2047267192593 3465.076739160696
2201.8176776054515 2928.618579780819
2202.430480693649 2747.6798769668894
2203.0431360180955 3096.0188881471036
2203.6556436130195 2835.589430191026
2204.268003512645 2574.5591189701654
2204.8802157511727 2970.4234182050855
2205.492280362796 3522.7191492109678
2206.1041973816937 3092.49098900402
2206.715966842032 3066.1872129080193
2207.3275887779655 3149.1698541532132
2207.93906322363 3125.2174970311144
2208.550390213153 3202.105305160518
2209.1615697806465 3154.621121936205
2209.7726019602105 2883.7481047283604
2210.3834867859277 2674.066275666669
2210.9942242918787 2997.491243024719
2211.6048145121167 3104.819643839166
2212.2152574806914 3746.3042540804877
2212.825553231638 3756.3906733572467
2213.435701798975 3766.73025382704
2214.045703216707 3103.767515351022
2214.655557518832 2589.0639745455505
2215.2652647393297 2615.4770812993575
2215.874824912169 2496.14544202625
2216.4842380713 3063.099181286847
2217.09350425067 2830.738542279862
2217.7026234842033 3189.004275604721
2218.311595805819 3278.585845785965
2218.9204212494133 2778.4985955104594
2219.52909984888 3250.5479411039205
2220.137631638092 3259.0209708992925
2220.7460166509154 3267.30493222026
2221.354254921198 2824.505071376423
2221.9623464827764 3207.463921508411
2222.5702913694713 3075.4041885112624
2223.178089615096 3262.3108833417054
2223.7857412534486 3022.1263556896765
2224.39324631831 2561.0749322038755
2225.000604843457 2830.122504014179
2225.607816862641 3232.283442133027
2226.214882409611 3117.8933416201894
2226.8218015180973 3205.456109356613
2227.4285742218217 3065.832899025118
2228.0352005544864 2944.6567939830375
2228.6416805497847 2653.801187479672
2229.248014241399 2888.4282933965474
2229.8542016629945 2694.2816044267197
2230.460242848223 3067.0061291129464
2231.0661378307304 3495.383700570881
2231.671886644139 2799.126477050203
2232.277489322065 2585.8600776394137
2232.8829458981127 2405.794552318287
2233.48825640587 2849.576847865341
2234.0934208789095 3526.859526772137
2234.6984393507955 3181.0894204305314
2235.3033118550793 3139.5753906329755
2235.9080384252975 2807.8267301804667
2236.5126190949723 2693.198777344081
2237.1170538976166 2831.222987820602
2237.721342866729 2362.7111772797025
2238.32548603579 2854.8798031343035
2238.9294834382763 2997.7846937217787
2239.533335107646 2844.798948832463
2240.1370410773434 2971.715466719884
2240.740601380803 2787.5988080586853
2241.3440160514474 2992.5552443518386
2241.9472851226783 3325.817235449153
2242.550408627896 2994.5205984517356
2243.1533866004793 3331.390176305391
2243.756219073799 2970.161037562058
2244.3589060812064 2863.586173299949
2244.961447656049 2746.5331616210506
2245.5638438316564 2917.5572319962716
2246.166094641343 2904.042899468095
2246.7682001184166 2797.2781869013234
2247.3701602961664 2825.2441705765623
2247.971975207871 3043.2004807850167
2248.5736448867974 3156.06786334118
2249.175169366197 2779.901862798418
2249.7765486793123 2855.242507338573
2250.3777828593684 2860.5239689528626
2250.9788719395783 2846.2484410921397
2251.579815953146 2869.074091424593
2252.1806149332606 2654.531880146315
2252.781268913097 2924.9292945546617
2253.381777925817 2714.53624374817
2253.9821420045737 2989.7633214983775
2254.5823611825035 2963.209083226876
2255.1824354927303 2906.7447246854886
2255.782364968365 2681.779692002763
2256.38214964251 2456.586856707751
2256.9817895482483 2585.915537627751
2257.5812847186553 2742.5507551775922
2258.180635186791 2599.039796894651
2258.779840985704 2864.388290546055
2259.37890214843 2803.67669217735
2259.97781870799 3450.8940210369424
2260.5765906973957 3025.8017471043727
2261.175218149645 2989.2730074711435
2261.773701097718 3031.1697717346033
2262.3720395745895 2543.9707593393405
2262.970233613216 2670.112848666541
2263.568283246548 2584.3791536216895
2264.1661885075137 2640.8401509782266
2264.763949429038 2613.90383387935
2265.3615660440246 3265.1402138136045
2265.959038385374 2540.1035539245213
2266.5563664859637 3137.5893848807186
2267.153550378669 2633.6271189974086
2267.7505900963424 3022.413454940645
2268.3474856718312 2754.0108697732144
2268.9442371379664 2837.52083547912
2269.5408445275643 2672.541115459989
2270.1373078734377 2713.580473014804
2270.7336272083758 2647.6385985622474
2271.32980256516 2524.8768242181986
2271.925833976562 3073.1842817377733
2272.5217214753357 3002.6417169912957
2273.117465094223 2824.3828177567107
2273.7130648659586 2627.2885685311608
2274.308520823257 2632.933354277882
2274.903832998827 2874.268639898762
2275.4990014253563 2428.347834993868
2276.094026135528 2429.882383082578
2276.6889071620117 2431.336173656867
2277.2836445374614 2767.4248497708722
2277.878238294519 2540.668947444271
2278.472688465812 2512.432115343788
2279.066995083962 2484.0681887466644
2279.6611581815705 2785.205238451408
2280.255177791232 3076.7518372867307
2280.8490539455233 2713.392892708758
2281.442786677013 3026.6329098910455
2282.0363760182554 3002.9742733778653
2282.6298220017943 2616.5585334859925
2283.223124660155 2935.847910712842
2283.816284025859 2561.3566786387255
2284.4093001314086 2967.5078233747167
2285.002173009292 2548.554823096475
2285.5949026919952 3044.9861905064795
2286.1874892119777 2926.180191569055
2286.7799326016993 2904.3189945788063
2287.3722328936 2360.4356063759715
2287.964390120109 2331.291162119259
2288.556404313642 2804.2313461507324
2289.1482755066027 3321.9533868193053
2289.7400037313873 2718.9687214449013
2290.3315890203703 2534.8436528147945
2290.9230314059205 2998.140237112616
2291.5143309203904 2580.0605861422546
2292.1054875961236 2707.328817443219
2292.6965014654506 3034.5595624757634
2293.287372560684 2752.19730364394
2293.878100914131 2624.942572808433
2294.468686558086 2497.5006016654856
2295.059129524827 2735.6669960149693
2295.649429846617 2659.841423226857
2296.239587555716 2583.7759166845412
2296.8296026843636 2672.568530784637
2297.419475264791 2683.1240644100176
2298.0092053292137 2693.5327543760955
2298.598792909839 3122.985480733663
2299.1882380388597 2782.733672592892
2299.777540748455 3185.285310775
2300.3667010707904 3018.973646650574
2300.9557190380256 2924.482247134039
2301.544594682302 3203.7763819361717
2302.1333280357503 3099.4752108873395
2302.721919130485 2995.117023434077
2303.3103679986198 3308.8741577626433
2303.898674672242 2994.2227212385337
2304.486839183437 2392.8014733735718
2305.0748615642697 2725.4948438465167
2305.6627418468015 2687.9950819502637
2306.2504800630704 2657.0600374696432
2306.8380762451143 2580.8532674263706
2307.425530424949 2719.013512563148
2308.012842634582 2857.4696898888765
2308.6000129060103 3144.6994512252554
2309.187041271214 3513.8227227982743
2309.773927762164 3288.56148360012
2310.3606724108213 3062.856815732257
2310.9472752491274 2505.7151470342337
2311.5337363090184 2832.027952904248
2312.120055622414 2642.6883842569714
2312.706233221221 2645.9875563289547
2313.2922691373424 2398.5728122121427
2313.8781634026564 2508.9721757533775
2314.463916049037 2619.6027594977513
2315.049527108342 2718.126006292321
2315.6349966124235 3055.5610873073265
2316.2203245931123 3100.3221472065793
2316.8055110822315 2493.271334097841
2317.3905561115935 2687.7042882919345
2317.9754597129977 2563.3470479372745
2318.560221918229 2981.8219635198006
2319.1448427590603 2645.4187697708867
2319.729322267256 2356.461863981543
2320.313660474563 2616.9411263426955
2320.8978574127195 2737.6340812726094
2321.481913113452 2858.7830173270413
2322.0658276084705 2612.4977946037166
2322.6496009294806 2657.966282443206
2323.233233108165 2830.7363605567366
2323.8167241762058 2601.825647381276
2324.4000741652617 2602.027069467356
2324.983283106987 2880.9198539304534
2325.5663510330232 3103.0517092385285
2326.1492779749933 2496.8918828290107
2326.7320639645204 3062.2368163474785
2327.3147090332004 2285.470303982425
2327.897213212629 2484.6358386264756
2328.4795765343843 2683.886489858334
2329.0617990300307 2423.5560161319845
2329.643880731124 3045.7774602159925
2330.22582166921 2575.659730762128
2330.807621875816 2406.531383222982
2331.3892813824623 2237.3377422013773
2331.9708002206517 2336.091299195747
2332.5521784218818 2946.38762332608
2333.133416017634 2798.112241379889
2333.7145130393765 2559.4021272360105
2334.295469518571 3064.755865854987
2334.876285486658 2984.528686671644
2335.456960975076 3116.7476678619823
2336.037496015242 3249.3161789519286
2336.6178906385667 2659.20796343623
2337.198144876451 2681.1608966649837
2337.778258760278 2739.203294677397
2338.3582323214214 2828.285550102881
2338.938065591243 2917.5038439835234
2339.517758601087 3113.551589980822
2340.0973113822965 2760.229577127739
2340.676723966193 2623.398398600089
2341.255996384094 2727.959083347474
2341.835128667295 2946.790981310481
2342.4141208470883 2878.8470532818983
2342.992972954751 2725.908569158169
2343.5716850215467 2765.075074390499
2344.1502570787306 1946.934858102777
2344.7286891575386 2228.4185954514833
2345.3069812892045 2474.623012101863
2345.885133504944 2721.0544970697097
2346.4631458359618 2545.420688736328
2347.04101831345 2407.7188774059714
2347.6187509685915 2648.0717706857113
2348.196343832553 2532.791941331286
2348.7737969364935 2796.164118949589
2349.351110311558 2492.2566973928256
2349.9282839888765 2490.4021538643046
2350.5053179995757 2317.253808116891
2351.0822123747585 2266.494165037171
2351.658967145526 2273.5871115504624
2352.2355823429643 2280.824892273453
2352.812057998144 2665.5087920362644
2353.3883941421263 2645.281423628187
2353.9645908059647 2765.806381992913
2354.540648020693 2643.769843397443
2355.116565817336 2320.63998353016
2355.6923442269126 2681.3291721244996
2356.2679832804224 2678.9758564345966
2356.8434830088518 2540.4090389218354
2357.41884344318 2252.780191424298
2357.994064614377 2289.5543414442013
