#exp_cfg={"servo_angle": 0.0, "laser_lim": 100.0, "servo_angle_to": 18.0, "laser_wup": 0.0, "bt_dev": "EnSpectr-25AE3", "laser_wdn_max": 0.0, "frames": 10.0, "servo_used": 0, "servo_calib_use": 0, "laser_wdn_min": 0.0, "servo_pix_from": 90.0, "cooler_tout": 300.0, "servo_angle_from": 0.0, "servo_calib": "[-1.9174921013161362e-09, 3.9322238269163779e-05, -0.27385609119055809, 653.59552119713567]", "laser_autoctl": 0, "servo_pix_to": 3682.0, "laser_pw": 100.0, "cooler_on": 0, "laser_volt": 4.0, "cooler_autoctl": 0, "cooler_curr": 70.0, "cooler_startup": 10.0, "laser_fixed_pw": 0, "gain": 1.3, "offset": 2.53059635486, "servo_calib_degree": 3.0, "laser_curr": 55.0, "shutter": 8200.0, "servo_calib_step": 1.0, "laser_fixed_curr": 0, "exp": 2000.0, "ccd_volt": 4.7, "bt_addr": "00:06:66:62:5A:E3", "servo_delay": 500.0, "laser_autooff": 1}
#proc_cfg={"flat_auto_wnd": 200.0, "flat_auto_fr": 200.0, "flat_auto_shift": 5.0, "yconv": 1, "flatten": 1, "flatten_strength": 100.0, "xfrom": 300.0, "auto_max_frame": 2000.0, "auto_signal": 48000.0, "flat_auto_tol": 0.1, "autoclip": 1, "xrel_range": 0.0, "flat_auto_to": 4000.0, "intensity_adj": 1.0, "xrel": 7852.0, "rmhot": 1, "flat_auto_slit": 4.999999999999997, "auto_ini_exp": 300.0, "auto_off": 0, "xto": 2860.0, "flat_auto_ref": "", "flat_auto_rank": 1, "autobackg": 0, "xrel_adj": 0.0, "auto_black_lvl": 1, "base_wnd": 100.0, "sub_baseline": 0, "xconv": 2, "auto_max_exp": 1000.0, "auto_total_exp": 10000.0, "auto_exp": 0, "rmripple": 0, "black_lvl": 8284.0875, "shutter_clip_adj": 0.0, "auto_bckg": 0, "flat_auto_thr": 0.9, "subbackg": 1}
316.8218498245369 23827.412388390287
317.89969571804795 23804.429053930267
318.977263876126 23798.270900809344
320.05455438786703 23603.1465338754
321.1315673423287 23556.246424928755
322.2083028285215 23593.33725398845
323.2847609354267 23479.705173550734
324.3609417519747 23427.816771359492
325.43684536705587 23290.74676690775
326.5124718695279 23264.712952886068
327.58782134820103 23143.2965783843
328.66289389184385 23244.108494918495
329.7376895891921 23073.548217678006
330.8122085289342 22968.119417236296
331.88645079971866 23052.813819543015
332.9604164901575 22872.296696720245
334.03410568881554 22817.621824892212
335.1075184842266 23017.657794350063
336.18065496487543 22740.399417343877
337.2535152192122 22800.638136348185
338.32609933564163 22720.534156991558
339.39840740253203 22644.83204920873
340.4704395082099 22658.106614574684
341.5421957409617 22473.12836624791
342.6136761890357 22652.28842933407
343.6848809406365 22500.243489208933
344.75581008392874 22389.025218515555
345.82646370703696 22359.615709096302
346.8968418980512 22306.987257899586
347.96694474501055 22391.73022107953
349.0367723359268 22345.53515663801
350.106324758759 22201.20529120773
351.1756021014353 22222.133707940935
352.2446044518383 22052.991401462936
353.31333189781435 22202.078126987566
354.38178452716966 22054.55555409396
355.449962427665 22040.874740224124
356.51786568702846 21932.662472272954
357.58549439294256 22069.69929899137
358.6528486330535 21992.39947249792
359.71992849496564 21905.44786771051
360.7867340662433 21926.587647893062
361.8532654344144 21904.470583252543
362.9195226869597 21952.560063347464
363.9855059113288 21841.83921970272
365.05121519492604 21675.389752075163
366.11665062511565 21814.53354821998
367.1818122892273 21831.882136183653
368.2467002745434 21827.17961578632
369.31131466831175 21838.912246081574
370.375655557742 21816.78949875898
371.4397230299983 21851.373115170994
372.5035171722102 21737.31585899382
373.5670380714637 21660.404226592575
374.6302858148101 21882.922651542314
375.6932604892554 21715.912195205477
376.7559621817709 21737.635989070768
377.81839097928605 21564.06806438974
378.8805469686886 21622.13950873652
379.94243023683157 21485.59806221008
381.0040408705263 21537.729128260646
382.0653789565458 21391.479604223765
383.1264445816196 21517.23850865703
384.1872378324406 21456.02249186337
385.2477587956637 21514.20309576032
386.3080075579037 21275.18624106898
387.3679842057336 21198.35585096875
388.4276888256918 21226.588154508943
389.48712150426945 21086.484802594867
390.54628232792857 21122.903454164225
391.6051713830857 21133.349431669376
392.66378875611736 21078.23303584508
393.7221345333637 21101.229897967693
394.7802088011249 20944.19108218053
395.838011645661 20894.230211870236
396.89554315319765 20799.249583783723
397.9528034099112 20733.29557047543
399.00979250194723 20652.071492741663
400.06651051541485 20650.023709336372
401.1229575363741 20712.82493297689
402.17913365085224 20564.828300810477
403.23503894483656 20611.52494279474
404.2906735042761 20428.712432867404
405.3460374150818 20357.374535558458
406.401130763119 20435.597947241455
407.455953634224 20384.50752078497
408.5105061141876 20371.430898334373
409.56478828876243 20184.59270953749
410.6188002436629 20110.786476466255
411.6725420645689 20136.31701309802
412.72601383711117 20117.621633997107
413.77921564689314 20226.03003837278
414.8321475794728 19988.043113417974
415.88480972036814 19884.742770173274
416.93720215506437 19976.87826156422
417.9893249690049 19819.56615204653
419.04117824759123 19810.61266705133
420.09276207619223 19692.574213873013
421.144076540133 19816.9849393973
422.1951217247042 19723.218101691367
423.24589771515275 19755.04969608564
424.2964045966928 19602.528155673044
425.34664245449494 19610.673373531492
426.3966113736933 19489.65014550952
427.4463114393875 19447.298644716422
428.49574273662984 19469.030395985235
429.5449053504417 19353.341856975392
430.5937993658026 19410.14739724706
431.6424248676558 19359.092426466977
432.6907819409007 19302.530692634427
433.73887067040596 19404.847017981505
434.7866911409965 19287.116767834505
435.8342434374608 19262.85141438761
436.88152764455117 19176.1339992451
437.9285438469724 19113.979071026457
438.9752921294057 19095.50343981146
440.02177257648145 19061.04059333138
441.06798527279716 18914.642030685038
442.1139303029122 19091.971958368402
443.1596077513459 19011.22481343017
444.2050177025794 19079.807029638483
445.25016024105753 19087.383094244364
446.2950354511886 18982.08733363371
447.33964341733736 18851.794006948934
448.383984223834 18797.744572542808
449.4280579549686 18754.9426159965
450.471864694995 18869.69550169741
451.5154045281306 18765.696108349635
452.5586775385509 18823.558440756948
453.60168381039693 18724.82518173429
454.64442342776783 18917.58474906481
455.6868964747264 18721.278967473838
456.7291030353008 18652.259391341806
457.77104319347563 18798.50075012718
458.8127170332027 18715.519717716077
459.854124638392 18645.832699455048
460.895266092919 18758.305919949642
461.93614148061897 18779.139639749377
462.97675088529104 18819.76580650727
464.01709439069236 18729.287037105853
465.0571720805492 18716.113907573043
466.0969840385442 18714.779102207238
467.1365303483253 18906.174660220215
468.17581109350067 18715.69233898228
469.2148263576437 18667.93576814028
470.2535762242878 18677.243590696668
471.29206077693016 18788.019570555625
472.33028009902773 18837.09525101811
473.3682342740012 18836.872769222966
474.40592338523857 18860.188955866863
475.4433475160804 18916.981053506992
476.4805067498364 18782.3370597158
477.51740116978 18859.34065026369
478.5540308591426 18891.692024478532
479.59039590112116 19048.699565928928
480.6264963788726 19037.966528580953
481.6623323755193 19270.39579938708
482.6979039741436 19256.073834781015
483.7332112577915 19481.52679784115
484.76825430947247 19694.272552312577
485.80303321215797 19661.064259564766
486.837548048783 19802.682698968718
487.8717989022425 19971.281462998923
488.90578585539697 19939.5409234456
489.9395089910686 20089.601673892168
490.97296839203955 19870.862237607726
492.00616414106116 19869.177036862
493.0390963208429 19711.380630298518
494.0717650140559 19648.094248880523
495.10417030333883 19593.804467647416
496.1363122712901 19526.986440098513
497.16819100046814 19203.904424745335
498.1998065734024 19135.236115839078
499.2311590725767 18866.03653722842
500.26224858044407 18791.589573082467
501.2930751794156 18616.885777473566
502.3236389518679 18505.56620212615
503.35393998014115 18306.22715774356
504.38397834653733 18332.06740561619
505.4137541333221 18316.298650210567
506.4432674227228 18083.277372841672
507.4725182969323 18005.25604732367
508.5015068381035 17980.75113845265
509.53023312835467 17874.529628614888
510.55869724976765 17947.700364542234
511.58689928438434 17768.906058180633
512.6148393142121 17734.952187031035
513.6425174212218 17839.379982627237
514.6699336873462 17833.111645382065
515.6970881944835 17797.914331591135
516.7239810244901 17774.492286920555
517.7506122591931 17728.44561011227
518.7769819803761 17809.85694767767
519.8030902697901 17863.36153435802
520.8289372091476 17699.722707876605
521.8545228801249 17881.632772645877
522.8798473643619 17743.86541692728
523.9049107434621 17719.785991862307
524.9297130989908 17744.48667820263
525.9542545124805 17720.047856663874
526.9785350654201 17700.659332727657
528.0025548392696 17626.950071333344
529.0263139154504 17514.88165567231
530.0498123753423 17600.747504525974
531.073050300296 17554.287436895494
532.0960277716204 17409.172721001938
533.1187448705896 17371.034272046734
534.1412016784416 17392.3561625637
535.1633982763833 17344.575226764482
536.1853347455726 17275.315677689687
537.2070111671401 17253.785206324457
538.2284276221817 17148.01608643113
539.2495841917516 17030.340021720225
540.2704809568677 17000.755957450125
541.2911179985167 17113.71130818929
542.3114953976419 16868.46549658212
543.3316132351592 16874.819079788693
544.3514715919409 16821.21102375651
545.3710705488247 16829.828208713345
546.3904101866156 16669.427573382283
547.4094905860784 16772.645313630863
548.4283118279418 16746.099895030195
549.4468739929034 16758.43138200775
550.4651771616191 16684.27899623694
551.4832214147063 16633.03722946494
552.501006832761 16659.99300843745
553.5185334963226 16634.83600330643
554.5358014859103 16705.626035163943
555.5528108820035 16696.120830234107
556.5695617650363 16498.148528733618
557.5860542154242 16678.73455610567
558.6022883135283 16594.685540836308
559.6182641396881 16589.84606499342
560.6339817741991 16534.38621679582
561.6494412973225 16609.12011384027
562.6646427892883 16645.405772707763
563.6795863302796 16459.05995325077
564.694272000459 16482.479346123044
565.7086998799423 16695.179668230427
566.7228700488104 16553.0942280907
567.7367825871115 16517.36036173178
568.7504375748576 16581.697627306297
569.7638350920224 16447.547879948987
570.7769752185486 16465.554736233906
571.7898580343353 16386.12282991168
572.802483619258 16427.52292180992
573.8148520531431 16617.988249660168
574.8269634157932 16430.844338159703
575.8388177869692 16386.626258437907
576.8504152463938 16494.552975448973
577.8617558737587 16671.962105351362
578.8728397487175 16517.866054796206
579.883666950891 16531.807445187478
580.8942375598654 16730.879001283756
581.9045516551851 16757.00729831293
582.9146093163617 17068.718716119685
583.924410622878 16879.240352822904
584.9339556541727 16883.463848971194
585.9432444896538 17076.7760732835
586.9522772086875 16855.105924762243
587.9610538906127 16968.343692769366
588.9695746147318 16842.435286993517
589.9778394603054 16916.48179618264
590.985848506567 16824.42690868023
591.9936018327098 16766.88840643328
593.0010995178891 16492.09726349451
594.0083416412344 16603.27776592275
595.0153282818283 16338.133101393174
596.0220595187293 16311.450684391762
597.0285354309508 16280.715948547626
598.0347560974806 16245.770609628325
599.0407215972609 16200.47605611383
600.0464320092051 16185.296797692248
601.0518874121954 16133.868169494013
602.0570878850685 16102.817752036528
603.062033506636 16075.71221977908
604.0667243556636 16031.567585852788
605.0711605108936 15957.326995820573
606.0753420510264 16247.21969957578
607.0792690547278 16146.127714694612
608.082941600629 16047.271738933967
609.0863597673306 16165.29492398453
610.0895236333909 16285.620346943408
611.0924332773357 16465.11806258871
612.0950887776617 16398.74139622987
613.0974902128219 16413.238467646202
614.0996376612384 16775.901712657414
615.1015312013005 16778.71157720521
616.1031709113595 16982.023540018556
617.1045568697336 16907.768233869014
618.1056891547069 17138.788399619145
619.1065678445229 17277.734259301567
620.1071930173985 17646.66144859579
621.1075647515099 17526.99446564244
622.1076831250048 17832.99469765089
623.1075482159849 17912.910590707605
624.1071601025305 18133.559648476432
625.1065188626781 18225.670041551617
626.105624574433 18568.25376169343
627.1044773157682 18454.281633529743
628.1030771646128 18613.610510062754
629.1014241988742 18757.25736263195
630.0995184964158 18886.52725866429
631.0973601350688 18866.471895717066
632.0949491926294 19076.20894195822
633.0922857468631 18747.923593595602
634.089369875499 18899.274170546614
635.0862016562278 18820.082350519882
636.0827811667077 18665.535751883668
637.0791084845641 18585.852856982714
638.0751836873878 18370.614612120993
639.0710068527369 18376.47332336793
640.0665780581294 18138.45639186482
641.0618973810506 17917.1907373415
642.0569648989604 17919.331520156527
643.0517806892676 17551.19994888509
644.0463448293649 17501.76038485843
645.040657396592 17260.91217698816
646.0347184682723 17120.965106611682
647.0285281216875 16940.58191514591
648.0220864340772 16830.615562596286
649.0153934826558 16702.51319505929
650.0084493446047 16674.793149989993
651.0012540970674 16533.467499561742
651.9938078171526 16454.869099174215
652.9861105819346 16335.816429098597
653.9781624684565 16443.611333779056
654.9699635537254 16064.114498881787
655.9615139147136 16142.59527559967
656.9528136283589 15867.644456944705
657.9438627715699 16057.059383859523
658.9346614212154 15875.937061068424
659.925209654135 15598.565925591192
660.9155075471263 15665.409599611343
661.9055551769616 15576.046290943053
662.895352620375 15674.969140519775
663.8848999540678 15543.571179809844
664.8741972547068 15370.740678865604
665.863244598926 15330.030995783594
666.8520420633213 15363.826934772922
667.8405897244611 15357.198641030142
668.8288876588758 15074.755957964191
669.8169359430613 15313.560512285918
670.8047346534822 15180.718503986765
671.7922838665672 15014.705658775372
672.7795836587156 15237.460782190736
673.766634106285 15362.692931275733
674.7534352856092 14999.734434159074
675.7399872729766 15070.382118644378
676.7262901446538 15051.803294294368
677.712343976862 15153.842958065326
678.6981488457986 15159.253913508375
679.6837048276229 14940.963172553365
680.6690119984596 15134.188068780659
681.6540704344043 15039.848022423248
682.6388802115107 14913.441861544683
683.6234414058108 15007.889993256773
684.6077540932874 14911.029184567922
685.591818349907 15083.44834221946
686.575634251587 15012.222573717523
687.5592018742263 14896.852435981808
688.5425212936734 14735.02997943011
689.5255925857564 14910.395287210074
690.5084158262707 14810.175206335523
691.4909910909646 14712.368692921762
692.4733184555644 14567.617846632269
693.4553979957618 14765.24026982302
694.4372297872123 14658.832050622808
695.4188139055404 14606.770388108804
696.4001504263324 14525.85539647016
697.3812394251509 14718.00470896647
698.3620809775111 14511.13783717794
699.3426751589104 14567.483728472074
700.3230220448004 14595.496023771257
701.3031217106054 14639.078726672053
702.2829742317172 14846.850033573795
703.2625796834873 14579.316988186862
704.2419381412474 14520.695946226138
705.22104968028 14657.989930229702
706.1999143758458 14589.024376562471
707.178532303169 14775.670471116904
708.1569035374378 14711.69035704053
709.1350281538107 14883.960901890712
710.1129062274158 14991.400941544309
711.0905378333373 15235.887705652018
712.0679230466376 15331.772877347325
713.0450619423427 15716.871376693201
714.0219545954424 16010.24825060424
714.9986010808989 15967.146377929346
715.9750014736292 16198.792926760249
716.9511558485392 16615.644460928233
717.9270642804786 16823.524600422963
718.9027268442787 17056.475038998717
719.8781436147328 17072.33644861814
720.8533146666014 17096.858443663037
721.828240074612 17043.14581517891
722.8029199134635 17033.485718260985
723.7773542578125 16756.052726089143
724.751543182294 16551.628791576644
725.7254867615029 16489.344590207395
726.6991850700015 15972.746566886839
727.6726381823228 15875.25820538793
728.6458461729599 15820.756958467167
729.6188091163858 15584.37387077167
730.5915270870246 15450.756710492666
731.5640001592856 15275.456456380824
732.536228407529 15402.954502630475
733.5082119060917 15403.334541484528
734.4799507292755 15277.177730690568
735.4514449513481 15315.63060948957
736.4226946465496 15421.777361221544
737.3936998890786 15465.439766534837
738.3644607531078 15310.26705282362
739.3349773127793 15148.269588626867
740.3052496421951 15096.501263724867
741.27527781543 14846.857585244035
742.2450619065221 14661.088846496326
743.2146019894826 14565.272608386445
744.183898138288 14546.992834747321
745.1529504268801 14405.593241186518
746.1217589291682 14133.279864657994
747.0903237190341 14025.857620355886
748.058644870318 14002.016942943053
749.0267224568397 13898.311112749561
749.994556552374 13811.06637278256
750.9621472306771 13781.516258004147
751.9294945654583 13749.033112903515
752.8965986304011 13686.350552709231
753.8634594991636 13566.266105421188
754.8300772453586 13704.064147268942
755.7964519425768 13551.251979455954
756.762583664371 13696.753976993987
757.7284724842611 13528.068002442413
758.6941184757416 13495.25021364193
759.6595217122667 13529.9489611561
760.6246822672638 13578.37573817429
761.5896002141235 13346.218877634732
762.5542756262093 13502.32031024066
763.5187085768503 13555.889252180723
764.4828991393406 13348.82026298207
765.4468473869474 13440.492884165313
766.4105533929032 13412.851521918652
767.3740172304078 13303.198277556377
768.3372389726283 13377.662039535508
769.3002186926988 13196.690413242046
770.2629564637282 13095.690279262211
771.2254523587872 13259.675829864073
772.1877064509154 13132.91352399574
773.1497188131179 13010.056457272347
774.1114895183728 12941.970676276636
775.0730186396268 12992.243440328928
776.0343062497905 12917.032265787184
776.9953524217381 12921.73970555884
777.9561572283274 12889.053291233005
778.9167207423689 12895.085066098338
779.8770430366476 12650.693610759927
780.8371241839159 12866.730852917115
781.7969642568951 12724.427110152767
782.7565633282757 13025.703345431399
783.7159214707099 12772.5607102524
784.6750387568281 12857.564705800678
785.6339152592227 12672.402529345152
786.5925510504512 12680.209110131154
787.5509462030477 12672.290753152764
788.5091007895098 12648.522081675013
789.4670148823006 12698.44160382252
790.4246885538596 12731.431171811186
791.3821218765861 12676.697330173436
792.3393149228505 12602.254505502977
793.2962677649975 12733.32608892561
794.2529804753303 12693.288909706363
795.20945312613 12783.468641701194
796.1656857896378 12652.421421989686
797.1216785380675 12620.344619831765
798.0774314435985 12697.002460117363
799.0329445783846 12949.131261469256
799.9882180145414 12869.292207004293
800.9432518241574 12845.621729198498
801.89804607929 12949.888932548227
802.852600851962 13013.7671756636
803.8069162141637 13035.259201006853
804.760992237856 13119.378799988355
805.714828994971 13223.644843245484
806.6684265574077 13216.439008468722
807.6217849970271 13096.22856521388
808.574904385674 13093.856438219662
809.527784795142 13225.0504838338
810.4804262972102 13228.10787302148
811.4328289636178 12996.897715057967
812.3849928660748 12835.301616402558
813.3369180762638 12844.057443673802
814.2886046658241 12801.756671518715
815.2400527063783 12638.909792802147
816.1912622695108 12557.821463818605
817.1422334267718 12644.501880204622
818.0929662496856 12404.436713028119
819.0434608097457 12341.469422173186
819.9937171784059 12246.01451485942
820.9437354271013 12154.298850286214
821.8935156272255 12254.346786520551
822.8430578501484 12069.960810266497
823.7923621672016 11913.89351101009
824.7414286496896 11991.616467103144
825.6902573688876 11960.96487959573
826.6388483960363 11953.865576070766
827.5872018023492 11816.738611268815
828.5353176590033 11927.06585274873
829.4831960371503 11782.799910146143
830.4308370079016 11844.386513761618
831.3782406423525 11840.210419176976
832.3254070115545 11852.966465774207
833.2723361865319 11695.956844422855
834.2190282382799 11621.424815300177
835.1654832377644 11769.063258488815
836.1117012559116 11723.46401539521
837.0576823636256 11736.182258673885
838.003426631778 11551.638508302014
838.9489341312074 11607.959778194005
839.8942049327197 11730.327680602906
840.8392391070975 11745.610760837253
841.7840367250865 11732.796342895232
842.7285978573982 11481.52954041282
843.672922574724 11602.973213990808
844.6170109477152 11597.044676957245
845.560863046996 11589.903466485917
846.5044789431595 11556.848347354236
847.4478587067697 11563.501721870252
848.3910024083561 11685.62254449234
849.333910118421 11537.893489344093
850.2765819074339 11494.844932492768
851.2190178458332 11606.21461503117
852.161218004032 11649.809430149153
853.1031824524016 11568.676208048553
854.0449112612987 11482.05005553317
854.9864045010327 11595.597062400342
855.9276622418947 11581.919496960405
856.8686845541379 11602.871952356156
857.8094715079915 11488.421575216667
858.7500231736467 11671.212253517597
859.690339621271 11539.894992664236
860.6304209209939 11525.50763871468
861.5702671429244 11449.780035394988
862.5098783571284 11537.170080531165
863.4492546336569 11577.28351627179
864.3883960425155 11494.668340671342
865.3273026536863 11452.757537490208
866.2659745371238 11514.813233513805
867.2044117627465 11660.635436444885
868.1426144004472 11508.375505285656
869.0805825200823 11536.978194065898
870.0183161914847 11588.27157858502
870.9558154844526 11707.810671575548
871.8930804687552 11730.773942744872
872.8301112141307 11549.741428499117
873.7669077902865 11792.235165667886
874.7034702669062 11841.749169666251
875.6397987136315 11782.907970206572
876.5758932000863 11807.439374863408
877.5117537958522 11917.91789291133
878.4473805704911 11872.237265432712
879.3827735935283 11811.785223027091
880.3179329344603 11985.783925492475
881.2528586627541 12000.23335876169
882.1875508478479 11952.284775526987
883.1220095591489 11876.58918059034
884.0562348660296 11755.270413372575
884.9902268378391 11986.921559555445
885.9239855438955 11839.222549717375
886.8575110534839 11681.827527052008
887.7908034358588 11724.925981279297
888.7238627602474 11703.781796509238
889.6566890958475 11643.568872037447
890.5892825118208 11560.787211025303
891.5216430773125 11579.946372715238
892.4537708614189 11492.531649693825
893.3856659332196 11320.60944297033
894.3173283617652 11308.859276602818
895.2487582160684 11262.875442777815
896.179955565116 11221.368019602376
897.110920477864 11094.806491197258
898.0416530232451 11242.903701797968
898.9721532701478 10986.747047345974
899.9024212874428 11131.91551329457
900.8324571439662 10989.07879993382
901.7622609085302 10862.49978780819
902.6918326499072 10840.726194920633
903.6211724368477 10932.6124170029
904.5502803380696 11020.754291780111
905.4791564222614 11033.220072869077
906.4078007580792 10750.274879580284
907.3362134141571 10887.492900972811
908.2643944590909 11037.000812783044
909.1923439614493 10797.988884627943
910.1200619897754 10744.54548545656
911.0475486125779 10976.99422820642
911.9748038983344 10751.28776577937
912.9018279155007 10739.385749040339
913.8286207324982 10647.223273256805
914.7551824177117 10785.96150795382
915.6815130395116 10713.108427675466
916.6076126662283 10594.23694568422
917.533481366163 10643.614642175733
918.4591192075914 10770.656729444045
919.3845262587565 10771.442592255287
920.3097025878706 10576.853922142494
921.2346482631237 10570.430798522548
922.1593633526682 10667.060552035413
923.0838479246304 10755.894184488996
924.0081020471061 10726.145358498725
924.9321257881656 10504.364593016615
925.8559192158464 10472.066798098404
926.7794823981512 10456.635890744747
927.7028154030686 10379.738075249352
928.6259182985414 10348.277704687614
929.5487911524906 10528.112058306157
930.4714340328119 10625.63434377786
931.3938470073608 10273.8576713577
932.3160301439748 10440.572522047294
933.2379835104548 10451.031078340075
934.1597071745709 10459.363413962692
935.0812012040769 10434.409641335078
936.002465666681 10490.060133430155
936.9235006300696 10582.925919360832
937.8443061619055 10457.658370787012
938.7648823298077 10359.650841411672
939.6852292013809 10285.210494805367
940.6053468441951 10473.860188466148
941.5252353257874 10287.910448397
942.4448947136698 10427.751186211846
943.364325075323 10385.261669564701
944.2835264782043 10439.741174065239
945.2024989897309 10349.044680809922
946.1212426773054 10357.46189881647
947.0397576082851 10423.781883749996
947.9580438500125 10594.88199163271
948.8761014697939 10567.288807020124
949.7939305349064 10529.604160385712
950.7115311125999 10367.504991311453
951.6289032700952 10461.466333092922
952.5460470745875 10566.464677953893
953.4629625932339 10467.22042581057
954.3796498931715 10492.865013928176
955.2961090415029 10597.891710321452
956.2123401053068 10468.610517754343
957.1283431516276 10423.819796237292
958.0441182474842 10309.50674979957
958.9596654598663 10589.698527682805
959.8749848557309 10436.114659552743
960.7900765020167 10340.099890886711
961.7049404656209 10311.990677303565
962.6195768134185 10364.218089113081
963.5339856122537 10243.31369936364
964.4481669289453 10412.19080276436
965.3621208302793 10272.765912524344
966.2758473830145 10259.071841690573
967.1893466538822 10429.660797097711
968.1026187095813 10213.195650749736
969.0156636167867 10200.422213629763
969.9284814421426 10315.147825726079
970.8410722522622 10240.661635502182
971.753436113735 10185.164154657092
972.6655730931161 10128.927953103204
973.5774832569368 10286.59643010763
974.4891666716958 10171.088166823485
975.4006234038698 10160.389421453305
976.3118535198955 10121.793928193923
977.2228570861935 10325.458126720125
978.1336341691494 10296.179380511296
979.0441848351202 10088.844172535935
979.9545091504333 10206.411032558532
980.864607181391 10187.31852157509
981.7744789942699 10208.638001443844
982.6841246553086 10225.137907896602
983.5935442307236 10201.94610621428
984.5027377867027 10341.088765895563
985.4117053894024 10282.08682877136
986.3204471049557 10053.77250153766
987.2289629994648 10191.893887995746
988.1372531390007 10320.868940920354
989.0453175896091 10278.801710316602
989.9531564173067 10196.606271344932
990.860769688079 10068.879687579649
991.7681574678918 10181.540627619084
992.6753198226706 10281.176429936753
993.582256818323 10156.748570852831
994.4889685207218 10201.043699228463
995.3954549957143 10395.990055241471
996.301716309119 10459.12070406457
997.2077525267232 10292.005612607756
998.1135637142943 10235.088166610905
999.0191499375615 10350.860346937248
999.924511262232 10289.155386604541
1000.8296477539861 10354.0828338958
1001.7345594784656 10175.722444566569
1002.6392465012996 10311.714246298592
1003.5437088880753 10399.460495007776
1004.4479467043584 10327.135700468301
1005.3519600156869 10053.539369214732
1006.2557488875718 10325.986029597445
1007.1593133854858 10186.250744140914
1008.0626535748888 10133.53080506062
1008.9657695212009 9976.230455766963
1009.8686612898182 10331.23900039288
1010.7713289461135 10204.08708556323
1011.6737725554212 10066.3230692576
1012.5759921830577 10134.34384558341
1013.4779878943027 10046.251830247982
1014.379759754418 10109.187110732712
1015.2813078286254 9971.728820364026
1016.18263218213 9902.974494486194
1017.0837328801026 9943.129286887746
1017.9846099876886 10168.838377835988
1018.8852635700023 9888.289939520204
1019.7856936921362 9727.845150644185
1020.6859004191447 9963.927629669612
1021.5858838160675 9780.26940719406
1022.4856439479063 9864.918322165708
1023.3851808796389 9609.705521174637
1024.2844946762143 9852.253522503252
1025.183585402554 9808.06743907597
1026.082453123554 9501.590220360276
1026.9810979040776 9616.398799872615
1027.8795198089647 9598.566222677084
1028.777718903024 9668.075455031018
1029.6756952510368 9559.849141107758
1030.5734489177648 9568.48432907372
1031.4709799679313 9579.302765701575
1032.3682884662358 9784.306114620867
1033.2653744773506 9485.061641339884
1034.1622380659192 9438.373984894648
1035.058879296559 9593.80813691408
1035.9552982338591 9716.784872590313
1036.8514949423825 9453.952768295732
1037.7474694866614 9465.541378839453
1038.6432219312028 9374.86401109794
1039.5387523404825 9653.569205143896
1040.4340607789582 9590.245992008164
1041.3291473110476 9575.703744569739
1042.2240120011465 9739.834374106118
1043.1186549136273 9633.737543337473
1044.0130761128294 9449.943334424734
1044.9072756630649 9575.525106484156
1045.8012536286205 9762.817164741806
1046.6950100737577 9685.366450933547
1047.588545062701 9854.007441347718
1048.481858659663 9669.671648712956
1049.3749509288118 9781.390572168119
1050.2678219343034 9700.009966920414
1051.1604717402515 9766.602251847657
1052.0529004107575 9670.585785242645
1052.9451080098825 9818.637580764409
1053.8370946016694 9833.091717646095
1054.7288602501267 9723.220334568794
1055.6204050192446 9689.832962165608
1056.511728972977 9857.022226005747
1057.402832175254 9684.613572981983
1058.2937146899785 9729.29996455653
1059.1843765810263 9647.405443113921
1060.0748179122456 9817.809629742527
1060.9650387474576 9673.739460743749
1061.855039150456 9750.358444295769
1062.7448191850071 9755.788892493732
1063.6343789148505 9695.732929735472
1064.5237184037014 9720.124265119526
1065.412837715241 9763.901925129507
1066.3017369131267 9666.945697389518
1067.190416060992 9657.258396801099
1068.0788752224398 9602.422880240305
1068.9671144610438 9645.587676043568
1069.8551338403558 9721.952047593184
1070.7429334239023 9727.105531187211
1071.6305132751695 9527.03292341942
1072.517873457633 9663.725051301748
1073.4050140347335 9599.217426958849
1074.2919350698776 9693.589548010537
1075.1786366264623 9589.969854726049
1076.0651187678395 9621.819512343143
1076.95138155735 9401.214500344795
1077.8374250582929 9503.494373040401
1078.7232493339507 9532.944781870805
1079.608854447577 9481.328285543692
1080.4942404623907 9406.98355987969
1081.3794074415982 9534.170944018833
1082.2643554483657 9498.744148200167
1083.149084545841 9446.386320582711
1084.033594797138 9394.928756524603
1084.9178862653516 9336.05719259557
1085.8019590135427 9630.144820694497
1086.6858131047484 9373.419874359042
1087.5694486019802 9556.811615550007
1088.4528655682225 9511.964950332265
1089.3360640664287 9632.525102864673
1090.2190441595321 9524.05028538137
1091.1018059104317 9510.410262155337
1091.98434938201 9628.849937658353
1092.866674637111 9639.605404788383
1093.748781738559 9588.238292539045
1094.6306707491512 9337.233998628777
1095.5123417316554 9582.527873959538
1096.3937947488157 9407.489301622776
1097.2750298633455 9390.484971533391
1098.156047137938 9326.680037556383
1099.0368466352556 9509.689430369926
1099.9174284179317 9476.841984970435
1100.7977925485757 9209.419009376135
1101.6779390897755 9272.516969638344
1102.5578681040806 9259.840206198765
1103.4375796540226 9205.23773325523
1104.3170738021054 9201.794828664923
1105.1963506108077 9038.155252652306
1106.0754101425773 9078.200854781053
1106.9542524598382 9107.046803415611
1107.8328776249855 9007.34852321803
1108.7112857003904 8978.759682329319
1109.5894767483987 9018.751242481712
1110.4674508313292 9065.713081870026
1111.3452080114657 8880.836872963224
1112.2227483510815 9042.465007491186
1113.1000719124077 9140.649162342826
1113.9771787576592 9285.360497394004
1114.854068949022 9178.917693502652
1115.7307425486542 9266.225639790591
1116.6071996186893 9442.210382899346
1117.483440221229 9482.780037715038
1118.3594644183577 9395.092768764707
1119.235272272128 9352.328708150617
1120.1108638445658 9525.734036899408
1120.9862391976712 9707.380313515589
1121.8613983934229 9637.151668679808
1122.7363414937627 9678.309163276706
1123.6110685606182 9758.729675237968
1124.485579655884 9943.997372988695
1125.359874841426 9864.206681005828
1126.2339541790916 9819.881845086027
1127.1078177306936 10138.583422552854
1127.9814655580267 9840.545260168074
1128.854897722851 9970.486953184523
1129.7281142869106 10010.299649552808
1130.6011153119125 10124.128664057307
1131.473900859548 10084.44963524224
1132.3464709914697 9963.330809148047
1133.2188257693178 9886.117964651274
1134.0909652546961 9836.51190493585
1134.96288950919 9732.620037795032
1135.8345985943506 9934.894103186654
1136.7060925717087 9546.329686323337
1137.57737150277 9641.909609796581
1138.4484354490069 9710.071197191533
1139.3192844718778 9511.37844848914
1140.1899186327992 9280.971182266898
1141.060337993178 9475.398895059834
1141.930542614382 9299.181208093036
1142.8005325577597 9137.525996188107
1143.670307884635 8976.49695912944
1144.5398686563003 9131.085972429992
1145.409214934025 9040.882041154146
1146.2783467790541 8793.855480317488
1147.1472642526023 8781.485447791241
1148.0159674158622 8949.249160010771
1148.8844563300026 8633.673474730109
1149.7527310561618 8635.316377260224
1150.6207916554504 8464.613819561519
1151.4886381889592 8541.211529839458
1152.3562707177498 8535.13813011016
1153.2236893028585 8436.931944859653
1154.090894005296 8358.932881294462
1154.9578848860474 8473.687709326005
1155.8246620060709 8361.923630745912
1156.6912254262988 8167.492171726463
1157.5575752076438 8232.25104384041
1158.42371141098 8492.940987270764
1159.2896340971656 8330.131471149574
1160.1553433270346 8268.034843711188
1161.0208391613887 8282.997990560381
1161.8861216610057 8393.63118881101
1162.75119088664 8408.047106051281
1163.6160468990201 8270.461299846571
1164.4806897588442 8260.095410226442
1165.3451195267917 8319.81898529327
1166.2093362635114 8270.575608160001
1167.0733400296285 8298.89729238829
1167.9371308857444 8143.353127932745
1168.8007088924278 8154.403788828391
1169.6640741102328 8208.089078886534
1170.5272265996773 8107.750240654685
1171.390166421259 8027.580165702486
1172.252893635452 8170.033122880368
1173.1154083026995 8315.809203513396
1173.977710483421 8230.201958178697
1174.8398002380145 8033.848061489826
1175.7016776268483 8210.61577749844
1176.563342710264 8182.040891311813
1177.4247955485826 8065.669601350742
1178.2860362020947 8233.355492318393
1179.147064731069 8074.057641816008
1180.0078811957483 8216.325542044757
1180.8684856563486 8118.208003607312
1181.7288781730604 8290.572220386097
1182.589058806052 8371.036573851894
1183.4490276154593 8421.910611515668
1184.3087846614017 8309.136613608447
1185.1683300039676 8374.604421550825
1186.027663703222 8532.541792268847
1186.8867858192025 8362.174768660898
1187.7456964119228 8467.835822426041
1188.6043955413716 8481.12558147075
1189.4628832675116 8681.753116742264
1190.3211596502842 8629.51092446689
1191.179224749596 8592.52821579147
1192.0370786253388 8441.695278399333
1192.8947213373758 8732.379649762865
1193.7521529455407 8693.73232506151
1194.6093735096438 8516.135820526724
1195.466383089477 8526.041556511831
1196.3231817447977 8637.815761710113
1197.1797695353398 8726.675485951611
1198.0361465208189 8487.590868536548
1198.8923127609214 8539.055311519582
1199.7482683153048 8659.45160362033
1200.6040132436028 8798.306435044951
1201.459547605431 8547.940277649592
1202.3148714603722 8550.82825588737
1203.1699848679855 8508.969415488378
1204.0248878878065 8661.13182708088
1204.8795805793507 8369.766230193174
1205.7340630020935 8446.490699627802
1206.5883352155033 8527.173033912664
1207.4423972790064 8463.960071522017
1208.2962492520237 8416.028883913006
1209.1498911939307 8225.73955933495
1210.0033231640937 8309.476339365607
1210.8565452218427 8362.579447764427
1211.7095574264913 8141.3803557991005
1212.5623598373222 8084.806629817472
1213.4149525135963 8119.307401865901
1214.2673355145507 8146.990862694003
1215.1195088993936 7989.810106992217
1215.9714727273113 8044.822759147634
1216.8232270574663 8130.745389298107
1217.6747719489904 7813.500686027381
1218.5261074609934 7853.205706626179
1219.3772336525653 7915.3434786304015
1220.2281505827668 7961.680923952398
1221.0788583106296 7940.736463709817
1221.9293568951707 7814.895788372359
1222.7796463953746 7691.349131143752
1223.629726870202 7810.934668463844
1224.4795983785934 7897.8730461901
1225.3292609794553 7724.097629578353
1226.1787147316809 7678.481186184743
1227.0279596941327 7710.636803305488
1227.8769959256424 7701.186956182882
1228.7258234850306 7818.973612363769
1229.5744424310833 7506.823696528813
1230.422852822563 7864.094313949188
1231.2710547182105 7881.826973801033
1232.119048176739 7766.928271748872
1232.9668332568417 7547.788713446348
1233.8144100171812 7863.129430734222
1234.6617785163999 7728.910350425902
1235.508938813111 7562.458644687218
1236.3558909659114 7583.841697178206
1237.2026350333617 7842.715779128169
1238.049171074008 7852.092552528561
1238.8954991463652 7612.535394708498
1239.741619308932 7718.150984991927
1240.587531620169 6614.591498820623
1241.4332361385277 7861.136666148448
1242.2787329224248 7629.612183633374
1243.1240220302534 7530.032185524904
1243.9691035203869 7564.075435163732
1244.813977451171 7812.677787073428
1245.6586438809263 7714.179980301674
1246.5031028679496 7387.216792569316
1247.3473544705157 7739.111096910999
1248.1913987468706 7635.27733090633
1249.0352357552383 7483.125051959285
1249.8788655538228 7528.051618869487
1250.7222882007918 7672.193616919991
1251.565503754302 7704.209264464919
1252.4085122724755 7422.063684548919
1253.2513138134182 7689.143126898465
1254.0939084352049 7555.149680885741
1254.9362961958905 7490.653989918591
1255.7784771535007 7427.161431391124
1256.6204513660432 7595.188792676355
1257.4622188915 7791.893327614851
1258.3037797878242 7549.814794841521
1259.1451341129468 7476.551039173518
1259.9862819247755 7678.768742389357
1260.8272232811978 7598.856664639641
1261.6679582400666 7770.2323707602045
1262.5084868592203 7424.852246307484
1263.34880919647 7482.3211314229075
1264.1889253095997 7558.597706631382
1265.0288352563712 7749.98410143768
1265.8685390945266 7523.4493512351255
1266.7080368817751 7520.29512010098
1267.5473286758115 7730.850219459464
1268.386414534294 7597.788390353859
1269.2252945148703 7333.987457279189
1270.0639686751547 7437.877312506796
1270.9024370727402 7517.3464994177175
1271.7406997651997 7359.517671539294
1272.5787568100714 7364.679376970712
1273.4166082648808 7334.821677755567
1274.2542541871244 7443.3604168762595
1275.091694634275 7771.100892872912
1275.9289296637817 7236.673603557962
1276.7659593330663 7465.946809544594
1277.6027836995308 7401.7916775149615
1278.4394028205552 7475.99196319447
1279.2758167534867 7368.3999978923575
1280.112025555658 7327.331048407081
1280.9480292843746 7509.798732285232
1281.7838279969128 7228.165773231813
1282.6194217505326 7311.613049681316
1283.4548106024686 7196.667998598455
1284.289994609926 7264.693786492693
1285.1249738300921 7484.554894942628
1285.959748320127 7283.802225346188
1286.7943181371702 7350.962198142593
1287.6286833383328 7367.5070462388885
1288.4628439807038 7368.469202117798
1289.2968001213521 7263.5979056490805
1290.1305518173194 7335.976048756615
1290.9640991256183 7354.387380167587
1291.7974421032523 7155.539336049973
1292.630580807183 7199.65697854313
1293.463515294361 7277.734741374385
1294.29624562171 7536.734528881223
1295.12877184613 7349.371139983526
1295.961094024493 7313.685753067849
1296.79321221365 7344.12636125476
1297.6251264704333 7509.636008474796
1298.4568368516466 7672.4652491309225
1299.2883434140658 7395.161895795453
1300.1196462144526 7322.182715108594
1300.9507453095375 7552.914713458155
1301.7816407560313 7538.192848496865
1302.6123326106172 7495.633900444418
1303.4428209299622 7449.5307937097605
1304.2731057707024 7676.387981898539
1305.1031871894502 7491.657150059824
1305.933065242798 7593.549297948511
1306.7627399873181 7630.5498547906
1307.5922114795467 7884.543139205738
1308.4214797760123 7833.9744010953755
1309.2505449332057 7725.490171026568
1310.0794070076026 7737.974202837671
1310.9080660556538 7936.94616884121
1311.736522133786 7914.520855630421
1312.5647752983987 7698.852003017657
1313.3928256058734 7679.371152344851
1314.2206731125661 7926.03946923449
1315.048317874809 7880.359504718677
1315.8757599489109 7735.340168317787
1316.7029993911547 7874.126954049729
1317.5300362578055 8001.063920157461
1318.356870605101 7842.855205718981
1319.183502489257 7787.163352591662
1320.0099319664623 7997.674795118459
1320.836159092889 8124.1879930677
1321.66218392468 8067.176544682789
1322.4880065179532 7910.908124240977
1323.3136269288134 7990.6596930728
1324.1390452133292 8223.702632062586
1324.9642614275563 8285.871032491897
1325.7892756275214 8053.362643793487
1326.6140878692295 7943.126839789891
1327.4386982086617 8483.311555085502
1328.2631067017755 8085.81401541425
1329.0873134045069 8081.188930495223
1329.911318372764 8025.497171619446
1330.735121662441 8111.045779921727
1331.558723329399 7946.985358892356
1332.3821234294774 7867.966661396284
1333.2053220185007 7879.408333538954
1334.0283191522612 7824.091303671854
1334.851114886529 7802.607859250025
1335.6737092770582 7632.774925046362
1336.4961023795695 7602.15712983001
1337.3182942497697 7476.586000099773
1338.1402849433325 7601.1505223542845
1338.962074515921 7428.972421806667
1339.7836630231632 7341.230623811354
1340.6050505206676 7861.0527946581005
1341.426237064028 7592.54152495886
1342.2472227088037 7357.73366115728
1343.0680075105338 7199.074174829558
1343.888591524741 7444.7284655852
1344.7089748069138 7527.647332198981
1345.5291574125276 7289.417790066596
1346.3491393970307 7215.704942958024
1347.168920815846 7475.025937729313
1347.9885017243778 7497.334930219305
1348.8078821780036 7226.453547628351
1349.6270622320844 7273.381522877198
1350.4460419419447 7222.952858810544
1351.2648213629054 7335.937154366207
1352.0834005502438 7087.838311612757
1352.90177955923 7120.087127393487
1353.7199584451064 7381.658804375744
1354.5379372630887 7303.704321835207
1355.355716068374 7157.358443620654
1356.1732949161305 7161.718174657544
1356.9906738615155 7230.7408872701535
1357.8078529596478 7194.775021763128
1358.6248322656375 7349.963747546752
1359.441611834567 7171.114981123636
1360.2581917214866 7186.048496854934
1361.0745719814367 7107.930718777131
1361.890752669433 7080.739312430371
1362.7067338404577 6964.802272504074
1363.5225155494845 7329.25197599537
1364.3380978514506 7310.65859411983
1365.1534808012839 7001.0163862167465
1365.9686644538815 6811.283880378066
1366.783648864117 7296.305736363829
1367.5984340868417 7234.9199226006185
1368.413020176893 7025.213342398094
1369.2274071890715 6866.948463984261
1370.0415951781652 7075.784328209049
1370.8555841989346 6952.35718748693
1371.6693743061223 6798.1669757923255
1372.48296555444 6734.565352650779
1373.2963579985844 6940.73268693467
1374.1095516932255 6990.951790431817
1374.9225466930166 6726.145141453916
1375.7353430525782 6941.170958214791
1376.5479408265164 6728.4703279294
1377.36034006941 6939.0738551786035
1378.1725408358216 6835.784441434122
1378.9845431802805 6655.938649024181
1379.796347157304 7085.2316553654
1380.6079528213813 6872.127048280793
1381.4193602269788 6625.544766324043
1382.230569428546 6623.039579940712
1383.0415804805016 6891.876209817196
1383.852393437246 6736.031927369297
1384.6630083531563 6739.469988673957
1385.4734252825892 6636.49055521441
1386.2836442798798 6711.240620416784
1387.0936653993322 6776.27607251547
1387.9034886952395 6722.874169143787
1388.713114221864 6674.105131644277
1389.5225420334482 6780.298580619373
1390.331772184214 6696.773153004283
1391.1408047283585 6456.7168768307865
1391.9496397200564 6565.853201082752
1392.758277213461 6726.257542308724
1393.5667172627054 6840.25622275987
1394.3749599218918 6602.097273621059
1395.1830052451114 6478.707002357686
1395.9908532864265 6598.882001296772
1396.7985040998774 6748.269708348892
1397.6059577394808 6411.001608287663
1398.4132142592352 6392.748974267088
1399.2202737131156 6511.559581921999
1400.027136155073 6689.774873458284
1400.8338016390353 6446.582867874302
1401.6402702189134 6469.8569561404565
1402.446541948586 6474.859615912798
1403.2526168819204 6410.543707550377
1404.058495072757 6397.277317668328
1404.8641765749107 6447.512862295276
1405.6696614421799 6426.2170308617915
1406.4749497283356 6810.882708794519
1407.280041487129 6326.653130690589
1408.084936772295 6207.117603486637
1408.8896356375335 6627.162504646166
1409.6941381365323 6506.30598488881
1410.498444322955 6294.891107581376
1411.3025542504402 6445.9896165134505
1412.106467972606 6370.9644847712
1412.9101855430508 6453.54889008988
1413.7137070153458 6151.100650371651
1414.5170324430437 6374.060252755489
1415.320161879672 6404.056751889394
1416.1230953787435 6586.079051170268
1416.925832993742 6161.773309289915
1417.7283747781275 6155.062661210946
1418.5307207853439 6420.11445666102
1419.3328710688093 6428.850145364306
1420.134825681922 5958.754709330676
1420.9365846780584 6137.030096641198
1421.7381481105713 6586.672259368953
1422.539516032788 6312.958060093023
1423.3406884980232 6203.5255865333165
1424.1416655595604 6234.303005286941
1424.942447270665 6330.966040210076
1425.7430336845828 6390.992908423856
1426.5434248545298 6164.0358220161215
1427.3436208337116 6367.399257021787
1428.143621675301 6332.157179297976
1428.9434274324558 6527.547659691106
1429.7430381583108 6172.163393217015
1430.5424539059713 6253.892930261471
1431.3416747285337 6749.435740351473
1432.1407006790632 6474.896035885824
1432.9395318106053 6350.678707998771
1433.7381681761835 6215.42005344959
1434.5366098288014 6427.326182430529
1435.3348568214424 6491.458249502681
1436.1329092070573 6284.099694789858
1436.9307670385879 6307.1240564122645
1437.7284303689503 6448.548822972899
1438.5258992510335 6513.193683247942
1439.3231737377118 6312.522694587105
1440.1202538818306 6336.693209179359
1440.9171397362225 6377.679353647043
1441.7138313536925 6414.409284979777
1442.5103287870243 6278.609195351716
1443.3066320889775 6170.476882249488
1444.1027413122956 6439.702073050716
1444.8986565096966 6187.62553554216
1445.694377733882 6184.981316857026
1446.4899050375207 5984.260032193382
1447.2852384732687 6156.339348054737
1448.0803780937622 6317.503876926363
1448.8753239516063 6079.190315484353
1449.6700760993954 5963.331646756203
1450.464634589689 6106.159699927813
1451.2589994750397 6474.330709150284
1452.0531708079689 5957.934884277166
1452.8471486409799 5952.4711554224805
1453.6409330265524 6169.797617287135
1454.4345240171442 6048.78124378749
1455.2279216651987 5988.858278516349
1456.0211260231263 5990.214849076629
1456.8141371433194 6108.028937947108
1457.6069550781594 6227.246887331467
1458.3995798799897 5794.094185124135
1459.1920116011424 5803.705799451452
1459.98425029393 5751.184446655085
1460.7762960106338 5800.224806159657
1461.5681488035225 5772.466225095769
1462.3598087248392 5870.2479231074385
1463.1512758268036 6115.410613616808
1463.942550161617 5765.752370173323
1464.7336317814625 5610.968102669869
1465.524520738496 5838.239751060503
1466.3152170848552 5702.578684371632
1467.1057208726506 5808.062115377482
1467.8960321539817 5627.636967320457
1468.6861509809169 5508.8065595107855
1469.4760774055085 5596.239102294218
1470.265811479785 5802.956476888447
1471.055353255755 5473.972304969902
1471.844702785409 5380.230173433089
1472.6338601207044 5502.837164966182
1473.4228253135934 5670.906543667648
1474.2115984159936 5352.731392199828
1475.0001794798063 5205.524454182953
1475.7885685569145 5564.642621976597
1476.576765699172 5478.015644290876
1477.3647709584238 5369.587257911235
1478.1525843864802 5642.102733398684
1478.9402060351367 5565.763225629789
1479.7276359561693 5631.174006624627
1480.514874201328 5311.506168522159
1481.3019208223468 5262.882296747728
1482.0887758709323 5196.346231311779
1482.8754393987747 5434.113436018461
1483.6619114575406 5194.306741120112
1484.4481920988783 5289.882459978242
1485.2342813744108 5485.776354099709
1486.0201793357446 5620.4485840791
1486.8058860344572 5220.792196874351
1487.591401522117 5228.259438423423
1488.3767258502594 5298.164110129183
1489.1618590704056 5407.418629375937
1489.9468012340494 5039.031114772359
1490.7315523926754 5370.080044833949
1491.5161125977356 5364.074726064435
1492.3004819006637 5273.989009820076
1493.084660352877 5158.649381924636
1493.8686480057622 5270.833279952126
1494.6524449106964 5492.847747540172
1495.4360511190262 5530.040727668996
1496.219466682087 5301.509858440963
1497.0026916511779 5360.734782377176
1497.7857260775945 5278.914684061589
1498.5685700125996 5444.669035891127
1499.3512235074395 5191.007988060039
1500.133686613337 5143.731747952085
1500.9159593814966 5310.456070412554
1501.698041863101 5721.021239156162
1502.4799341093094 5184.217180715539
1503.2616361712662 5036.674572602132
1504.043148100087 5272.690172864344
1504.8244699468742 5295.257250345081
1505.6056017626997 5086.392723497966
1506.3865435986281 5135.367241636811
1507.1672955056893 5352.383889117034
1507.9478575348967 5088.637333588917
1508.7282297372512 5332.173386564673
1509.5084121637192 5254.686344900676
1510.2884048652577 5306.375839784978
1511.0682078927948 5155.755369740919
1511.8478212972423 5095.346963601078
1512.6272451294917 5059.154840025885
1513.4064794404076 5165.135679552066
1514.1855242808433 5344.323386411435
1514.9643797016215 5100.218191622374
1515.743045753552 5262.7506432202
1516.5215224874191 5266.709911462541
1517.2998099539836 5068.207154013073
1518.077908203999 5111.6713069302095
1518.8558172881785 5126.322420744705
1519.633537257234 5340.77068881382
1520.4110681618404 5209.186417590656
1521.1884100526604 5214.429554131409
1521.9655629803365 5098.756411497212
1522.7425269954856 5433.738417937834
1523.5193021487103 5570.82950967306
1524.2958884905856 5101.494064770681
1525.0722860716687 5203.995838435127
1525.848494942502 5090.587181753426
1526.624515153595 5186.2961535618215
1527.4003467554485 5288.846448024343
1528.175989798534 5237.791118936719
1528.9514443333064 5298.598966620348
1529.726710410203 5407.4470727968155
1530.5017880796331 4956.3613000741425
1531.276677391992 5101.35455501353
1532.0513783976457 5388.93572678064
1532.825891146953 5231.0730888901235
1533.6002156902414 5200.144099762098
1534.3743520778207 5245.755471173825
1535.1483003599806 5224.045823106497
1535.9220605869923 5294.631363548488
1536.6956328091019 5231.8122360997295
1537.4690170765407 5237.365684307877
1538.242213439511 5389.562422177968
1539.015221948208 5246.88083777627
1539.78804265279 5121.484518732891
1540.560675603405 5141.315154257215
1541.3331208501804 5374.9821252071215
1542.1053784432224 5380.874331416868
1542.8774484326168 5180.288705791427
1543.649330868422 5209.867852580421
1544.4210258006842 5208.853956432251
1545.1925332794308 5201.727775545033
1545.9638533546604 5196.136729069554
1546.7349860763552 5047.136436396155
1547.5059314944829 5465.134241076374
1548.27668965898 5242.280647922667
1549.0472606197673 5237.931680196207
1549.817644426752 5100.579193635056
1550.5878411298072 5392.505420658152
1551.3578507787988 5313.943642905789
1552.1276734235635 5067.169153076898
1552.8973091139233 5267.729199700538
1553.6667578996767 5333.132920146669
1554.436019830604 5158.22950458737
1555.20509495646 5128.78474941835
1555.9739833269869 5117.389737388565
1556.7426849919011 5213.832223520378
1557.511200000903 5392.956421834656
1558.2795284036674 5203.923130382084
1559.0476702498509 5200.164153645343
1559.8156255890954 5455.163382714801
1560.5833944710157 5491.706851863393
1561.3509769452048 5093.600635918913
1562.1183730612447 5310.635032049299
1562.8855828686865 5321.107073481823
1563.6526064170703 5510.323886661652
1564.4194437559127 5374.50337746208
1565.1860949347047 5244.310395192933
1565.9525600029283 5571.905643981316
1566.7188390100328 5740.817846733129
1567.4849320054564 5328.539025529124
1568.250839038612 5299.586480417504
1569.0165601588997 5279.861860154553
1569.7820954156887 5376.581486639799
1570.5474448583373 5158.411276298173
1571.31260853618 5212.922149225082
1572.0775864985299 5170.326811296643
1572.8423787946813 5416.776505853805
1573.6069854739108 5190.998800768206
1574.371406585471 5281.8365061686545
1575.1356421785986 5374.00054290223
1575.899692302506 5198.818571051457
1576.6635570063845 5309.062367852426
1577.4272363394157 5273.676405778695
1578.190730350747 5273.534333449038
1578.9540390895163 5525.425947372007
1579.7171626048384 5022.22741443194
1580.480100945806 5025.145237852479
1581.2428541614918 5301.233179615911
1582.0054223009538 5399.075072215969
1582.767805413223 5107.236626244376
1583.5300035473156 5176.365209957338
1584.292016752228 5473.350466015433
1585.0538450769309 5362.814227976445
1585.8154885703807 4991.494275882689
1586.5769472815136 5056.6430891160935
1587.3382212592405 5265.498725220668
1588.099310552463 5272.073770339606
1588.8602152100484 5106.811196087008
1589.6209352808564 5217.832703856261
1590.3814708137234 5168.709580179928
1591.14182185746 5113.591048330101
1591.9019884608679 4999.805675428016
1592.6619706727215 4958.25130640454
1593.4217685417734 5189.350463159079
1594.1813821167616 5302.676223804251
1594.9408114464022 4920.702530378459
1595.7000565793933 4950.768488297162
1596.459117564409 5231.189159882211
1597.2179944501113 5037.517343190002
1597.9766872851324 4902.611987312073
1598.735196118092 5121.768129529383
1599.4935209975883 5080.596281325788
1600.2516619721973 5231.856027827351
1601.0096190904787 5013.453772411514
1601.7673924009723 4926.242482125551
1602.524981952196 4993.684803367343
1603.2823877926476 4916.092724766287
1604.0396099708087 4945.942293126927
1604.7966485351371 4903.622377109857
1605.5535035340745 4975.643699293866
1606.3101750160404 5139.60292002491
1607.0666630294363 4881.17383958893
1607.822967622642 4858.701311947115
1608.5790888440224 4997.081412164935
1609.3350267419137 5121.350705417669
1610.0907813646445 4921.734621365549
1610.8463527605145 4727.665098649712
1611.601740977805 5047.270148844506
1612.356946064785 4825.26560269476
1613.1119680696902 4596.402116244967
1613.8668070407512 4720.513168294374
1614.6214630261748 4837.413020303402
1615.375936074137 4950.3904501431425
1616.1302262328118 4767.615888530602
1616.8843335503425 4946.186979963807
1617.638258074854 4771.0401085867115
1618.391999854457 4747.383109892381
1619.1455589372363 5001.050986239528
1619.8989353712623 4847.4505751290535
1620.65212920458 4679.432522342357
1621.4051404852235 4668.500291386668
1622.1579692611976 4763.172483003708
1622.9106155804966 4649.933807324719
1623.663079491087 4722.308021008693
1624.4153610409248 4803.875245977041
1625.1674602779385 4588.806199453133
1625.9193772500403 4682.656998949782
1626.6711120051277 4989.365145836609
1627.4226645910676 4825.398285986525
1628.174035055721 4558.288714882104
1628.9252234469168 4803.587453124991
1629.676229812474 4661.601061321732
1630.4270542001905 5130.204538494567
1631.1776966578382 4640.7558668735965
1631.9281572331747 4599.434352819593
1632.678435973945 4851.390540746307
1633.4285329278573 4693.665248464516
1634.1784481426203 4516.765479426037
1634.9281816659113 4768.1893415606355
1635.677733545388 4881.525044642558
1636.4271038286934 4707.7330898832815
1637.176292563452 4792.605408468225
1637.9252997972635 4683.046937718174
1638.674125577716 4912.894568813071
1639.4227699523672 5171.580541514757
1640.171232968767 4499.5655702935655
1640.9195146744423 4734.695774008823
1641.6676151168977 5086.299919057874
1642.4155343436178 5058.149110847136
1643.1632724020765 4696.480650699784
1643.9108293397167 4792.989594244571
1644.658205203974 4735.440129177177
1645.4054000422566 5404.620382876577
1646.1524139019566 4824.9667022639
1646.8992468304423 4527.432154327149
1647.6458988750728 4744.506732610598
1648.3923700831765 4759.529895508702
1649.1386605020743 4740.295958504676
1649.8847701790564 5098.123145262327
1650.6306991614038 5013.505013140401
1651.3764474963682 4985.294997639719
1652.1220152311944 4670.669034689318
1652.867402413096 4874.397041222058
1653.6126090892776 4969.055946061395
1654.3576353069184 5080.695059119664
1655.1024811131829 4886.764024267881
1655.8471465552066 4803.977774562928
1656.5916316801213 4926.781024770052
1657.3359365350298 4893.2310848140005
1658.0800611670165 4790.132481976263
1658.824005623148 4940.219352638039
1659.5677699504722 4745.797032076058
1660.3113541960192 4969.528545452912
1661.054758406799 4748.117353006955
1661.7979826297997 4695.407721443717
1662.5410269119966 4741.630951685241
1663.283891300338 4950.521274588892
1664.0265758417645 4732.790061497429
1664.7690805831826 4922.551578308286
1665.5114055714948 4905.244467523227
1666.2535508535748 5158.662524907419
1666.9955164762814 4578.972882305413
1667.7373024864555 4707.7004013896585
1668.478908930916 4925.672722227504
1669.220335856462 4714.666569590648
1669.9615833098778 4564.253528431316
1670.7026513379296 4597.710765558351
1671.44353998736 4728.7262952345645
1672.1842493048916 4717.699799269417
1672.9247793372379 4611.495410046161
1673.6651301310812 4718.7754705437965
1674.4053017330934 4545.425203611174
1675.1452941899242 4682.1638196187505
1675.885107548207 4224.948151381993
1676.6247418545518 4324.552065227933
1677.3641971555535 4402.713468715733
1678.1034734977893 4636.416765588294
1678.8425709278108 4334.545771902128
1679.5814894921605 4684.3378357165175
1680.320229237359 4602.887824193449
1681.0587902098978 4653.492055464512
1681.7971724562685 4358.380528377214
1682.5353760229264 4283.272555121933
1683.2734009563173 4420.732011952779
1684.0112473028657 4220.028336156575
1684.7489151089794 4405.353948616329
1685.4864044210462 4544.809351303228
1686.2237152854377 4027.5896718707436
1686.960847748498 4617.362043121772
1687.6978018565642 4200.502850405881
1688.434577655944 4064.301163356584
1689.1711751929379 3978.7737893779968
1689.9075945138156 4276.464829621424
1690.6438356648396 3990.474531945388
1691.3798986922448 3781.6805431585476
1692.1157836422499 4033.1123478499308
1692.851490561059 3970.7108895328593
1693.587019494853 4076.2965188385983
1694.3223704897991 3789.2784749224024
1695.0575435920364 3695.076791839051
1695.792538847696 4228.581929716932
1696.527356302886 3853.6519610343844
1697.2619960036936 3660.317636114573
1697.9964579961907 3475.6220985434825
1698.730742326432 3445.931506607666
1699.4648490404488 3575.1384304982976
1700.1987781842563 3681.1214625978123
1700.9325298038548 3892.105624270773
1701.6661039452174 3911.2857637232746
1702.3995006543082 3786.0643101689784
1703.1327199770658 3895.0616953852486
1703.865761959416 3695.0550380554632
1704.598626647261 3984.68345346681
1705.3313140864866 3590.549787434148
1706.0638243229587 3611.319286354503
1706.7961574025303 3750.1477737405294
1707.528313371029 3636.0877054658135
1708.260292274268 3495.8429741307255
1708.9920941580403 3686.989164554308
1709.7237190681226 3699.1683638677146
1710.4551670502697 3539.4193735910385
1711.18643815022 3381.5242726873003
1711.9175324136959 3821.2791934096576
1712.6484498863938 3574.424763070843
1713.379190614005 3339.329410300448
1714.109754642188 3440.4202248381653
1714.8401420165883 3576.108898613262
1715.570352782839 3772.4884002941376
1716.3003869865497 3546.6619153105794
1717.0302446733076 3316.020047526176
1717.7599258886876 3379.4094026258026
1718.4894306782444 3869.6747072612293
1719.2187590875183 3339.763656598284
1719.9479111620203 3677.4838158729835
1720.6768869472544 3406.7898731281557
1721.4056864887025 3718.203013941008
1722.1343098318284 3698.1885989662305
1722.8627570220742 3420.1311009761353
1723.591028104871 3365.2689369877344
1724.3191231256242 3180.9783254669687
1725.0470421297232 3490.2205663612067
1725.7747851625427 3464.0765658607206
1726.5023522694337 3535.4946110726974
1727.2297434957363 3367.1849367900395
1727.9569588867635 3230.1902778860326
1728.6839984878152 3354.713627550513
1729.4108623441734 2954.3927330322967
1730.1375505011038 3529.3084990706966
1730.8640630038426 3289.500196069491
1731.5903998976264 3297.051415512301
1732.316561227657 3369.3912647886527
1733.0425470391274 3104.1900603081817
1733.7683573772065 3382.599989800906
1734.4939922870508 3318.307632018077
1735.2194518137949 3296.3586103278553
1735.9447360025606 3396.0152932409947
1736.669844898439 3360.7132404849663
1737.3947785465189 3137.3744091958592
1738.1195369918605 3079.0654315179595
1738.8441202795093 3247.407614202734
1739.5685284544943 3352.269338470143
1740.292761561821 3399.663897132613
1741.0168196464838 3329.0132814761046
1741.7407027534518 3362.427070801607
1742.464410927687 3255.5778742588245
1743.187944214118 3194.724850524814
1743.9113026576688 3262.183711619581
1744.634486303241 3173.203104838862
1745.3574951957125 3236.5681932981493
1746.0803293799509 3338.7400708942478
1746.8029889008048 3281.0312977001086
1747.5254738031017 3319.732601771547
1748.2477841316504 3113.857638125619
1748.969919931249 3197.3531996249944
1749.6918812466665 3233.8188905756665
1750.4136681226646 3387.288238993645
1751.1352806039777 3188.4549678191006
1751.856718735331 3028.875174161674
1752.5779825614281 2849.6465662777637
1753.2990721269507 3317.0914563147294
1754.0199874765676 3337.2182167230203
1754.7407286549314 2997.2633167383838
1755.4612957066693 3184.5987516520477
1756.1816886763954 2976.8625112445993
1756.9019076087097 3266.3122510718285
1757.6219525481865 3203.840136517578
1758.3418235393856 3254.400056358523
1759.061520626854 3248.3371578373453
1759.7810438551096 3380.734755051464
1760.5003932686614 3073.406289713109
1761.2195689119999 3317.9127310156628
1761.938570829594 3234.0124752558363
1762.657399065898 3183.973760132966
1763.376053665348 2940.067150833542
1764.0945346723602 2933.4717319446654
1764.812842131334 3454.9607006765605
1765.5309760866512 2955.5403790850764
1766.2489365826787 2953.480615461795
1766.9667236637597 3140.08721185793
1767.684337374223 2761.0494750941516
1768.401777758383 3017.6409155127235
1769.1190448605284 2918.816706602515
1769.836138724937 2932.353348972851
1770.5530593958665 3145.04238254497
1771.2698069175603 3355.040269647555
1771.9863813342326 3137.8265529355776
1772.702782690094 3008.306545876817
1773.4190110293293 3164.259857927612
1774.1350663961111 3136.878187795764
1774.8509488345844 2942.411662702721
1775.5666583888924 3134.6797411038506
1776.2821951031437 3290.3109836812973
1776.9975590214362 2936.739088700158
1777.7127501878585 3306.858722034039
1778.4277686464684 3199.5813680366587
1779.1426144413108 3280.6531239637015
1779.8572876164162 3232.933217919405
1780.571788215797 2871.4342301156057
1781.2861162834415 3086.360498263275
1782.0002718633277 3047.6049370108303
1782.7142549994132 3142.4185819295026
1783.4280657356376 3073.695441099883
1784.141704115922 2900.5949087017116
1784.855170184177 3107.2471185192585
1785.5684639842839 3058.7088516799263
1786.2815855601148 2745.5813267878393
1786.9945349555237 3194.9770696158303
1787.707312214343 2807.0881375947
1788.4199173803918 2819.9182555062152
1789.132350497468 2833.0157163069275
1789.8446116093583 2885.364628616632
1790.556700759822 2855.9386208289793
1791.2686179926077 2932.344623008793
1791.9803633514493 2858.270341461911
1792.6919368800554 2815.8009005429567
1793.4033386221236 3011.574097266487
1794.1145686213295 3152.939908187049
1794.8256269213307 3233.188699726298
1795.536513565774 3036.7391557897313
1796.247228598284 2695.567925799582
1796.9577720624693 2812.4497775016544
1797.6681440019165 2973.0771359539854
1798.3783444602013 2904.49091643366
1799.0883734808776 3120.4691751937635
1799.7982311074884 2946.135519165266
1800.5079173835475 2965.927472893808
1801.2174323525633 3142.363861812555
1801.9267760580187 2925.780979919722
1802.635948543386 3039.3187238191467
1803.3449498521113 2830.3973577997026
1804.0537800276325 3027.4300959042416
1804.7624391133668 2910.071091413237
1805.47092715271 2665.011222154392
1806.1792441890484 2778.665797386006
1806.8873902657433 2997.0730299453826
1807.5953654261448 2979.2600912679072
1808.3031697135812 2819.4041648814623
1809.0108031713662 2895.41602661088
1809.71826584279 2885.7813047300524
1810.425557771141 2954.279880468018
1811.1326789996747 3377.558827965417
1811.839629571632 2850.17927807343
1812.5464095302468 2854.9316721271553
1813.2530189187182 2917.126533009171
1813.959457780249 2869.961155202035
1814.6657261580076 3023.941029377642
1815.371824095153 2891.5624149589376
1816.0777516348262 3108.436657428331
1816.78350882015 2532.18643719814
1817.4890956942272 2712.474795193866
1818.1945123001533 2878.8104092898548
1818.8997586809928 2908.0505779420337
1819.6048348798067 2752.165023947059
1820.3097409396287 2808.1497205377955
1821.0144769034796 3292.6889890051907
1821.7190428143622 2987.9075014384184
1822.423438715261 3087.3111403679836
1823.1276646491478 2822.1634705475562
1823.8317206589727 2757.4666752782105
1824.5356067876692 2932.086757047355
1825.2393230781581 2916.790331284204
1825.942869573335 2599.680501100397
1826.646246316086 2699.4484345952196
1827.3494533492758 2927.1041900380114
1828.052490715756 2868.9278749246705
1828.7553584583547 2800.6950319798857
1829.458056619891 2948.799443480494
1830.1605852431585 2730.883168523516
1830.8629443709433 2663.685823447823
1831.5651340460063 2738.9583046929397
1832.2671543110919 2645.8578446763054
1832.9690052089318 3014.174163069092
1833.6706867822395 2550.17537473496
1834.3721990737104 2873.759982300972
1835.0735421260233 2984.3741144665387
1835.774715981841 2766.573250268173
1836.4757206838058 3097.0061582436583
1837.1765562745459 2713.942665016876
1837.8772227966747 2603.2509368529086
1838.5777202927839 2831.020995337923
1839.2780488054523 2826.5560035382096
1839.9782083772352 2756.5798184457603
1840.6781990506806 3045.8482457261916
1841.378020868313 2730.676151260949
1842.0776738726418 2715.9384916702993
1842.777158106157 2604.3156477011444
1843.4764736113375 2644.268564128743
1844.1756204306403 2950.539962572231
1844.8745986065078 2822.024497521562
1845.5734081813607 2671.467085813306
1846.2720491976124 2559.826190777516
1846.970521697649 2653.5148638450764
1847.6688257238511 2869.3673923305414
1848.3669613185684 2593.0653561547865
1849.0649285241452 2440.628962904559
1849.7627273829057 2772.3883131572975
1850.460357937156 2738.5790719736915
1851.1578202291857 2433.0764033996575
1851.8551143012664 2788.746814110711
1852.5522401956569 2711.7829346611707
1853.2491979545957 2993.5793612528755
1853.9459876203055 2432.870780885938
1854.6426092349902 2478.7657661315225
1855.3390628408451 2582.806281582279
1856.0353484800362 3058.2070045835667
1856.7314661947203 2786.7928429513495
1857.4274160270397 2608.370638756649
1858.123198019115 2708.1531012306114
1858.8188122130487 2479.2308050138076
1859.5142586509319 2742.744022709395
1860.209537374838 2655.602886041056
1860.9046484268183 2622.945496439733
1861.599591848917 2946.995752272764
1862.294367683151 2723.316115623336
1862.988975971528 2733.9905618260786
1863.6834167560355 2860.358084974494
1864.3776900786452 2958.1519259195643
1865.0717959813119 2591.7122704274034
1865.7657345059724 2563.9370953606017
1866.4595056945564 2727.2650423598384
1867.1531095889586 2801.8698951333
1867.846546231076 2518.3899734749325
1868.5398156627743 2782.921271293264
1869.2329179259123 2622.4930500693285
1869.9258530623283 2931.4072455525
1870.618621113843 2592.7605527579262
1871.3112221222636 2468.488720821546
1872.0036561293764 2614.4553495274113
1872.695923176956 2744.764966939972
1873.3880233067594 2817.189013229782
1874.0799565605212 2441.6717137592664
1874.7717229799673 2635.598433629202
1875.4633226068036 2894.2377805209117
1876.1547554827175 2760.6945247180984
1876.8460216493859 2617.234838504483
1877.5371211484617 2583.1321907630136
1878.2280540215852 2734.702090588959
1878.9188203103804 2427.0445505187204
1879.6094200564548 2536.140648923688
1880.299853301396 2542.526152000439
1880.9901200867826 2832.8136012500445
1881.6802204541673 2743.4732905671776
1882.3701544450942 2654.845280499613
1883.059922101087 2367.753132039436
1883.7495234636517 2877.507358210889
1884.4389585742792 2529.5306338909554
1885.1282274744517 2408.264249742996
1885.8173302056166 2517.309528635651
1886.506266809225 2626.5042808456515
1887.195037326701 2467.5793543123737
1887.8836417994517 2467.5148826352834
1888.5720802688702 2865.38463947093
1889.260352776333 2819.2040957295994
1889.9484593632042 2835.7027803610263
1890.63640007082 2577.1647594782144
1891.3241749405151 2412.432859358555
1892.0117840135954 2724.112464149309
1892.6992273313572 2730.87671471496
1893.3865049350788 2600.964896550139
1894.0736168660223 3015.201864540062
1894.7605631654333 2696.934581221135
1895.4473438745408 2323.989825887745
1896.133959034556 2495.9992552070266
1896.820408686679 2668.112439623482
1897.506692872088 2912.578652199687
1898.192811631945 2536.6160428636817
1898.8787650073991 2636.6331053273075
1899.5645530395832 2827.30917309318
1900.2501757696118 2787.575265663161
1900.9356332385796 2397.435170953547
1901.620925487574 2927.9249145241765
1902.3060525576602 2661.077717817504
1902.9910144898859 2766.298951537451
1903.6758113252872 2378.2064905767943
1904.3604431048789 2712.065456853549
1905.0449098696663 2627.5805957721823
1905.7292116606295 2552.960490679233
1906.4133485187394 2716.5057144132365
1907.0973204849488 2149.0154528677335
1907.7811276001976 2332.515417702308
1908.4647699053967 2551.1338423140064
1909.1482474414588 2539.919847944876
1909.8315602492694 2528.560534773972
1910.5147083696957 2854.203729129563
1911.1976918436012 2395.9366566729173
1911.880510711815 2445.676921071787
1912.5631650151681 2778.104811422948
1913.2456547944657 2569.0691320654287
1913.927980090495 2484.1972860027004
1914.6101409440362 2464.730824276178
1915.2921373958416 2603.1829071292336
1915.9739694866603 2525.615849296855
1916.655637257214 2811.458860069693
1917.3371407482136 2601.6305304526004
1918.0184800003572 2735.119640285863
1918.6996550543154 2816.8259810325276
1919.3806659507554 2732.4856375755808
1920.0615127303208 2640.465516754191
1920.7421954336423 2760.8796139321976
1921.4227141013343 2830.2157439982984
1922.103068773993 2567.6670505880734
1922.783259492202 2765.3328835195425
1923.4632862965227 2529.581496043635
1924.1431492275078 2522.780733725196
1924.8228483256917 2384.693694105315
1925.5023836315922 2573.89087662101
1926.1817551857057 2196.9193215978853
1926.8609630285227 2399.0662764275626
1927.5400072005123 2601.6496350112775
1928.218887742125 2508.55638811672
1928.8976046938005 2374.2325356750703
1929.5761580959588 2632.6723260147546
1930.2545479890086 2507.922066611141
1930.9327744133352 2225.133286253165
1931.6108374093164 2455.4583293294017
1932.2887370173066 2353.8067157945297
1932.9664732776473 2251.860738854083
1933.6440462306673 2570.690706814993
1934.3214559166754 2437.385392263427
1934.9987023759659 2746.5285289073863
1935.675785648813 2645.200011545158
1936.3527057754836 2748.456482237491
1937.029462796223 2851.9589102536543
1937.70605675126 2444.556295926755
1938.3824876808085 2256.05916966087
1939.058755625072 2482.3903124698454
1939.7348606242267 2448.0485410304964
1940.4108027184448 2503.3672410200597
1941.0865819478713 2613.278171641884
1941.7621983526478 2428.7698147786873
1942.4376519728921 2246.687483072664
1943.1129428487038 2495.6344481163574
1943.7880710201734 2594.3743340452975
1944.4630365273733 2658.661135784367
1945.1378394103576 2261.2661957922023
1945.8124797091714 2241.4014450271966
1946.4869574638324 2221.4188678443156
1947.161272714353 2290.089640305662
1947.8354255007234 2599.277482463286
1948.5094158629272 2422.8246205144837
1949.1832438409183 2632.0215646901206
1949.8569094746435 2638.2530308476917
1950.530412804037 2788.887218357603
1951.2037538690092 2532.388366371463
1951.8769327094578 2442.3849160719683
1952.5499493652678 2327.870121529873
1953.222803876306 2747.918188948937
1953.895496282421 2556.359371281183
1954.5680266234522 2441.3195991464786
1955.2403949392155 2558.9326996331897
1955.9126012695142 2287.525807264428
1956.5846456541403 2494.8699326599717
1957.2565281328643 2395.912737107419
1957.9282487454457 2664.2860639998194
1958.5998075316202 2642.7406953418135
1959.27120453112 2342.3881090172013
1959.9424397836501 2392.238164336792
1960.613513328908 2576.4757206175395
1961.2844252065697 2697.2314307447023
1961.9551754563017 2412.674678684147
1962.6257641177453 2327.991794547494
1963.29619123054 2210.634893083937
1963.966456834296 2249.4139564744864
1964.6365609686181 2230.0829888163585
1965.306503673086 2545.4867479372174
1965.976284987275 2170.4485156393325
1966.645904950734 2477.1565229334983
1967.315363603002 2218.9287855861644
1967.9846609836077 2452.738850976095
1968.6537971320486 2273.025196134642
1969.3227720878222 2531.4996722152327
1969.9915858904042 2436.4872343632255
1970.660238579252 2470.8967468187047
1971.3287301938108 2323.608197192764
1971.997060773514 2302.0069114440926
1972.665230357772 2317.2746967807434
1973.3332389859843 2382.3423711166174
1974.0010866975335 2248.5164935702655
1974.6687735317864 2445.884062885625
1975.3362995280932 2410.2843550843254
1976.003664725793 2413.2698578339678
1976.6708691642052 2177.44142357299
1977.3379128826364 2443.601479304593
1978.004795920373 2639.2522457011905
1978.6715183166925 2835.0279127593963
1979.3380801108524 2107.9820725124237
1980.0044813420973 2249.8757502220437
1980.6707220496555 2041.7606953362647
1981.3368022727373 2406.813035870783
1982.0027220505417 2439.7652793771445
1982.66848142225 2021.7420290600498
1983.3340804270283 2157.876224249996
1983.999519104027 2394.6065195418278
1984.6647974923835 2489.35174427372
1985.329915631215 2554.127076100284
1985.99487355963 2353.5123127733027
1986.6596713167146 2581.133571720304
1987.3243089415428 2232.8928810087764
1987.9887864731754 2630.013021753273
1988.6531039506553 2306.3360212756425
1989.3172614130071 2252.25945463915
1989.9812588992481 2198.12497034237
1990.645096448372 2028.0994989164294
1991.3087740993633 2319.532039856274
1991.9722918911848 2252.7505592337584
1992.635649862792 2371.5144923163434
1993.2988480531185 2498.6737782684195
1993.9618865010852 2424.9138343702007
1994.6247652455968 2351.112284930201
1995.287484325545 2172.362343171235
1995.9500437798033 2221.740765978823
1996.6124436472292 2215.170983266657
1997.2746839666706 2463.1533232801075
1997.936764776954 2273.741811080371
1998.598686116895 2293.894958247179
1999.2604480252903 2696.679835850414
1999.9220505409212 2529.2764097794848
2000.5834937025593 2184.519778881608
2001.2447775489582 2231.004896562671
2001.9059021188514 2515.368175355303
2002.5668674509616 2289.6622556041657
2003.2276735839987 2379.134440455549
2003.8883205566508 2708.144933038295
2004.5488084075987 2293.576984983154
2005.2091371755014 2254.8254796126075
2005.8693068990033 2129.199938325741
2006.5293176167397 2106.580579092749
2007.1891693673224 2084.112852751339
2007.848862189354 2018.7341138311433
2008.5083961214223 2210.974848221627
2009.1677712020955 2249.909620159609
2009.8269874699254 2105.85498383157
2010.4860449634598 2093.4343168273385
2011.1449437212177 2081.1044988281196
2011.8036837817108 2479.121648917707
2012.4622651834325 2335.1178604586157
2013.1206879648653 2388.9235290363868
2013.7789521644736 2187.290625988346
2014.4370578207036 2518.716644972572
2015.0950049719922 2356.6700545239296
2015.7527936567585 2577.464484230607
2016.4104239134067 2253.7957562825422
2017.067895780323 2705.5142145194986
2017.725209295886 2648.9315944801956
2018.3823644984514 2592.1269227498624
2019.0393614263648 2329.0571217817537
2019.6962001179545 2298.1702721033826
2020.3528806115355 2720.898471027412
2021.0094029454067 2450.507807067359
2021.6657671578487 2014.9550434368368
2022.321973287133 2222.0693757388913
2022.9780213715148 2211.3907908501874
2023.6339114492293 2356.338886208068
2024.2896435585026 2258.0011786119285
2024.9452177375442 2239.0944248642086
2025.600634024544 2657.8537398295825
2026.2558924576842 2422.6847406457055
2026.9109930751292 2486.346119253035
2027.565935915025 2195.9267177623306
2028.2207210155066 2577.384762458791
2028.8753484146964 2811.1360056609333
2029.529818150695 2688.9216704529226
2030.1841302615903 2566.1374008303806
2030.8382847854573 2194.2451280953615
2031.4922817603601 2434.699990855667
2032.1461212243357 2302.0205697860206
2032.7998032154192 2038.2322501338044
2033.4533277716218 2140.241196927434
2034.1066949309443 2132.339516204952
2034.7599047313688 2119.8355600635123
2035.4129572108704 2288.7652445304902
2036.0658524074006 2314.7206303830962
2036.7185903589016 2303.265729636905
2037.3711711032956 2444.1214918009855
2038.023594678496 2279.582984015218
2038.675861122394 2127.1194424964315
2039.3279704728757 2148.8051590239934
2039.9799227678031 2170.738053930504
2040.6317180450278 2210.0573445702116
2041.2833563423865 2280.637285888518
2041.9348376977014 2703.847613998169
2042.5861621487784 2463.3882703379268
2043.2373297334088 2613.390923489642
2043.8883404893695 2400.875514266689
2044.5391944544208 2566.3095691520384
2045.1898916663158 2569.7027246096386
2045.8404321627804 2778.7062799010555
2046.4908159815368 2220.8870348392797
2047.1410431602853 2249.1525344689785
2047.7911137367173 2046.4033066069758
2048.441027748504 2027.8067494352076
2049.090785233302 2009.116587969779
2049.7403862287592 2068.381683482131
2050.389830772503 2068.202049146964
2051.0391189021466 2068.080588394584
2051.688250655294 2397.4224125810115
2052.337226069527 2125.540756366429
2052.986045182417 2453.3935180203325
2053.634708031521 1993.4422784266856
2054.283214654375 2415.594161351036
2054.931565088511 2027.302514669959
2055.579759371436 2156.6829354418687
2056.2277975406523 2250.0102904600094
2056.8756796336384 2485.7949906400418
2057.5234056878617 2083.269841541278
2058.1709757407752 2294.845726946663
2058.8183898298194 2565.1670288048963
2059.465647992416 2417.309979129503
2060.1127502659747 2415.378956489205
2060.759696687888 2409.963539324154
2061.4064872955405 2404.5699418608333
2062.053122126292 2537.5531301139754
2062.699601217497 2282.4412803721452
2063.345924606485 2027.3515765880134
2063.992092330587 2240.1670175900044
2064.638104427102 2157.0399677282353
2065.283960933324 2583.650379144775
2065.92966188653 2207.6575030745157
2066.5752073239855 2160.311643876206
2067.2205972829397 2112.9393657180976
2067.86583180062 2304.9320891042967
2068.5109109142522 2210.405785558889
2069.15583466104 2358.2734418075515
2069.8006030781708 1998.3627292208712
2070.445216202821 2164.491498131601
2071.089674072153 2458.419352711149
2071.7339767233116 2427.6044944110445
2072.3781241934303 2254.166206685212
2073.0221165196253 2310.0461531055994
2073.6659537390024 2107.956956804016
2074.3096358886505 2270.25115134822
2074.953163005637 2116.1068852166864
2075.596535127028 1870.3022365723275
2076.2397522898664 2063.8304823317876
2076.882814531182 2228.975662652042
2077.5257218879924 2369.1097593802683
2078.1684743973 1980.6260514705366
2078.8110720960885 1973.8204989174046
2079.453515021336 2117.9804587030208
2080.095803209997 2262.2499220492896
2080.7379366990135 2268.0654709166274
2081.37991552532 2490.081821401134
2082.0217397258275 2355.5243908167263
2082.6634093374414 1951.4214897223842
2083.3049243970418 2241.67686490564
2083.9462849415067 2354.893161614934
2084.587491007689 2275.792598195322
2085.2285426324324 2321.4378810681364
2085.869439852564 2243.6535186953856
2086.510182704902 2129.9545872319304
2087.1507712262483 2232.5167771789556
2087.791205453381 1920.4761911880735
2088.4314854230743 2353.390670436421
2089.0716111720867 2199.8253222036255
2089.7115827371617 2015.8317140405184
2090.351400155023 2000.7171084577749
2090.991063462385 1985.6772512656003
2091.6305726959527 1819.9124895153764
2092.2699278924047 2356.853004520893
2092.9091290884153 2194.8124756960356
2093.548176320641 1951.8641806926669
2094.187069625721 2322.408724537059
2094.8258090402887 1911.657587246683
2095.464394600951 2265.392402632232
2096.102826344313 2300.746464161917
2096.741104306955 2359.687828219609
2097.379228525453 2045.9691447508326
2098.017199036358 1865.7604690419344
2098.6550158762147 2479.5221623330435
2099.2926790815527 2365.4227701872305
2099.9301886888825 2216.7818491035255
2100.5675447347076 2102.082219380552
2101.2047472555114 2386.0295488757943
2101.841796287761 2021.2312240301876
2102.47869186792 2228.606810112312
2103.1154340324265 1918.703042801153
2103.752022817709 2086.0358496029094
2104.388458260184 2189.4841362970737
2105.024740396251 2184.7656446370743
2105.660869262292 1998.76614340901
2106.296844894685 2451.2344334384798
2106.93266732978 2162.3921327885864
2107.5683366039284 1953.1162242580297
2108.2038527534532 2241.9183417820823
2108.8392158146726 2352.6921069831487
2109.4744258238843 2118.984220303843
2110.1094828173755 2154.171147974598
2110.744386831422 2518.3140985294895
2111.3791379022787 2163.4160387298234
2112.01373606619 2494.7739604016433
2112.648181359389 2238.078300439266
2113.28247381809 2224.0456960857873
2113.916613478492 2436.611515818811
2114.550600376786 2151.89447632929
2115.1844345491445 2134.9548204334233
2115.818116031729 2149.4821341088286
2116.451644860679 2189.4884060883933
2117.085021072133 1930.7753928723637
2117.718244702204 2060.727572422931
2118.3513157869984 2032.0380431661956
2118.984234362604 2102.217690651936
2119.617000465092 2156.526832697292
2120.249614130529 2543.895994893068
2120.8820753949585 2167.2821487458896
2121.5143842944162 2093.0353700846913
2122.14654086492 2103.4931650262974
2122.7785451424734 1955.681825450137
2123.4103971630702 2349.598759316649
2124.042096962681 2186.823741994632
2124.6736445772767 2406.714363344807
2125.305040042802 2066.720543262854
2125.936283395191 2128.883162735406
2126.567374670365 2256.7201188035992
2127.198313904233 2068.577736303245
2127.8291011326855 2028.048991755692
2128.4597363916037 1987.19445052912
2129.0902197168507 2097.09799514204
2129.720551144279 1909.612619811609
2130.3507307097225 2624.423692463345
2130.980758449008 2506.4990908699338
2131.6106343979427 1980.6359478807622
2132.2403585923203 2436.976300555956
2132.8699310679276 2511.8269011128787
2133.499351860526 2370.705949046446
2134.1286210058715 2103.28658587547
2134.7577385397053 2304.9615721609716
2135.3867044977487 2506.9599598771606
2136.0155189157176 2584.847172118806
2136.644181829308 2435.114757711984
2137.2726932742025 2111.136438434742
2137.901053286074 1942.275696272763
2138.5292619005777 2277.791256582962
2139.1573191533535 2072.5083788603597
2139.7852250800315 2218.975823843508
2140.4129797162295 2197.1081499929674
2141.0405830975433 1948.4844036228824
2141.6680352595613 1950.3381813470835
2142.2953362378576 1952.2177027635091
2142.9224860679915 2184.052577905901
2143.549484785508 2122.9590730354494
2144.1763324259373 2038.9476091376484
2144.803029024799 2012.9999696027571
2145.429574617594 2074.4079775644936
2146.0559692398165 2209.395093286712
2146.682212926942 2040.8432470265943
2147.308305714432 2156.5988768227626
2147.9342476377333 2412.2719091192325
2148.5600387322847 2379.3227719400375
2149.185679033506 2337.4698346335554
2149.8111685768017 2014.1189661159667
2150.4365073975678 1992.691878433198
2151.061695531187 1942.0924896489348
2151.686733013021 2325.920252959142
2152.311619878423 2201.7169721693417
2152.9363561627342 2070.8847107933807
2153.560941901278 1934.579009073852
2154.1853771293663 2263.4131898116334
2154.809661882293 2156.118132568634
2155.433796195348 2501.788420495361
2156.0577801037944 2366.9169134228846
2156.681613642895 2231.6737875267777
2157.3052968478896 1873.6717476736223
2157.928829754006 2401.8950477338294
2158.552212396462 2227.7984364569065
2159.1754448104566 2146.4298208207747
2159.7985270311783 1859.0225217849445
2160.4214590938027 1714.5718394322653
2161.0442410334927 1695.2492839860734
2161.6668728853874 1836.1779095998445
2162.289354684628 1977.4365408155816
2162.911686466332 2103.4517620144447
2163.533868265602 2355.2722328853843
2164.1559001175337 2564.6767312727015
2164.7777820572046 2286.5873374027406
2165.399514119681 2185.825817453655
2166.021096340013 1882.2083532413628
2166.6425287532384 2427.2013678688572
2167.263811394385 1860.5889632357362
2167.8849442984574 2482.3497130772157
2168.505927500455 1842.10421978013
2169.126761035366 2157.525216155328
2169.7474449381552 1957.6324944362811
2170.367979243778 2214.7857012553477
2170.9883639871823 2472.7273662396533
2171.608599203293 1997.1220085483455
2172.2286849270276 2712.1328455527982
2172.8486211932886 2647.3151762466437
2173.4684080369625 2143.4541255358545
2174.0880454929265 2483.8951511745154
2174.7075335960417 2407.731298511686
2175.3268723811543 2331.379647496932
2175.9460618831 1841.7035684866084
2176.565102136701 2054.9022370844173
2177.1839931767627 2080.8339748338594
2177.802735038078 2106.8641318049386
2178.421327755432 1928.6155075427075
2179.0397713635866 1829.837370208812
2179.658065897298 1965.6388021355917
2180.276211391305 1850.4568529867588
2180.8942078803357 2069.3735367221343
2181.5120553991 2077.0826866317466
2182.129753982299 1753.5578655142206
2182.7473036646206 2061.587888967735
2183.3647044807367 2155.338366255265
2183.9819564653044 1946.6454362735628
2184.599059652968 2200.9452169150163
2185.216014078367 2168.594257221586
2185.832819776113 2287.367957890852
2186.4494767808137 2406.292716299043
2187.065985127063 2021.7765333315049
2187.682344849436 2002.075836850303
2188.298555982501 2048.607121841899
2188.9146185608097 2095.088295618122
2189.530532618901 2085.9073110374293
2190.1462981912937 2296.930169149583
2190.761915312507 2198.1863483590814
2191.377384017036 2096.6422221581943
2191.9927043393654 2049.5287795788327
2192.6078763139667 1688.6260450818693
2193.2228999753006 1838.487143810229
2193.837775357808 1988.6832793367678
2194.452502495922 1563.76596148468
2195.0670814240602 1863.977772468427
2195.6815121766285 1813.7547487567094
2196.2957947880186 1777.1482218230244
2196.9099292926057 1740.473982397311
2197.523915724758 2194.7647466440567
2198.137754118825 1903.8277336210572
2198.7514445091456 2468.297007434866
2199.3649869300443 1793.574655261507
2199.9783814158327 2360.7725352088755
2200.5916280008096 2562.8491586319083
2201.2047267192593 2291.8154320764074
2201.8176776054515 1970.2088652138968
2202.430480693649 1724.1773670512969
2203.0431360180955 2211.6158501577347
2203.6556436130195 2323.11254329857
2204.268003512645 1559.5468097991866
2204.8802157511727 1875.8181134761599
2205.492280362796 1952.619860771038
2206.1041973816937 2029.6933105352623
2206.715966842032 2123.8100397839025
2207.3275887779655 2239.152259894482
2207.93906322363 2101.521162317835
2208.550390213153 2210.9816618851078
2209.1615697806465 2320.3047658080263
2209.7726019602105 1957.0494198113734
2210.3834867859277 1763.659517390023
2210.9942242918787 1948.2016334279483
2211.6048145121167 2026.7940551661236
2212.2152574806914 2689.0292523984144
2212.825553231638 2762.2858727157736
2213.435701798975 2835.7893165694068
2214.045703216707 2216.1427291390814
2214.655557518832 1634.2105234941826
2215.2652647393297 1853.9956111222898
2215.874824912169 1586.2790521355078
2216.4842380713 2025.7267502613656
2217.09350425067 1820.535284619714
2217.7026234842033 2274.375557845721
2218.311595805819 2267.2532644611983
2218.9204212494133 1954.4266474490607
2219.52909984888 2521.314465888424
2220.137631638092 2450.3029397540213
2220.7460166509154 2378.989057350708
2221.354254921198 1816.329360576729
2221.9623464827764 2183.9960725120754
2222.5702913694713 2045.2416481078576
2223.178089615096 1975.970792323217
2223.7857412534486 1906.5715291147803
2224.39324631831 1775.808266989708
2225.000604843457 2012.4274265950662
2225.607816862641 2253.7055263134125
2226.214882409611 2083.6503357640104
2226.8218015180973 2013.6399591325487
2227.4285742218217 1943.3754150905133
2228.0352005544864 1967.686995819613
2228.6416805497847 1680.638193203044
2229.248014241399 1975.5973093195619
2229.8542016629945 1714.2957797784698
2230.460242848223 2131.4414602582906
2231.0661378307304 2601.359194312053
2231.671886644139 1993.1275997513665
2232.277489322065 1543.9976388854761
2232.8829458981127 1626.3963474015159
2233.48825640587 1915.4771562384976
2234.0934208789095 2109.601679481822
2234.6984393507955 2304.0184034186905
2235.3033118550793 2187.5539515953515
2235.9080384252975 2046.199854931177
2236.5126190949723 1663.8380955229575
2237.1170538976166 1773.2809915331254
2237.721342866729 1640.2080997066646
2238.32548603579 2055.6890643700453
2238.9294834382763 2028.0585549343427
2239.533335107646 2048.7242767981325
2240.1370410773434 1918.312285606431
2240.740601380803 1789.1572890903942
2241.3440160514474 1961.0006074985536
2241.9472851226783 2333.1264983029314
2242.550408627896 2051.04150578886
2243.1533866004793 2381.221361720582
2243.756219073799 1966.1032490096882
2244.3589060812064 1868.9754801456615
2244.961447656049 1753.9860274025955
2245.5638438316564 2039.3893183949622
2246.166094641343 1931.8367272396183
2246.7682001184166 1898.17288918577
2247.3701602961664 1867.4369220876629
2247.971975207871 2124.508947821758
2248.5736448867974 2376.101918644651
2249.175169366197 2028.9436819328246
2249.7765486793123 2020.3012256342633
2250.3777828593684 2170.848605839024
2250.9788719395783 2120.29581494278
2251.579815953146 2084.4640692813855
2252.1806149332606 1902.2497444826167
2252.781268913097 2030.3350689914882
2253.381777925817 2036.0422517607535
2253.9821420045737 2167.3401464302883
2254.5823611825035 2156.7270502895685
2255.1824354927303 1948.5574227791876
2255.782364968365 1791.0985501430173
2256.38214964251 1633.4775544793054
2256.9817895482483 1906.2009539209423
2257.5812847186553 1916.6892516855235
2258.180635186791 1793.542167811541
2258.779840985704 1951.4455825480113
2259.37890214843 1847.796582605243
2259.97781870799 1994.8039100161168
2260.5765906973957 2142.0904800740145
2261.175218149645 2089.680468023306
2261.773701097718 2319.5859118985572
2262.3720395745895 1857.4784642580194
2262.970233613216 1615.4192190176072
2263.568283246548 1872.5629693103624
2264.1661885075137 1772.4293289001112
2264.763949429038 1896.5065449783754
2265.3615660440246 2342.4038129885575
2265.959038385374 1668.3486691322232
2266.5563664859637 2373.0880667534175
2267.153550378669 1681.4915550090996
2267.7505900963424 2072.5229544988597
2268.3474856718312 1888.5625255072075
2268.9442371379664 1821.7924461281268
2269.5408445275643 1779.4044722481517
2270.1373078734377 1814.1470636091085
2270.7336272083758 1848.9683865167135
2271.32980256516 1775.8931980211087
2271.925833976562 2081.2349690277256
2272.5217214753357 1935.2701963872357
2273.117465094223 1788.9741755052023
2273.7130648659586 1790.730369510157
2274.308520823257 1806.330400867196
2274.903832998827 2148.528805787525
2275.4990014253563 1913.1502984482208
2276.094026135528 2073.936928792197
2276.6889071620117 1867.2878086936623
2277.2836445374614 2275.5541714646447
2277.878238294519 1930.792343615433
2278.472688465812 1720.1226424951772
2279.066995083962 1509.0767519563685
2279.6611581815705 1970.7939343006205
2280.255177791232 1779.8172239906974
2280.8490539455233 2542.3374981845063
2281.442786677013 2482.3248019870443
2282.0363760182554 2081.600535895454
2282.6298220017943 1775.2645813174554
2283.223124660155 2333.787617531406
2283.816284025859 1763.5058780785253
2284.4093001314086 2381.2731463983805
2285.002173009292 1855.2368238733147
2285.5949026919952 1956.1064911040917
2286.1874892119777 1798.4040381492937
2286.7799326016993 1771.3617977612207
2287.3722328936 1744.1487568377756
2287.964390120109 1483.1377431213373
2288.556404313642 1941.1335393934528
2289.1482755066027 1996.3633767435713
2289.7400037313873 2051.598036063784
2290.3315890203703 1879.576604398983
2290.9230314059205 1872.3813296648768
2291.5143309203904 1865.2326167759936
2292.1054875961236 1991.8755893660568
2292.6965014654506 2473.6600230685845
2293.287372560684 1840.3473868825251
2293.878100914131 1813.7121155328164
2294.468686558086 1787.0783629253315
2295.059129524827 2053.0923323534103
2295.649429846617 2271.902267807479
2296.239587555716 1861.466384951568
2296.8296026843636 1939.9508568110589
2297.419475264791 1906.6771943683063
2298.0092053292137 1873.2232390771956
2298.598792909839 2377.1889480627806
2299.1882380388597 2491.9106828584845
2299.777540748455 2606.6341592420204
2300.3667010707904 2149.7385204789257
2300.9557190380256 2229.6093824066547
2301.544594682302 1978.0063614408955
2302.1333280357503 2335.5978109633597
2302.721919130485 1990.5847831957417
2303.3103679986198 2318.201696873858
2303.898674672242 2044.6878608256152
2304.486839183437 2215.4599996592524
2305.0748615642697 1927.4106362264938
2305.6627418468015 1926.1914183706026
2306.2504800630704 1792.6422230150843
2306.8380762451143 1801.1594433123646
2307.425530424949 1940.8514764034676
2308.012842634582 2080.849019014306
2308.6000129060103 2540.8311504900694
2309.187041271214 2652.5777267058347
2309.773927762164 2459.6610094957805
2310.3606724108213 2266.3552725701434
2310.9472752491274 1848.4616822773892
2311.5337363090184 2136.4170809789957
2312.120055622414 2063.89161637139
2312.706233221221 2041.920973117559
2313.2922691373424 2191.9158258299335
2313.8781634026564 2342.2542044507622
2314.463916049037 1919.6869504901617
2315.049527108342 2267.331910262747
2315.6349966124235 2273.3028740079967
2316.2203245931123 2178.693851569241
2316.8055110822315 1955.094374499821
2317.3905561115935 1730.9517744497111
2317.9754597129977 1803.9976078958512
2318.560221918229 1797.744539122162
2319.1448427590603 1791.5164630249146
2319.729322267256 1577.8896854867169
2320.313660474563 1812.4794244357774
2320.8978574127195 2041.942673397742
2321.481913113452 2272.115008307571
2322.0658276084705 1784.7653968403133
2322.6496009294806 1905.9165784219924
2323.233233108165 1920.3414305601739
2323.8167241762058 1939.7978866654898
2324.4000741652617 1982.716524118996
2324.983283106987 2294.404134706913
2325.5663510330232 2339.2203616090433
2326.1492779749933 1902.2935882161844
2326.7320639645204 2045.7048150487801
2327.3147090332004 1758.962383598246
2327.897213212629 1948.4609200744694
2328.4795765343843 2138.0721104795443
2329.0617990300307 1777.6828802837172
2329.643880731124 1936.9343437564323
2330.22582166921 2096.4918219180854
2330.807621875816 1770.3365379177071
2331.3892813824623 2037.1024768940279
2331.9708002206517 1633.4612062102265
2332.5521784218818 2066.441179152393
2333.133416017634 1976.7631251853672
2333.7145130393765 1800.1546671657488
2334.295469518571 2064.4669142935336
2334.876285486658 2303.7943416082426
2335.456960975076 2231.2182510326074
2336.037496015242 2158.5185795865314
2336.6178906385667 1907.7159213196283
2337.198144876451 1913.3709921563197
2337.778258760278 2045.9865235077673
2338.3582323214214 2008.0290729155483
2338.938065591243 1969.9329822433133
2339.517758601087 2335.32506099453
2340.0973113822965 2181.044455559538
2340.676723966193 1841.7908375805014
2341.255996384094 2018.0724289341626
2341.835128667295 2047.780989871746
2342.4141208470883 2170.9763895157157
2342.992972954751 2142.017264971085
2343.5716850215467 2158.0545176566025
2344.1502570787306 1191.8061404363964
2344.7286891575386 1764.408994118557
2345.3069812892045 2696.072107502917
2345.885133504944 2264.971747460951
2346.4631458359618 1723.3553666878365
2347.04101831345 1811.6151625746602
2347.6187509685915 1837.1529114377868
2348.196343832553 1841.7529691333657
2348.7737969364935 1900.47518346086
2349.351110311558 1704.2974839989838
2349.9282839888765 1794.5577061006577
2350.5053179995757 1620.9189294630276
2351.0822123747585 1595.8884486708298
2351.658967145526 1562.1468220939032
2352.2355823429643 1528.4397807932219
2352.812057998144 2066.86065661803
2353.3883941421263 2023.2110099867282
2353.9645908059647 2058.6936798653437
2354.540648020693 1839.0868373795943
2355.116565817336 1603.1910583894166
2355.6923442269126 1753.1513215223101
2356.2679832804224 1903.4305590588453
2356.8434830088518 1797.6239341096311
2357.41884344318 1981.7740307157878
2357.994064614377 1992.592123446651
