#exp_cfg={"servo_angle": 0.0, "laser_lim": 100.0, "servo_angle_to": 18.0, "laser_wup": 0.0, "bt_dev": "EnSpectr-25AE3", "laser_wdn_max": 0.0, "frames": 10.0, "servo_used": 0, "servo_calib_use": 0, "laser_wdn_min": 0.0, "servo_pix_from": 90.0, "cooler_tout": 300.0, "servo_angle_from": 0.0, "servo_calib": "[-1.9174921013161362e-09, 3.9322238269163779e-05, -0.27385609119055809, 653.59552119713567]", "laser_autoctl": 0, "servo_pix_to": 3682.0, "laser_pw": 100.0, "cooler_on": 0, "laser_volt": 4.0, "cooler_autoctl": 0, "cooler_curr": 70.0, "cooler_startup": 10.0, "laser_fixed_pw": 0, "gain": 1.3, "offset": 2.53059635486, "servo_calib_degree": 3.0, "laser_curr": 55.0, "shutter": 8200.0, "servo_calib_step": 1.0, "laser_fixed_curr": 0, "exp": 2000.0, "ccd_volt": 4.7, "bt_addr": "00:06:66:62:5A:E3", "servo_delay": 500.0, "laser_autooff": 1}
#proc_cfg={"flat_auto_wnd": 200.0, "flat_auto_fr": 200.0, "flat_auto_shift": 5.0, "yconv": 1, "flatten": 1, "flatten_strength": 100.0, "xfrom": 300.0, "auto_max_frame": 2000.0, "auto_signal": 48000.0, "flat_auto_tol": 0.1, "autoclip": 1, "xrel_range": 0.0, "flat_auto_to": 4000.0, "intensity_adj": 1.0, "xrel": 7852.0, "rmhot": 1, "flat_auto_slit": 4.999999999999997, "auto_ini_exp": 300.0, "auto_off": 0, "xto": 2860.0, "flat_auto_ref": "", "flat_auto_rank": 1, "autobackg": 0, "xrel_adj": 0.0, "auto_black_lvl": 1, "base_wnd": 100.0, "sub_baseline": 0, "xconv": 2, "auto_max_exp": 1000.0, "auto_total_exp": 10000.0, "auto_exp": 0, "rmripple": 0, "black_lvl": 8285.546875, "shutter_clip_adj": 0.0, "auto_bckg": 0, "flat_auto_thr": 0.9, "subbackg": 1}
316.8218498245369 12470.17106066921
317.89969571804795 12471.998321711728
318.977263876126 12431.224918221224
320.05455438786703 12163.887920314748
321.1315673423287 12147.61338895259
322.2083028285215 12264.74543897601
323.2847609354267 12158.02806157786
324.3609417519747 12141.69923844881
325.43684536705587 12004.450730807945
326.5124718695279 11985.884698262247
327.58782134820103 11938.361170393302
328.66289389184385 11962.677835407927
329.7376895891921 11791.614729438943
330.8122085289342 11809.462387565325
331.88645079971866 11854.883217015271
332.9604164901575 11695.445631170534
334.03410568881554 11663.906440067152
335.1075184842266 11818.333818402572
336.18065496487543 11595.788698524006
337.2535152192122 11619.828145284533
338.32609933564163 11636.910236862997
339.39840740253203 11551.962156122197
340.4704395082099 11505.623805551422
341.5421957409617 11388.087772070601
342.6136761890357 11460.813090505793
343.6848809406365 11408.63055118504
344.75581008392874 11281.274126007718
345.82646370703696 11298.923539030537
346.8968418980512 11274.573460837883
347.96694474501055 11260.777093772063
349.0367723359268 11236.870696958049
350.106324758759 11205.980367871
351.1756021014353 11033.1341403086
352.2446044518383 11121.640928866433
353.31333189781435 11200.695229955532
354.38178452716966 11073.900890073977
355.449962427665 11064.051935869009
356.51786568702846 11043.521823558938
357.58549439294256 11081.726051643058
358.6528486330535 11148.578277975408
359.71992849496564 11034.467887624454
360.7867340662433 11080.046227339946
361.8532654344144 11038.594299611788
362.9195226869597 11100.006881032845
363.9855059113288 11041.465638600344
365.05121519492604 10925.006977228535
366.11665062511565 11096.304798619416
367.1818122892273 10958.210554404837
368.2467002745434 11130.317780511348
369.31131466831175 11054.852301788866
370.375655557742 11014.9760783906
371.4397230299983 11042.651491169536
372.5035171722102 11081.414077354097
373.5670380714637 10926.708864800908
374.6302858148101 11138.976438697433
375.6932604892554 11022.667326295812
376.7559621817709 11009.900006851323
377.81839097928605 10921.319973597798
378.8805469686886 10914.054916480822
379.94243023683157 11092.157530689447
381.0040408705263 10943.85634730995
382.0653789565458 10856.74626529498
383.1264445816196 10821.204690090757
384.1872378324406 10857.331547430227
385.2477587956637 10872.060540851886
386.3080075579037 10847.603078179387
387.3679842057336 10667.850962589288
388.4276888256918 10776.37604206205
389.48712150426945 10686.87446036194
390.54628232792857 10650.634112079231
391.6051713830857 10613.959911644726
392.66378875611736 10746.568751026625
393.7221345333637 10684.399503432196
394.7802088011249 10563.49549209656
395.838011645661 10616.763623953691
396.89554315319765 10589.028495547527
397.9528034099112 10461.763277557733
399.00979250194723 10447.610010422373
400.06651051541485 10477.587887988391
401.1229575363741 10532.710146312853
402.17913365085224 10327.23605291591
403.23503894483656 10479.424127612405
404.2906735042761 10403.533537003877
405.3460374150818 10319.277512661742
406.401130763119 10326.14601958726
407.455953634224 10340.5254919722
408.5105061141876 10269.851299385333
409.56478828876243 10111.190883186931
410.6188002436629 10198.864590505314
411.6725420645689 10087.653681280932
412.72601383711117 10150.336657845466
413.77921564689314 10235.96052700075
414.8321475794728 10153.565945905084
415.88480972036814 10088.01566728251
416.93720215506437 10065.953697439702
417.9893249690049 9998.00146691519
419.04117824759123 9940.81336615743
420.09276207619223 9940.628701399099
421.144076540133 9966.45289630711
422.1951217247042 9908.822766655821
423.24589771515275 9968.461219808138
424.2964045966928 9919.887346234404
425.34664245449494 9950.976509607475
426.3966113736933 9817.127409324505
427.4463114393875 9791.993454962048
428.49574273662984 9805.374496336974
429.5449053504417 9713.380918836576
430.5937993658026 9883.948613218583
431.6424248676558 9792.897136064143
432.6907819409007 9749.208995615041
433.73887067040596 9795.81403580807
434.7866911409965 9839.50583344902
435.8342434374608 9760.29483437767
436.88152764455117 9768.382374719999
437.9285438469724 9707.328360907291
438.9752921294057 9632.64531250022
440.02177257648145 9642.497766582845
441.06798527279716 9630.700043412284
442.1139303029122 9802.917616771792
443.1596077513459 9727.417255258115
444.2050177025794 9598.77933610056
445.25016024105753 9631.265943770255
446.2950354511886 9658.886540091906
447.33964341733736 9667.097716596265
448.383984223834 9672.30924767449
449.4280579549686 9527.317514372024
450.471864694995 9613.699574686792
451.5154045281306 9570.686596996187
452.5586775385509 9620.340362133744
453.60168381039693 9553.681574905455
454.64442342776783 9646.03516144528
455.6868964747264 9628.238306454754
456.7291030353008 9474.94213954276
457.77104319347563 9720.249368691388
458.8127170332027 9544.785275326958
459.854124638392 9591.856746847436
460.895266092919 9752.983871272016
461.93614148061897 9630.346161450903
462.97675088529104 9708.665055224443
464.01709439069236 9650.845614426751
465.0571720805492 9735.44248199065
466.0969840385442 9735.764890870352
467.1365303483253 9851.070877545593
468.17581109350067 9742.698677429282
469.2148263576437 9689.456990023345
470.2535762242878 9726.228479954907
471.29206077693016 9879.349938669897
472.33028009902773 9856.209547182096
473.3682342740012 9834.80393496458
474.40592338523857 9859.013941056535
475.4433475160804 9879.06065767941
476.4805067498364 9878.030965806578
477.51740116978 9868.985840055086
478.5540308591426 10018.210390582386
479.59039590112116 10149.845513444587
480.6264963788726 10064.083216092666
481.6623323755193 10171.13683048717
482.6979039741436 10233.099147295961
483.7332112577915 10429.651976667348
484.76825430947247 10631.161822591934
485.80303321215797 10550.432424546489
486.837548048783 10703.54403254963
487.8717989022425 10843.818733159587
488.90578585539697 10810.231878588134
489.9395089910686 10964.16310958019
490.97296839203955 10911.363241428577
492.00616414106116 10823.65673349232
493.0390963208429 10804.351076171597
494.0717650140559 10825.546992777507
495.10417030333883 10668.636969763731
496.1363122712901 10605.247722762877
497.16819100046814 10479.918404850989
498.1998065734024 10236.829323975133
499.2311590725767 10202.117761304615
500.26224858044407 10068.61538378017
501.2930751794156 10004.921708372702
502.3236389518679 9946.559248808135
503.35393998014115 9797.537254628633
504.38397834653733 9814.221721702368
505.4137541333221 9839.365246477846
506.4432674227228 9664.954391320558
507.4725182969323 9579.840855069418
508.5015068381035 9556.576273565279
509.53023312835467 9657.7633149735
510.55869724976765 9547.132600664207
511.58689928438434 9564.783134607667
512.6148393142121 9502.511488193548
513.6425174212218 9589.60047059677
514.6699336873462 9530.553773377698
515.6970881944835 9641.166592608282
516.7239810244901 9473.695286453512
517.7506122591931 9483.647383473375
518.7769819803761 9484.950196911437
519.8030902697901 9554.466917517293
520.8289372091476 9502.879654662534
521.8545228801249 9603.384337789721
522.8798473643619 9543.459386439925
523.9049107434621 9512.493121765932
524.9297130989908 9528.330869728314
525.9542545124805 9542.81979788274
526.9785350654201 9500.123074583573
528.0025548392696 9533.623002250637
529.0263139154504 9449.939878744077
530.0498123753423 9510.969681578064
531.073050300296 9449.634826613275
532.0960277716204 9302.93899961535
533.1187448705896 9418.802728430548
534.1412016784416 9350.158375811017
535.1633982763833 9328.34678571391
536.1853347455726 9296.822810840142
537.2070111671401 9316.527137425352
538.2284276221817 9194.799339478735
539.2495841917516 9192.13969887815
540.2704809568677 9160.597354280915
541.2911179985167 9233.459522746667
542.3114953976419 9124.202920052103
543.3316132351592 9080.570427152566
544.3514715919409 9023.000427738767
545.3710705488247 9066.52954961557
546.3904101866156 9025.678727329734
547.4094905860784 9088.434058556759
548.4283118279418 8986.942534230095
549.4468739929034 9126.254248398258
550.4651771616191 9029.573145806935
551.4832214147063 8933.142375443193
552.501006832761 9013.716294663325
553.5185334963226 9022.0679277877
554.5358014859103 9090.795024885792
555.5528108820035 9038.876453493296
556.5695617650363 9000.123428613639
557.5860542154242 9037.758991985695
558.6022883135283 9020.845642354172
559.6182641396881 8957.860010114638
560.6339817741991 9068.9457095561
561.6494412973225 9090.444697721909
562.6646427892883 9133.92050915763
563.6795863302796 9014.46520768177
564.694272000459 8970.15589590371
565.7086998799423 9112.835654298124
566.7228700488104 9015.483768842747
567.7367825871115 9065.184504111554
568.7504375748576 9011.792888255655
569.7638350920224 9046.949611746199
570.7769752185486 8998.299984138826
571.7898580343353 9028.732096128613
572.802483619258 8987.01529765991
573.8148520531431 9118.84562027414
574.8269634157932 9119.85441149315
575.8388177869692 8997.230604599285
576.8504152463938 9077.40280705028
577.8617558737587 9241.679716775947
578.8728397487175 9134.891241905443
579.883666950891 9170.523910461168
580.8942375598654 9373.624004313682
581.9045516551851 9374.36390623344
582.9146093163617 9541.835077105892
583.924410622878 9431.784409495885
584.9339556541727 9481.795297183065
585.9432444896538 9635.189391253527
586.9522772086875 9450.439161631959
587.9610538906127 9582.59586945425
588.9695746147318 9483.262195484778
589.9778394603054 9539.286629134309
590.985848506567 9368.862895035247
591.9936018327098 9403.268099628334
593.0010995178891 9180.672250762489
594.0083416412344 9285.012816738741
595.0153282818283 9144.846412043942
596.0220595187293 9149.944094063416
597.0285354309508 9055.696409156577
598.0347560974806 9075.929064253507
599.0407215972609 8978.850783226106
600.0464320092051 8977.822038935086
601.0518874121954 9015.40121829313
602.0570878850685 8960.689324803137
603.062033506636 8991.063927945132
604.0667243556636 8924.545328037071
605.0711605108936 8902.502383794683
606.0753420510264 9216.894299591288
607.0792690547278 8979.78655874384
608.082941600629 8964.436912985033
609.0863597673306 9076.084678430412
610.0895236333909 9147.37927288675
611.0924332773357 9320.126733562167
612.0950887776617 9310.388685442715
613.0974902128219 9280.068622405259
614.0996376612384 9461.44385415517
615.1015312013005 9625.058431456773
616.1031709113595 9704.573051259007
617.1045568697336 9715.357603055567
618.1056891547069 9861.26077644022
619.1065678445229 9937.422657762516
620.1071930173985 10298.690168024286
621.1075647515099 10282.77736227559
622.1076831250048 10326.654554879668
623.1075482159849 10491.669602616708
624.1071601025305 10545.371339211932
625.1065188626781 10623.663169633257
626.105624574433 10924.78194052267
627.1044773157682 11013.001291253495
628.1030771646128 10957.348660143794
629.1014241988742 11121.76138941679
630.0995184964158 11276.815481628579
631.0973601350688 11268.281722329446
632.0949491926294 11454.914724045837
633.0922857468631 11232.674666156672
634.089369875499 11385.258880025238
635.0862016562278 11341.710042286793
636.0827811667077 11103.303380495714
637.0791084845641 11135.273158366525
638.0751836873878 10886.0358185597
639.0710068527369 10968.73100897307
640.0665780581294 10802.382769655253
641.0618973810506 10598.490166420244
642.0569648989604 10629.704664208417
643.0517806892676 10383.586139806446
644.0463448293649 10355.899007277249
645.040657396592 10207.488644205285
646.0347184682723 10081.245751955348
647.0285281216875 9911.403485107077
648.0220864340772 9797.975027094813
649.0153934826558 9762.182580520339
650.0084493446047 9708.52375788403
651.0012540970674 9706.84756569663
651.9938078171526 9510.775350921322
652.9861105819346 9400.25390851156
653.9781624684565 9524.825793987202
654.9699635537254 9256.521772371058
655.9615139147136 9356.41418468555
656.9528136283589 9126.105338879135
657.9438627715699 9276.720104265687
658.9346614212154 9202.872477852345
659.925209654135 8871.84302289719
660.9155075471263 8904.97628057699
661.9055551769616 8887.502186331321
662.895352620375 8968.946083147905
663.8848999540678 8825.168486286933
664.8741972547068 8676.481508350513
665.863244598926 8676.330868966408
666.8520420633213 8736.090618092645
667.8405897244611 8582.059085541552
668.8288876588758 8482.07627151598
669.8169359430613 8595.703512199723
670.8047346534822 8631.316272609844
671.7922838665672 8371.297343904283
672.7795836587156 8501.54010724575
673.766634106285 8687.616907695872
674.7534352856092 8451.46801834155
675.7399872729766 8445.433322156045
676.7262901446538 8443.479479676389
677.712343976862 8482.508129975598
678.6981488457986 8440.458343512932
679.6837048276229 8403.233378064588
680.6690119984596 8505.868858205671
681.6540704344043 8462.011757938348
682.6388802115107 8441.422220505336
683.6234414058108 8378.970781465012
684.6077540932874 8354.229123744619
685.591818349907 8351.250584781013
686.575634251587 8472.65602676845
687.5592018742263 8340.591497064755
688.5425212936734 8228.470862035587
689.5255925857564 8510.103682791267
690.5084158262707 8347.75731306355
691.4909910909646 8329.017384800813
692.4733184555644 8269.727039528902
693.4553979957618 8342.13804637293
694.4372297872123 8380.934463230209
695.4188139055404 8342.615107074089
696.4001504263324 8186.378173383166
697.3812394251509 8417.760128421858
698.3620809775111 8268.217439063024
699.3426751589104 8353.727094602551
700.3230220448004 8310.891875501504
701.3031217106054 8321.831953104938
702.2829742317172 8449.972204702382
703.2625796834873 8249.553026972872
704.2419381412474 8236.888340274552
705.22104968028 8456.215887438919
706.1999143758458 8416.139014125934
707.178532303169 8483.556728572397
708.1569035374378 8566.141851673185
709.1350281538107 8657.473618695916
710.1129062274158 8739.395391269416
711.0905378333373 9040.673609496465
712.0679230466376 9043.81688454157
713.0450619423427 9468.480079148041
714.0219545954424 9701.381413965895
714.9986010808989 9694.428769487607
715.9750014736292 9946.49375212835
716.9511558485392 10300.757941413318
717.9270642804786 10513.363048960928
718.9027268442787 10648.825969661146
719.8781436147328 10699.666692179851
720.8533146666014 10685.562854666754
721.828240074612 10729.979000540885
722.8029199134635 10632.139046059114
723.7773542578125 10425.452444278479
724.751543182294 10226.008700957062
725.7254867615029 10169.627031012626
726.6991850700015 9819.192062668699
727.6726381823228 9654.456323331713
728.6458461729599 9599.023889835904
729.6188091163858 9405.262018709172
730.5915270870246 9427.514151885063
731.5640001592856 9216.759048710659
732.536228407529 9303.203692353814
733.5082119060917 9243.619563144379
734.4799507292755 9254.071350880671
735.4514449513481 9224.308328197241
736.4226946465496 9262.239498138104
737.3936998890786 9346.728589451115
738.3644607531078 9136.057739978974
739.3349773127793 9060.328804323277
740.3052496421951 9016.559824061196
741.27527781543 8806.386253868402
742.2450619065221 8718.39221833534
743.2146019894826 8653.607707827954
744.183898138288 8612.337441702217
745.1529504268801 8532.610399390698
746.1217589291682 8224.567723608845
747.0903237190341 8237.756493384595
748.058644870318 8258.918072713068
749.0267224568397 8116.188904095771
749.994556552374 7970.792421465403
750.9621472306771 7967.762775845384
751.9294945654583 7908.887727932293
752.8965986304011 7926.131062952785
753.8634594991636 7810.587236094312
754.8300772453586 7823.335743990554
755.7964519425768 7766.20901332346
756.762583664371 7921.724058197737
757.7284724842611 7879.074648709859
758.6941184757416 7732.685519321031
759.6595217122667 7761.17623173756
760.6246822672638 7734.381562110265
761.5896002141235 7571.144064462591
762.5542756262093 7749.037634441653
763.5187085768503 7714.667175981338
764.4828991393406 7690.675587578766
765.4468473869474 7625.845063092956
766.4105533929032 7699.423619901108
767.3740172304078 7672.717547372775
768.3372389726283 7792.714020108788
769.3002186926988 7580.6026237450105
770.2629564637282 7563.263329063481
771.2254523587872 7506.598950581858
772.1877064509154 7503.437319676511
773.1497188131179 7339.630053428414
774.1114895183728 7353.631226013165
775.0730186396268 7344.092098897982
776.0343062497905 7345.150777649173
776.9953524217381 7242.982853021739
777.9561572283274 7302.684807386114
778.9167207423689 7330.578480595592
779.8770430366476 7196.173115369958
780.8371241839159 7299.444121669598
781.7969642568951 7233.370712254948
782.7565633282757 7487.536759321025
783.7159214707099 7294.3525527176125
784.6750387568281 7328.179394417019
785.6339152592227 7240.737882097337
786.5925510504512 7289.032673986071
787.5509462030477 7271.577876083591
788.5091007895098 7229.456507722173
789.4670148823006 7273.711419307305
790.4246885538596 7207.064576835712
791.3821218765861 7255.172320745953
792.3393149228505 7136.196527154908
793.2962677649975 7268.889306077801
794.2529804753303 7274.102398580476
795.20945312613 7271.619431971989
796.1656857896378 7125.119346478797
797.1216785380675 7147.5489985473105
798.0774314435985 7303.840848536628
799.0329445783846 7469.601429944303
799.9882180145414 7350.466735227868
800.9432518241574 7383.119664899708
801.89804607929 7483.8245563809005
802.852600851962 7538.041235225496
803.8069162141637 7530.330735318841
804.760992237856 7622.023441338703
805.714828994971 7684.375969537179
806.6684265574077 7753.04506286821
807.6217849970271 7671.165305697343
808.574904385674 7628.337286126502
809.527784795142 7775.555119775387
810.4804262972102 7890.194918774081
811.4328289636178 7587.149053502006
812.3849928660748 7462.702562527312
813.3369180762638 7408.219797184693
814.2886046658241 7561.753115424415
815.2400527063783 7331.72124038472
816.1912622695108 7310.2287654482225
817.1422334267718 7382.309381938391
818.0929662496856 7199.244085526628
819.0434608097457 7091.633063700872
819.9937171784059 7186.856856497808
820.9437354271013 7074.138325520869
821.8935156272255 7178.119436912132
822.8430578501484 7005.92152490258
823.7923621672016 6861.4362676684295
824.7414286496896 6973.092803046388
825.6902573688876 6941.347705403231
826.6388483960363 6915.026872845544
827.5872018023492 6769.341301602382
828.5353176590033 6926.186644269733
829.4831960371503 6762.313633110893
830.4308370079016 6804.747883433095
831.3782406423525 6891.87379011452
832.3254070115545 6854.836654830238
833.2723361865319 6759.256318963826
834.2190282382799 6735.755648940491
835.1654832377644 6781.206696266289
836.1117012559116 6672.498796599565
837.0576823636256 6873.837943294684
838.003426631778 6677.8897996106025
838.9489341312074 6604.7927644039855
839.8942049327197 6809.0859454319825
840.8392391070975 6824.039835968033
841.7840367250865 6683.471054022733
842.7285978573982 6637.44261480953
843.672922574724 6757.563485159731
844.6170109477152 6716.361428795763
845.560863046996 6717.143771435985
846.5044789431595 6745.840838724977
847.4478587067697 6623.779546239413
848.3910024083561 6841.439112069403
849.333910118421 6689.776042438559
850.2765819074339 6688.502818488955
851.2190178458332 6796.674981919848
852.161218004032 6790.076635067232
853.1031824524016 6745.67918726481
854.0449112612987 6702.427354838901
854.9864045010327 6827.2263726931515
855.9276622418947 6676.1909211852935
856.8686845541379 6733.807518425409
857.8094715079915 6724.005075765417
858.7500231736467 6881.628021807209
859.690339621271 6808.2270036407745
860.6304209209939 6777.565161242422
861.5702671429244 6635.722550751711
862.5098783571284 6793.37862829306
863.4492546336569 6785.601030797484
864.3883960425155 6773.264311565452
865.3273026536863 6764.872490697521
866.2659745371238 6670.84607940501
867.2044117627465 6986.903423051929
868.1426144004472 6797.627608601242
869.0805825200823 6900.99135920088
870.0183161914847 6882.741243111226
870.9558154844526 7033.896654587503
871.8930804687552 7008.586311240809
872.8301112141307 6850.193807332903
873.7669077902865 7049.42616233828
874.7034702669062 7170.987177673746
875.6397987136315 7094.885740551274
876.5758932000863 7094.627738984382
877.5117537958522 7184.277323156083
878.4473805704911 7071.622905791111
879.3827735935283 7102.916848341655
880.3179329344603 7291.072501916378
881.2528586627541 7303.684361790935
882.1875508478479 7378.971825825717
883.1220095591489 7209.542937548892
884.0562348660296 7150.942052313342
884.9902268378391 7314.4706853056805
885.9239855438955 7213.722456441489
886.8575110534839 7073.1327096127225
887.7908034358588 7130.013268735932
888.7238627602474 7107.023223512561
889.6566890958475 7127.724951524657
890.5892825118208 6889.024083909932
891.5216430773125 6953.188978521104
892.4537708614189 7037.997465961649
893.3856659332196 6821.84865755291
894.3173283617652 6804.428479793847
895.2487582160684 6805.92680562348
896.179955565116 6736.16932285347
897.110920477864 6672.123812719638
898.0416530232451 6694.424630155842
898.9721532701478 6640.9310615908225
899.9024212874428 6790.017781564634
900.8324571439662 6607.02906795701
901.7622609085302 6544.122808187169
902.6918326499072 6476.565106214951
903.6211724368477 6563.779797974888
904.5502803380696 6600.020146457004
905.4791564222614 6709.915246051886
906.4078007580792 6469.416261618823
907.3362134141571 6465.508924918932
908.2643944590909 6590.966315906044
909.1923439614493 6476.539369328917
910.1200619897754 6533.132357447897
911.0475486125779 6699.171524704213
911.9748038983344 6511.171081423053
912.9018279155007 6521.500540763208
913.8286207324982 6377.611705372203
914.7551824177117 6520.780043723266
915.6815130395116 6458.642489710333
916.6076126662283 6396.872720655006
917.533481366163 6472.907843126492
918.4591192075914 6518.788249883058
919.3845262587565 6512.916920649637
920.3097025878706 6380.511139668552
921.2346482631237 6371.670983568018
922.1593633526682 6360.498827953092
923.0838479246304 6497.41762281258
924.0081020471061 6551.223925032478
924.9321257881656 6246.476836995685
925.8559192158464 6374.653805960593
926.7794823981512 6207.245611707835
927.7028154030686 6288.873502496821
928.6259182985414 6231.883629579584
929.5487911524906 6423.6347869327055
930.4714340328119 6445.005335464934
931.3938470073608 6282.395860679358
932.3160301439748 6289.566664469984
933.2379835104548 6314.598303333376
934.1597071745709 6410.449997700048
935.0812012040769 6296.148974435309
936.002465666681 6380.663841228117
936.9235006300696 6453.694627573865
937.8443061619055 6389.630021553747
938.7648823298077 6254.971316568882
939.6852292013809 6278.752416392449
940.6053468441951 6446.3696607321535
941.5252353257874 6231.271474545725
942.4448947136698 6343.948465630391
943.364325075323 6309.815512275415
944.2835264782043 6460.872245987071
945.2024989897309 6399.693888363526
946.1212426773054 6386.676373461191
947.0397576082851 6448.537601080739
947.9580438500125 6610.753101237375
948.8761014697939 6624.470237906682
949.7939305349064 6558.864262771924
950.7115311125999 6419.120772349839
951.6289032700952 6381.393413521293
952.5460470745875 6621.262251369597
953.4629625932339 6466.384607299844
954.3796498931715 6478.677144793105
955.2961090415029 6577.39444182853
956.2123401053068 6541.234861670027
957.1283431516276 6515.2213285619455
958.0441182474842 6422.772763236055
958.9596654598663 6590.452587887534
959.8749848557309 6434.9647786862415
960.7900765020167 6364.130880874423
961.7049404656209 6311.112521242532
962.6195768134185 6434.644317451931
963.5339856122537 6453.041603257886
964.4481669289453 6430.583499838938
965.3621208302793 6356.357949602136
966.2758473830145 6272.922173935586
967.1893466538822 6499.545797753237
968.1026187095813 6358.418622436211
969.0156636167867 6320.280623447563
969.9284814421426 6390.906805069419
970.8410722522622 6377.543045025517
971.753436113735 6279.706753171553
972.6655730931161 6215.244657237881
973.5774832569368 6336.746021145233
974.4891666716958 6284.529899280797
975.4006234038698 6186.871054956717
976.3118535198955 6228.347269380156
977.2228570861935 6340.296830186971
978.1336341691494 6447.536271438399
979.0441848351202 6150.095363665559
979.9545091504333 6278.7989505645655
980.864607181391 6331.913236159266
981.7744789942699 6342.971938190086
982.6841246553086 6292.91486931623
983.5935442307236 6350.475928215972
984.5027377867027 6357.7963763201205
985.4117053894024 6339.780336847014
986.3204471049557 6244.186138392416
987.2289629994648 6371.555019398346
988.1372531390007 6479.80578707242
989.0453175896091 6379.785129887808
989.9531564173067 6404.313480021545
990.860769688079 6294.853652620746
991.7681574678918 6350.558629788825
992.6753198226706 6407.9406690360875
993.582256818323 6390.615760200967
994.4889685207218 6395.369507362078
995.3954549957143 6591.950424239018
996.301716309119 6548.469834773246
997.2077525267232 6470.637643969479
998.1135637142943 6490.365840493428
999.0191499375615 6612.59327502116
999.924511262232 6613.847345675427
1000.8296477539861 6534.9887519372805
1001.7345594784656 6520.200430511947
1002.6392465012996 6492.991590776319
1003.5437088880753 6572.513769208881
1004.4479467043584 6534.574229563199
1005.3519600156869 6283.450865118226
1006.2557488875718 6567.839007312699
1007.1593133854858 6477.798412105416
1008.0626535748888 6290.671586477377
1008.9657695212009 6319.79268683322
1009.8686612898182 6556.16488032489
1010.7713289461135 6545.487013860993
1011.6737725554212 6421.737961578919
1012.5759921830577 6353.708340815953
1013.4779878943027 6338.695684554997
1014.379759754418 6480.343309163623
1015.2813078286254 6365.972873825944
1016.18263218213 6190.671875564761
1017.0837328801026 6234.792838558602
1017.9846099876886 6345.392696504154
1018.8852635700023 6269.634748216596
1019.7856936921362 6139.681079710453
1020.6859004191447 6347.468430478848
1021.5858838160675 6122.926485528346
1022.4856439479063 6155.555001769675
1023.3851808796389 6086.179157066423
1024.2844946762143 6245.835579527664
1025.183585402554 6188.284582693956
1026.082453123554 5935.653861953902
1026.9810979040776 6079.647162814515
1027.8795198089647 5963.948009583587
1028.777718903024 6056.033870978303
1029.6756952510368 5983.888781754835
1030.5734489177648 5896.203878620284
1031.4709799679313 5946.54503467208
1032.3682884662358 6263.049618006281
1033.2653744773506 5770.590474497357
1034.1622380659192 5922.2324109639585
1035.058879296559 6009.735376870504
1035.9552982338591 6127.705348656685
1036.8514949423825 5956.540116885443
1037.7474694866614 5915.904434902186
1038.6432219312028 5851.772574264346
1039.5387523404825 6143.178254722244
1040.4340607789582 5932.222414061586
1041.3291473110476 5964.047848570451
1042.2240120011465 6152.187184690296
1043.1186549136273 6032.851393677431
1044.0130761128294 6006.0270495154045
1044.9072756630649 6023.753904736668
1045.8012536286205 6080.604608018668
1046.6950100737577 6146.28823019028
1047.588545062701 6137.703666656923
1048.481858659663 6073.759221467035
1049.3749509288118 6283.8888932620985
1050.2678219343034 5967.391442740084
1051.1604717402515 6152.043922399524
1052.0529004107575 5954.67793389594
1052.9451080098825 6191.988705019146
1053.8370946016694 6087.77495212613
1054.7288602501267 6101.648192055629
1055.6204050192446 6074.597915286906
1056.511728972977 6148.9334427700305
1057.402832175254 6139.888980468348
1058.2937146899785 5990.592064683816
1059.1843765810263 6043.696068246487
1060.0748179122456 6149.8691204106035
1060.9650387474576 6107.284795682525
1061.855039150456 6132.165885835952
1062.7448191850071 6145.775879663766
1063.6343789148505 6174.404906987676
1064.5237184037014 6221.48416542327
1065.412837715241 6124.3482746729005
1066.3017369131267 6072.860238254958
1067.190416060992 6130.980386806895
1068.0788752224398 6023.687188665158
1068.9671144610438 6086.619407491432
1069.8551338403558 6234.378262618168
1070.7429334239023 6116.653245201294
1071.6305132751695 5989.774704285197
1072.517873457633 6080.018914007771
1073.4050140347335 6064.3117948566105
1074.2919350698776 6163.845383111059
1075.1786366264623 6119.232017803361
1076.0651187678395 6039.0312788721485
1076.95138155735 6008.286393733514
1077.8374250582929 6021.222048902671
1078.7232493339507 6099.326238215386
1079.608854447577 6014.521371297615
1080.4942404623907 6015.949691191406
1081.3794074415982 6072.621764394403
1082.2643554483657 6173.686119371062
1083.149084545841 6042.329541112358
1084.033594797138 6028.545341725454
1084.9178862653516 6015.584188409452
1085.8019590135427 6271.503739726165
1086.6858131047484 6061.197765973084
1087.5694486019802 6182.53509383587
1088.4528655682225 6134.453850414191
1089.3360640664287 6315.839117416601
1090.2190441595321 6264.795170885188
1091.1018059104317 6230.877958422703
1091.98434938201 6248.003143308646
1092.866674637111 6324.604045343911
1093.748781738559 6254.443793008924
1094.6306707491512 6133.525113356174
1095.5123417316554 6282.5209828735115
1096.3937947488157 6059.011972823086
1097.2750298633455 6066.3244204220955
1098.156047137938 6076.077070979324
1099.0368466352556 6112.017788822632
1099.9174284179317 6185.662148756425
1100.7977925485757 5891.092651910742
1101.6779390897755 5885.59355515881
1102.5578681040806 6001.822859291438
1103.4375796540226 5973.319949605952
1104.3170738021054 5896.421264659106
1105.1963506108077 5684.355389890102
1106.0754101425773 5773.002759057578
1106.9542524598382 5878.990659315312
1107.8328776249855 5758.521295800815
1108.7112857003904 5782.486196615258
1109.5894767483987 5725.047425062598
1110.4674508313292 5937.500188900111
1111.3452080114657 5695.207815080666
1112.2227483510815 5906.726033040421
1113.1000719124077 5868.561635541168
1113.9771787576592 6024.636350111841
1114.854068949022 5827.239135959308
1115.7307425486542 5936.601010432899
1116.6071996186893 6079.141495166196
1117.483440221229 6202.196588066569
1118.3594644183577 5993.686521604433
1119.235272272128 6047.398923094174
1120.1108638445658 6179.457860434337
1120.9862391976712 6448.911003478375
1121.8613983934229 6392.806596019026
1122.7363414937627 6418.704151495921
1123.6110685606182 6409.773189758166
1124.485579655884 6613.78047567669
1125.359874841426 6497.0902704034925
1126.2339541790916 6480.0485540266545
1127.1078177306936 6789.658772146837
1127.9814655580267 6566.291628781687
1128.854897722851 6642.620134676709
1129.7281142869106 6615.242924278247
1130.6011153119125 6625.9585326539145
1131.473900859548 6796.847541296034
1132.3464709914697 6603.355822877614
1133.2188257693178 6535.28412483823
1134.0909652546961 6418.174044292992
1134.96288950919 6419.168704220314
1135.8345985943506 6597.271416440582
1136.7060925717087 6294.430299803099
1137.57737150277 6332.979411896706
1138.4484354490069 6498.2555913847045
1139.3192844718778 6249.076855475097
1140.1899186327992 6068.501924127506
1141.060337993178 6277.249302188784
1141.930542614382 6068.89938933462
1142.8005325577597 5939.590951620491
1143.670307884635 5751.068260654051
1144.5398686563003 5906.355838756552
1145.409214934025 5880.915911078488
1146.2783467790541 5600.412953563258
1147.1472642526023 5720.305629938031
1148.0159674158622 5791.641594804048
1148.8844563300026 5630.08158634136
1149.7527310561618 5518.182035982163
1150.6207916554504 5429.421575579167
1151.4886381889592 5415.950058211052
1152.3562707177498 5564.822551378408
1153.2236893028585 5432.408629374169
1154.090894005296 5312.259426676535
1154.9578848860474 5425.2670131698715
1155.8246620060709 5491.524675532822
1156.6912254262988 5241.153690603542
1157.5575752076438 5352.39838724027
1158.42371141098 5486.830470306068
1159.2896340971656 5421.471621632167
1160.1553433270346 5291.526325154184
1161.0208391613887 5359.04311082713
1161.8861216610057 5362.1474063102705
1162.75119088664 5363.458826922924
1163.6160468990201 5314.256648077248
1164.4806897588442 5222.050260430176
1165.3451195267917 5381.606974635139
1166.2093362635114 5385.612552832359
1167.0733400296285 5354.894389528474
1167.9371308857444 5277.217646464173
1168.8007088924278 5193.187842811499
1169.6640741102328 5306.190251846517
1170.5272265996773 5243.89473341304
1171.390166421259 5116.213045011581
1172.252893635452 5246.932151988492
1173.1154083026995 5422.785106652637
1173.977710483421 5341.2852194313
1174.8398002380145 5129.422279820446
1175.7016776268483 5346.278315209167
1176.563342710264 5315.695489145857
1177.4247955485826 5166.86805501297
1178.2860362020947 5344.5525767232775
1179.147064731069 5198.382617024822
1180.0078811957483 5355.234106932532
1180.8684856563486 5231.381594807432
1181.7288781730604 5354.988195201697
1182.589058806052 5313.4241960885065
1183.4490276154593 5524.441027854767
1184.3087846614017 5320.906124493548
1185.1683300039676 5321.660375297431
1186.027663703222 5616.480901474572
1186.8867858192025 5384.884713793419
1187.7456964119228 5460.863763619992
1188.6043955413716 5503.793737804181
1189.4628832675116 5578.465639732115
1190.3211596502842 5740.734947547224
1191.179224749596 5738.928662062526
1192.0370786253388 5551.740343209934
1192.8947213373758 5738.3006889207845
1193.7521529455407 5845.014083517942
1194.6093735096438 5601.823896351479
1195.466383089477 5651.2866673371345
1196.3231817447977 5695.341611278603
1197.1797695353398 5866.813334232364
1198.0361465208189 5576.5428038846985
1198.8923127609214 5567.905080917937
1199.7482683153048 5767.980995379649
1200.6040132436028 5947.770044879215
1201.459547605431 5745.173944758714
1202.3148714603722 5760.130717109119
1203.1699848679855 5753.104560588022
1204.0248878878065 5798.671415030245
1204.8795805793507 5431.279313620274
1205.7340630020935 5669.077323987583
1206.5883352155033 5668.216008198484
1207.4423972790064 5649.487372069566
1208.2962492520237 5541.283920779711
1209.1498911939307 5480.587863522051
1210.0033231640937 5623.042108872667
1210.8565452218427 5548.755019349315
1211.7095574264913 5236.01351916522
1212.5623598373222 5323.73547058133
1213.4149525135963 5369.942045649808
1214.2673355145507 5463.1553613787455
1215.1195088993936 5317.901095921048
1215.9714727273113 5283.975405375119
1216.8232270574663 5426.362900358754
1217.6747719489904 5132.922413527291
1218.5261074609934 5210.009074094903
1219.3772336525653 5242.110127589775
1220.2281505827668 5302.108707886402
1221.0788583106296 5344.05015016393
1221.9293568951707 5145.8864850519985
1222.7796463953746 5087.708639875713
1223.629726870202 5308.983184839991
1224.4795983785934 5307.47671393098
1225.3292609794553 5167.372791866044
1226.1787147316809 5021.082965003152
1227.0279596941327 5208.396950998421
1227.8769959256424 5129.922808877291
1228.7258234850306 5208.4445941761505
1229.5744424310833 4990.20595388139
1230.422852822563 5154.6410123599435
1231.2710547182105 5370.214263313486
1232.119048176739 5152.641280278873
1232.9668332568417 4948.923610051176
1233.8144100171812 5228.8731978364685
1234.6617785163999 5220.951622908449
1235.508938813111 4892.069654959004
1236.3558909659114 4986.245845159379
1237.2026350333617 5268.560336264952
1238.049171074008 5317.026774375539
1238.8954991463652 5053.485152269931
1239.741619308932 5169.5318766589535
1240.587531620169 5248.277650793492
1241.4332361385277 5325.835139593049
1242.2787329224248 5076.99708738932
1243.1240220302534 5069.139620227752
1243.9691035203869 5033.4493926585965
1244.813977451171 5326.2999121256125
1245.6586438809263 5177.248326144935
1246.5031028679496 4896.598757538551
1247.3473544705157 5220.910691661886
1248.1913987468706 5143.635516845672
1249.0352357552383 4987.847077640868
1249.8788655538228 5062.708244699068
1250.7222882007918 5261.887998723514
1251.565503754302 5260.592539572654
1252.4085122724755 4982.152599496412
1253.2513138134182 5273.605663976659
1254.0939084352049 5246.910993314466
1254.9362961958905 5127.202927274853
1255.7784771535007 5079.397500474995
1256.6204513660432 5240.039896792606
1257.4622188915 5440.581283850546
1258.3037797878242 5145.93650690705
1259.1451341129468 5104.284598780287
1259.9862819247755 5232.163454093498
1260.8272232811978 5192.386910356788
1261.6679582400666 5428.031959616585
1262.5084868592203 5083.147611781516
1263.34880919647 5107.418458492951
1264.1889253095997 5167.902401918573
1265.0288352563712 5433.646910795651
1265.8685390945266 5172.36400189853
1266.7080368817751 5267.222697496329
1267.5473286758115 5344.04744692438
1268.386414534294 5301.6777520820015
1269.2252945148703 5041.392506359282
1270.0639686751547 5209.01855517606
1270.9024370727402 5158.413533022269
1271.7406997651997 5124.644356056426
1272.5787568100714 5045.330350369935
1273.4166082648808 5147.994222656879
1274.2542541871244 5171.43979764263
1275.091694634275 5424.563285822862
1275.9289296637817 4967.427048493565
1276.7659593330663 5214.92865308578
1277.6027836995308 5190.457616878286
1278.4394028205552 5299.219499471397
1279.2758167534867 5228.764231745126
1280.112025555658 5071.744347656965
1280.9480292843746 5218.15087360492
1281.7838279969128 5026.218241612622
1282.6194217505326 5073.12664567968
1283.4548106024686 4943.474036379837
1284.289994609926 5080.043439520421
1285.1249738300921 5217.413779726056
1285.959748320127 5046.219596926878
1286.7943181371702 5054.053646862345
1287.6286833383328 5093.268578011832
1288.4628439807038 5135.530223520558
1289.2968001213521 4978.956726710479
1290.1305518173194 5127.5511708049025
1290.9640991256183 5174.744887429564
1291.7974421032523 5062.74891556879
1292.630580807183 4978.989148721205
1293.463515294361 5168.225452996723
1294.29624562171 5340.0344214999795
1295.12877184613 5095.900591512811
1295.961094024493 5145.514776670927
1296.79321221365 5256.970241592303
1297.6251264704333 5271.699197193737
1298.4568368516466 5591.863302045875
1299.2883434140658 5280.431475943154
1300.1196462144526 5128.125298565848
1300.9507453095375 5420.835462299878
1301.7816407560313 5439.374979548995
1302.6123326106172 5280.432691299111
1303.4428209299622 5247.147124193343
1304.2731057707024 5565.577484904312
1305.1031871894502 5365.37589803042
1305.933065242798 5494.7241223937945
1306.7627399873181 5443.838862032455
1307.5922114795467 5724.35536774928
1308.4214797760123 5607.294293983605
1309.2505449332057 5507.914138576583
1310.0794070076026 5576.708002672855
1310.9080660556538 5752.3507591785365
1311.736522133786 5801.04182124297
1312.5647752983987 5587.796401024889
1313.3928256058734 5419.891196331415
1314.2206731125661 5692.605696716737
1315.048317874809 5600.490239580924
1315.8757599489109 5630.24716737768
1316.7029993911547 5654.007533586445
1317.5300362578055 5867.655107648086
1318.356870605101 5657.334527106354
1319.183502489257 5622.219198533063
1320.0099319664623 5740.466524914431
1320.836159092889 5743.614184534161
1321.66218392468 5847.787580490736
1322.4880065179532 5651.531814628255
1323.3136269288134 5676.94771022631
1324.1390452133292 5788.930961335709
1324.9642614275563 5927.648732735852
1325.7892756275214 5754.524797562304
1326.6140878692295 5631.451045825825
1327.4386982086617 6147.107755532948
1328.2631067017755 5759.8422850469415
1329.0873134045069 5729.300718947719
1329.911318372764 5667.20924423601
1330.735121662441 5691.720136472035
1331.558723329399 5568.541208203132
1332.3821234294774 5525.425510459216
1333.2053220185007 5561.077724822112
1334.0283191522612 5565.420504820066
1334.851114886529 5684.75807115068
1335.6737092770582 5341.061441717999
1336.4961023795695 5479.0943789696485
1337.3182942497697 5363.941023861451
1338.1402849433325 5462.341945496146
1338.962074515921 5263.38505435429
1339.7836630231632 5157.536937798565
1340.6050505206676 5650.933538502542
1341.426237064028 5443.682844835835
1342.2472227088037 5198.937800162968
1343.0680075105338 5122.860562455123
1343.888591524741 5300.677967975973
1344.7089748069138 5382.970060504855
1345.5291574125276 5325.992880440112
1346.3491393970307 5096.2317906163535
1347.168920815846 5315.51994142592
1347.9885017243778 5353.84345888498
1348.8078821780036 5148.9212423214585
1349.6270622320844 5240.092016703067
1350.4460419419447 5083.569317752849
1351.2648213629054 5274.198288993142
1352.0834005502438 5017.853578469577
1352.90177955923 5012.6135831156735
1353.7199584451064 5251.746884365924
1354.5379372630887 5152.838299800918
1355.355716068374 5139.6745386084895
1356.1732949161305 4995.850138267217
1356.9906738615155 5092.332441644615
1357.8078529596478 5141.46042834836
1358.6248322656375 5237.545996796264
1359.441611834567 5086.077096203018
1360.2581917214866 5227.229638911325
1361.0745719814367 5131.908613984112
1361.890752669433 5020.587997443759
1362.7067338404577 4915.821214469143
1363.5225155494845 5231.876836944689
1364.3380978514506 5224.554326581355
1365.1534808012839 4887.672214465977
1365.9686644538815 4819.40634690588
1366.783648864117 5272.036690202134
1367.5984340868417 5280.031282000125
1368.413020176893 5145.711834168314
1369.2274071890715 4907.479988371877
1370.0415951781652 5256.770288955359
1370.8555841989346 5052.402822195832
1371.6693743061223 4993.307698741189
1372.48296555444 4862.651566122958
1373.2963579985844 5087.46320287126
1374.1095516932255 5087.631431543555
1374.9225466930166 4682.092463502119
1375.7353430525782 5025.584600181019
1376.5479408265164 4913.189690693444
1377.36034006941 5093.89434610771
1378.1725408358216 5068.060016127066
1378.9845431802805 4781.829766339057
1379.796347157304 5234.611945929304
1380.6079528213813 5081.962777028236
1381.4193602269788 4782.895053452045
1382.230569428546 4824.317106173055
1383.0415804805016 5018.084103381059
1383.852393437246 4939.477280445566
1384.6630083531563 4988.564785934426
1385.4734252825892 4861.4660374438945
1386.2836442798798 4985.72627412968
1387.0936653993322 5004.62791008133
1387.9034886952395 4857.184101443679
1388.713114221864 4994.811340907941
1389.5225420334482 4974.667538676214
1390.331772184214 4911.835954805529
1391.1408047283585 4687.1278803860505
1391.9496397200564 4876.923627234171
1392.758277213461 5066.278050266699
1393.5667172627054 5117.5057813993735
1394.3749599218918 4931.590738882211
1395.1830052451114 4709.782409760108
1395.9908532864265 4901.736132262016
1396.7985040998774 5060.256142139382
1397.6059577394808 4712.657446075298
1398.4132142592352 4774.4081306925755
1399.2202737131156 4797.882666202974
1400.027136155073 5058.75390972813
1400.8338016390353 4708.576054753985
1401.6402702189134 4737.8831737599585
1402.446541948586 4821.429147361459
1403.2526168819204 4754.16425767792
1404.058495072757 4653.019143406737
1404.8641765749107 4727.6752799557635
1405.6696614421799 4807.004969823879
1406.4749497283356 5129.007084794377
1407.280041487129 4646.934975284727
1408.084936772295 4515.964380329127
1408.8896356375335 4941.542088812226
1409.6941381365323 4965.203818473345
1410.498444322955 4521.865017735884
1411.3025542504402 4721.731580370494
1412.106467972606 4762.451952196446
1412.9101855430508 4810.509744394973
1413.7137070153458 4554.786764345136
1414.5170324430437 4682.607579778708
1415.320161879672 4813.920001155533
1416.1230953787435 4995.514843126381
1416.925832993742 4606.155578850552
1417.7283747781275 4521.304216552165
1418.5307207853439 4773.9055736977925
1419.3328710688093 4699.3756309129085
1420.134825681922 4429.891929674022
1420.9365846780584 4582.9600585669195
1421.7381481105713 4901.866814353508
1422.539516032788 4737.494997212744
1423.3406884980232 4510.198935163173
1424.1416655595604 4473.996889597839
1424.942447270665 4607.691151330762
1425.7430336845828 4775.1181605783895
1426.5434248545298 4527.4095622687655
1427.3436208337116 4750.257032348254
1428.143621675301 4751.356038423794
1428.9434274324558 4896.36090004664
1429.7430381583108 4567.304188381937
1430.5424539059713 4677.088761613916
1431.3416747285337 5064.745843477576
1432.1407006790632 4868.265962128976
1432.9395318106053 4782.858861369228
1433.7381681761835 4642.53953825703
1434.5366098288014 4941.39760963492
1435.3348568214424 4884.269103527794
1436.1329092070573 4608.045278949128
1436.9307670385879 4807.740616260011
1437.7284303689503 4845.759187507423
1438.5258992510335 4950.816840537305
1439.3231737377118 4767.314828870194
1440.1202538818306 4700.101232815714
1440.9171397362225 4738.179033706839
1441.7138313536925 4847.680385215463
1442.5103287870243 4548.752661977107
1443.3066320889775 4531.682525396014
1444.1027413122956 4821.91960112851
1444.8986565096966 4668.1771243107005
1445.694377733882 4657.060585669706
1446.4899050375207 4544.800371799827
1447.2852384732687 4620.266769628372
1448.0803780937622 4814.507065082333
1448.8753239516063 4539.275814019656
1449.6700760993954 4418.714134399468
1450.464634589689 4498.1601763374465
1451.2589994750397 4851.2830755328505
1452.0531708079689 4402.291924986434
1452.8471486409799 4402.040440036158
1453.6409330265524 4740.660126718958
1454.4345240171442 4452.805798598307
1455.2279216651987 4402.745351587472
1456.0211260231263 4449.265313119974
1456.8141371433194 4611.131195558754
1457.6069550781594 4621.471305542846
1458.3995798799897 4241.625746038188
1459.1920116011424 4452.595603120139
1459.98425029393 4216.690729743471
1460.7762960106338 4295.390560281904
1461.5681488035225 4389.256872649114
1462.3598087248392 4417.3822970943265
1463.1512758268036 4689.503156617928
1463.942550161617 4317.320365073616
1464.7336317814625 4231.55468694516
1465.524520738496 4398.960091326051
1466.3152170848552 4168.894682357937
1467.1057208726506 4334.71651311228
1467.8960321539817 4181.402245708314
1468.6861509809169 4085.0874739780147
1469.4760774055085 4162.344622749276
1470.265811479785 4183.811978797843
1471.055353255755 4056.838626922165
1471.844702785409 3917.3284842868147
1472.6338601207044 3958.3489791453712
1473.4228253135934 4315.823216356248
1474.2115984159936 3907.6906053690154
1475.0001794798063 3745.523404104822
1475.7885685569145 4053.703192034809
1476.576765699172 3991.2948172651986
1477.3647709584238 3890.018189935269
1478.1525843864802 4154.39894076609
1478.9402060351367 4152.509190469509
1479.7276359561693 4086.077961947557
1480.514874201328 3884.762863427045
1481.3019208223468 3636.9724862865796
1482.0887758709323 3686.6229377650643
1482.8754393987747 4162.481237041554
1483.6619114575406 3811.4524991967073
1484.4481920988783 3879.68846628833
1485.2342813744108 4036.9218823571755
1486.0201793357446 4144.6939260146955
1486.8058860344572 3850.83623019574
1487.591401522117 3853.8747516799785
1488.3767258502594 3911.007201831925
1489.1618590704056 3956.9746101629935
1489.9468012340494 3572.1552651963952
1490.7315523926754 3916.497994435812
1491.5161125977356 4043.438189534343
1492.3004819006637 3999.5570394071933
1493.084660352877 3734.475749103292
1493.8686480057622 3950.740169859204
1494.6524449106964 4260.271563850274
1495.4360511190262 4170.809273011424
1496.219466682087 3941.492737223341
1497.0026916511779 3950.3355154059827
1497.7857260775945 4000.4427156598395
1498.5685700125996 4001.539338886636
1499.3512235074395 3727.889605171176
1500.133686613337 3755.825613084661
1500.9159593814966 3833.610490974049
1501.698041863101 4434.544837838275
1502.4799341093094 3758.238646540861
1503.2616361712662 3652.8915110159783
1504.043148100087 3997.190793966559
1504.8244699468742 3966.9313442934063
1505.6056017626997 3724.3289740749765
1506.3865435986281 3788.8457148728003
1507.1672955056893 3994.227977782556
1507.9478575348967 3798.5108209288
1508.7282297372512 4045.5309364816653
1509.5084121637192 3864.458618900673
1510.2884048652577 3856.0537751238635
1511.0682078927948 3823.0119322195474
1511.8478212972423 3835.6171938423313
1512.6272451294917 3760.3662295014037
1513.4064794404076 3893.594420519119
1514.1855242808433 3903.2552630492223
1514.9643797016215 3826.3796099076017
1515.743045753552 4017.6161677739715
1516.5215224874191 3959.007273581202
1517.2998099539836 3644.25293702626
1518.077908203999 3803.300581523622
1518.8558172881785 3775.7245463637314
1519.633537257234 3859.9802315680545
1520.4110681618404 3908.568079619302
1521.1884100526604 3923.800599966545
1521.9655629803365 3900.6242949315406
1522.7425269954856 4048.0823606827553
1523.5193021487103 4176.744691512273
1524.2958884905856 3796.406378927021
1525.0722860716687 3874.640152069828
1525.848494942502 3777.4451617999607
1526.624515153595 3915.8170731760874
1527.4003467554485 3906.267241290437
1528.175989798534 3980.913392399204
1528.9514443333064 3917.8053336883304
1529.726710410203 4174.1055359048205
1530.5017880796331 3743.147127155189
1531.276677391992 3894.755277918689
1532.0513783976457 4168.008590730769
1532.825891146953 3898.923284821679
1533.6002156902414 3999.3893081167143
1534.3743520778207 3931.844740987826
1535.1483003599806 3971.828358939314
1535.9220605869923 3984.1207770770006
1536.6956328091019 4023.223832743703
1537.4690170765407 3933.754930991351
1538.242213439511 4016.7515457975155
1539.015221948208 3911.426105428268
1539.78804265279 3886.759141876766
1540.560675603405 3722.1974955077794
1541.3331208501804 4120.189803280062
1542.1053784432224 4086.5464472285457
1542.8774484326168 3969.1589161523834
1543.649330868422 3912.5435904952637
1544.4210258006842 3934.39773476259
1545.1925332794308 3910.8145175537275
1545.9638533546604 3954.2561468874983
1546.7349860763552 3818.640454281243
1547.5059314944829 4276.230177340684
1548.27668965898 3961.457919657776
1549.0472606197673 4009.7845630978723
1549.817644426752 3859.3179906691703
1550.5878411298072 4168.895176450196
1551.3578507787988 4016.890955940282
1552.1276734235635 3857.009098985677
1552.8973091139233 3948.7499567296372
1553.6667578996767 4172.425137007386
1554.436019830604 3931.45616901748
1555.20509495646 3862.377697148017
1555.9739833269869 3793.636703924412
1556.7426849919011 3792.866437422925
1557.511200000903 4272.305616731039
1558.2795284036674 4086.3363337563874
1559.0476702498509 3921.516446355205
1559.8156255890954 4142.113817810125
1560.5833944710157 4370.747157497385
1561.3509769452048 3868.9468653935355
1562.1183730612447 3936.256542763672
1562.8855828686865 3948.6813475722056
1563.6526064170703 4434.599957240337
1564.4194437559127 4245.392301831962
1565.1860949347047 3951.2610606597605
1565.9525600029283 4327.30256239977
1566.7188390100328 4508.980981926348
1567.4849320054564 4012.8884114994335
1568.250839038612 4051.260979547767
1569.0165601588997 4069.562834408548
1569.7820954156887 4214.078465619305
1570.5474448583373 4043.844048269454
1571.31260853618 4040.340081579405
1572.0775864985299 3913.284974271262
1572.8423787946813 4207.742140770078
1573.6069854739108 3979.0919959504668
1574.371406585471 4112.093561555495
1575.1356421785986 4180.553564317786
1575.899692302506 3971.1514926061413
1576.6635570063845 4202.852736927797
1577.4272363394157 4061.7962216224796
1578.190730350747 4083.393922151777
1578.9540390895163 4212.254531717377
1579.7171626048384 3793.8177360371
1580.480100945806 3937.801463025501
1581.2428541614918 3990.4264907665142
1582.0054223009538 4208.980487640799
1582.767805413223 4002.3173973668345
1583.5300035473156 4067.3599611455893
1584.292016752228 4276.652726144977
1585.0538450769309 4222.314551027571
1585.8154885703807 3738.3835576012775
1586.5769472815136 3847.9958375861343
1587.3382212592405 4000.4108371625543
1588.099310552463 4193.106285837589
1588.8602152100484 3895.8979459980437
1589.6209352808564 4174.241537501975
1590.3814708137234 4023.8904311197975
1591.14182185746 4355.3142261298035
1591.9019884608679 3971.2636475605204
1592.6619706727215 3701.240860426886
1593.4217685417734 4003.353213417982
1594.1813821167616 4198.343427948576
1594.9408114464022 3727.961110538827
1595.7000565793933 3796.900996828309
1596.459117564409 4013.872306095588
1597.2179944501113 3793.668053316212
1597.9766872851324 3847.736201170056
1598.735196118092 4015.8622700419464
1599.4935209975883 3969.8832659660466
1600.2516619721973 4130.183731231402
1601.0096190904787 3857.1056598256787
1601.7673924009723 3836.5982779901788
1602.524981952196 3791.4475865348263
1603.2823877926476 3857.1633257452404
1604.0396099708087 3758.3786669628926
1604.7966485351371 3695.201767706795
1605.5535035340745 3789.0562425221456
1606.3101750160404 4148.341379655119
1607.0666630294363 3801.867967948496
1607.822967622642 3621.154043619589
1608.5790888440224 3893.806350924876
1609.3350267419137 4062.9610673360926
1610.0907813646445 3828.076196881204
1610.8463527605145 3668.3606669377928
1611.601740977805 3939.399120168239
1612.356946064785 3880.4077260231934
1613.1119680696902 3613.737188930383
1613.8668070407512 3698.6677043099894
1614.6214630261748 3638.9506885180417
1615.375936074137 3935.8830590104553
1616.1302262328118 3780.265859918519
1616.8843335503425 3897.484981422941
1617.638258074854 3649.5797771448533
1618.391999854457 3744.4520716806073
1619.1455589372363 3852.1688335943522
1619.8989353712623 3771.4193024554943
1620.65212920458 3375.199646867364
1621.4051404852235 3582.7155886408386
1622.1579692611976 3801.0950553956354
1622.9106155804966 3456.817715216524
1623.663079491087 3686.4444612292623
1624.4153610409248 3893.799992923838
1625.1674602779385 3648.0612578351197
1625.9193772500403 3496.277433961991
1626.6711120051277 3977.8004963243447
1627.4226645910676 3745.324615894669
1628.174035055721 3501.2064698001486
1628.9252234469168 3821.1510290025517
1629.676229812474 3594.5503873327057
1630.4270542001905 3933.6686061268438
1631.1776966578382 3688.6786340440385
1631.9281572331747 3638.6215356803996
1632.678435973945 3804.261497761939
1633.4285329278573 3802.940425493088
1634.1784481426203 3424.5116678523787
1634.9281816659113 3713.9529160101592
1635.677733545388 3977.884608798694
1636.4271038286934 3684.6818702145893
1637.176292563452 3854.819673818093
1637.9252997972635 3692.5535478463235
1638.674125577716 3838.7600416061678
1639.4227699523672 4179.281064369821
1640.171232968767 3472.688249322593
1640.9195146744423 3847.4227397370355
1641.6676151168977 3968.7407725106664
1642.4155343436178 3978.7100830209274
1643.1632724020765 3708.3069255374367
1643.9108293397167 3771.01707067917
1644.658205203974 3690.761488042723
1645.4054000422566 4368.342720733616
1646.1524139019566 3810.289119404754
1646.8992468304423 3591.0090466270876
1647.6458988750728 3726.279851270282
1648.3923700831765 3726.3937545582207
1649.1386605020743 3752.9717729550125
1649.8847701790564 4023.1765447169373
1650.6306991614038 3826.5259291964257
1651.3764474963682 3934.500155498989
1652.1220152311944 3583.700740466406
1652.867402413096 4000.712978869532
1653.6126090892776 3869.74144457047
1654.3576353069184 4207.475014738516
1655.1024811131829 3881.9921539749216
1655.8471465552066 3897.7187026982856
1656.5916316801213 4149.150113738762
1657.3359365350298 3971.7507378991736
1658.0800611670165 3878.027642688917
1658.824005623148 3909.4993842104714
1659.5677699504722 3724.921220206553
1660.3113541960192 4004.7599945595275
1661.054758406799 3852.240359557971
1661.7979826297997 3683.757270438023
1662.5410269119966 3832.8344824041947
1663.283891300338 4000.419007478346
1664.0265758417645 3670.0686972915983
1664.7690805831826 3814.8229536326517
1665.5114055714948 4033.209845864122
1666.2535508535748 4251.061055845674
1666.9955164762814 3523.8571530619497
1667.7373024864555 3850.945021430484
1668.478908930916 3952.576030110755
1669.220335856462 3744.435948759524
1669.9615833098778 3751.149821442564
1670.7026513379296 3648.276292714684
1671.44353998736 3826.3583791170777
1672.1842493048916 3869.544491622398
1672.9247793372379 3706.413503892801
1673.6651301310812 3789.39938583162
1674.4053017330934 3668.7208076690913
1675.1452941899242 3891.7550461702726
1675.885107548207 3344.3110240057504
1676.6247418545518 3392.1661813024393
1677.3641971555535 3517.4134577044897
1678.1034734977893 3766.7859663098816
1678.8425709278108 3628.5912067616096
1679.5814894921605 3827.6384664327916
1680.320229237359 3663.5862517427713
1681.0587902098978 3864.6723512004683
1681.7971724562685 3569.7730565797474
1682.5353760229264 3462.472596521829
1683.2734009563173 3685.9409967561196
1684.0112473028657 3465.305331766164
1684.7489151089794 3621.9964396057876
1685.4864044210462 3714.7003837821444
1686.2237152854377 3141.22899330889
1686.960847748498 3689.0879830836507
1687.6978018565642 3338.07573977239
1688.434577655944 3308.370132405116
1689.1711751929379 3293.961598290481
1689.9075945138156 3445.827372210659
1690.6438356648396 3374.155395592781
1691.3798986922448 2975.7165820216637
1692.1157836422499 3281.0550877508103
1692.851490561059 3188.925393452403
1693.587019494853 3277.1933239095715
1694.3223704897991 2994.047900327
1695.0575435920364 2928.5914907024207
1695.792538847696 3533.265631102359
1696.527356302886 3016.995426577384
1697.2619960036936 2929.2500018134706
1697.9964579961907 2997.9548723076464
1698.730742326432 2696.5753889955345
1699.4648490404488 2845.88156533689
1700.1987781842563 3112.6012486496174
1700.9325298038548 3137.8418277864394
1701.6661039452174 3272.436311408548
1702.3995006543082 2995.6575755190156
1703.1327199770658 3135.699969178315
1703.865761959416 2856.5264531703688
1704.598626647261 3233.0168112355564
1705.3313140864866 2756.572613517052
1706.0638243229587 2892.2688053289185
1706.7961574025303 3078.3852977813813
1707.528313371029 2910.6134056499404
1708.260292274268 2623.543840672889
1708.9920941580403 2875.3619206256717
1709.7237190681226 2926.17400503131
1710.4551670502697 2871.0258059813464
1711.18643815022 2478.757069707731
1711.9175324136959 3179.537296004485
1712.6484498863938 2832.231701946357
1713.379190614005 2619.659137127601
1714.109754642188 2823.4216195989025
1714.8401420165883 2668.1524001403677
1715.570352782839 3286.8235041192916
1716.3003869865497 2868.5579434368847
1717.0302446733076 2635.0599583033227
1717.7599258886876 2767.9154200730145
1718.4894306782444 3108.397405923127
1719.2187590875183 2545.713235029639
1719.9479111620203 3057.6710994597147
1720.6768869472544 2671.9874732350877
1721.4056864887025 3075.6182384234135
1722.1343098318284 2992.846102995912
1722.8627570220742 2754.6784859978443
1723.591028104871 2716.510172951576
1724.3191231256242 2481.3415366991453
1725.0470421297232 2742.671978152184
1725.7747851625427 2797.2676922883725
1726.5023522694337 2812.5562664271424
1727.2297434957363 2679.2558144756026
1727.9569588867635 2478.605288624065
1728.6839984878152 2764.8816375421584
1729.4108623441734 2252.575918793012
1730.1375505011038 2789.2937230007765
1730.8640630038426 2513.4029275882667
1731.5903998976264 2475.6244909439733
1732.316561227657 2675.80160924553
1733.0425470391274 2481.049911322127
1733.7683573772065 2651.720504034239
1734.4939922870508 2608.578020436396
1735.2194518137949 2681.6309900488027
1735.9447360025606 2568.904051281871
1736.669844898439 2635.6395970636345
1737.3947785465189 2436.0099440039776
1738.1195369918605 2385.4785929027885
1738.8441202795093 2583.0696075725864
1739.5685284544943 2638.4946893814185
1740.292761561821 2667.809082557392
1741.0168196464838 2685.545093420614
1741.7407027534518 2757.655738355993
1742.464410927687 2647.3735110394473
1743.187944214118 2504.0370387249204
1743.9113026576688 2544.148188275012
1744.634486303241 2512.255191346864
1745.3574951957125 2543.546560105901
1746.0803293799509 2742.85261112007
1746.8029889008048 2562.0838614517916
1747.5254738031017 2747.373221928973
1748.2477841316504 2453.694730433136
1748.969919931249 2565.8899483849364
1749.6918812466665 2499.6203692102918
1750.4136681226646 2736.746553800326
1751.1352806039777 2601.579672542158
1751.856718735331 2276.1177401477185
1752.5779825614281 2308.893361818343
1753.2990721269507 2685.5260300296404
1754.0199874765676 2706.4903963553097
1754.7407286549314 2342.4461359720494
1755.4612957066693 2550.9266015675503
1756.1816886763954 2453.466159370856
1756.9019076087097 2736.208239160665
1757.6219525481865 2633.443950337535
1758.3418235393856 2653.898572806709
1759.061520626854 2516.7221934259956
1759.7810438551096 2716.154661175756
1760.5003932686614 2366.197531949787
1761.2195689119999 2792.3265729071572
1761.938570829594 2610.8761174727965
1762.657399065898 2532.233584828673
1763.376053665348 2302.8496711950984
1764.0945346723602 2273.013158679238
1764.812842131334 2753.869384132087
1765.5309760866512 2352.277483527235
1766.2489365826787 2302.3889562030818
1766.9667236637597 2502.5743729372666
1767.684337374223 2157.643599424312
1768.401777758383 2207.308194388449
1769.1190448605284 2393.2615534160536
1769.836138724937 2237.4864067692656
1770.5530593958665 2477.1446629333977
1771.2698069175603 2687.1782482728513
1771.9863813342326 2616.2629885750143
1772.702782690094 2360.465354097122
1773.4190110293293 2514.97030209491
1774.1350663961111 2588.2384119869585
1774.8509488345844 2244.1100134445996
1775.5666583888924 2498.9304380738254
1776.2821951031437 2642.1271111599026
1776.9975590214362 2427.24254303788
1777.7127501878585 2520.9521704526933
1778.4277686464684 2469.1507532194305
1779.1426144413108 2645.0077988305206
1779.8572876164162 2613.5867887902996
1780.571788215797 2234.659018429068
1781.2861162834415 2518.076812820182
1782.0002718633277 2364.533206902514
1782.7142549994132 2488.4609643493686
1783.4280657356376 2500.5131988141475
1784.141704115922 2318.0256573277234
1784.855170184177 2378.068357400035
1785.5684639842839 2459.864034403425
1786.2815855601148 2033.110754631803
1786.9945349555237 2570.1916676673723
1787.707312214343 2230.4174566995603
1788.4199173803918 2247.6383437136165
1789.132350497468 2265.0843751397506
1789.8446116093583 2390.7524401691066
1790.556700759822 2176.294316167455
1791.2686179926077 2352.0292485177533
1791.9803633514493 2310.698244518148
1792.6919368800554 2178.7236531335293
1793.4033386221236 2461.153057157819
1794.1145686213295 2548.8018047892097
1794.8256269213307 2616.956065127677
1795.536513565774 2463.2682374040464
1796.247228598284 2086.241672935107
1796.9577720624693 2314.9311667190514
1797.6681440019165 2365.778633589084
1798.3783444602013 2454.4870590439687
1799.0883734808776 2525.1557671253236
1799.7982311074884 2497.768009458002
1800.5079173835475 2279.694688060607
1801.2174323525633 2517.4912633971667
1801.9267760580187 2336.79490339259
1802.635948543386 2424.3168877013677
1803.3449498521113 2214.174516205848
1804.0537800276325 2462.954532241877
1804.7624391133668 2413.9680337032523
1805.47092715271 2026.9267174017575
1806.1792441890484 2185.7614802477938
1806.8873902657433 2613.650514956003
1807.5953654261448 2458.5900282955376
1808.3031697135812 2266.7905640189683
1809.0108031713662 2180.291290873217
1809.71826584279 2217.5799435212975
1810.425557771141 2423.8310713561573
1811.1326789996747 2800.9748212492664
1811.839629571632 2405.7959272940525
1812.5464095302468 2293.5868557620297
1813.2530189187182 2277.9427522098676
1813.959457780249 2326.483778319992
1814.6657261580076 2474.3944879892256
1815.371824095153 2374.361778629801
1816.0777516348262 2102.148447893556
1816.78350882015 2321.763102848224
1817.4890956942272 2076.5980136438125
1818.1945123001533 2178.147835112269
1818.8997586809928 2326.7440166937045
1819.6048348798067 2104.3411120959086
1820.3097409396287 2298.2962812782744
1821.0144769034796 2760.769687415754
1821.7190428143622 2397.007518662552
1822.423438715261 2513.8049532399427
1823.1276646491478 2284.571035287224
1823.8317206589727 2318.8360669477433
1824.5356067876692 2336.227661979364
1825.2393230781581 2317.433303439285
1825.942869573335 2132.1646014299495
1826.646246316086 2023.3251961007732
1827.3494533492758 2334.924291503962
1828.052490715756 2374.1781822083312
1828.7553584583547 2306.6557938001815
1829.458056619891 2417.584217299447
1830.1605852431585 2173.3936276659697
1830.8629443709433 2122.8319020991867
1831.5651340460063 2239.161079632556
1832.2671543110919 2174.4820952474142
1832.9690052089318 2470.009771929494
1833.6706867822395 1964.32284955954
1834.3721990737104 2405.7262271936556
1835.0735421260233 2459.3140294335617
1835.774715981841 2244.363776179974
1836.4757206838058 2558.0533837657435
1837.1765562745459 2259.0205445952315
1837.8772227966747 2105.0081293934472
1838.5777202927839 2263.5923983219973
1839.2780488054523 2189.4977062067383
1839.9782083772352 2159.870048307546
1840.6781990506806 2203.5153632059214
1841.378020868313 2247.125635854377
1842.0776738726418 2282.192145632896
1842.777158106157 2071.3301337110756
1843.4764736113375 2035.304172173086
1844.1756204306403 2293.4037519861495
1844.8745986065078 2304.003851841108
1845.5734081813607 2049.4995786595514
1846.2720491976124 2149.2951746823733
1846.970521697649 2102.1864209311498
1847.6688257238511 2202.6042237059364
1848.3669613185684 2154.0669716521097
1849.0649285241452 1923.4706686033035
1849.7627273829057 2334.9917200849072
1850.460357937156 2207.549824263271
1851.1578202291857 1847.2021999701842
1851.8551143012664 2284.0062434904034
1852.5522401956569 2116.70381182567
1853.2491979545957 2468.1907924761476
1853.9459876203055 2047.7218642287364
1854.6426092349902 2108.0925939692893
1855.3390628408451 2080.007203441491
1856.0353484800362 2496.3997759222334
1856.7314661947203 2261.6925185233504
1857.4274160270397 2052.620281749513
1858.123198019115 2086.2420743315006
1858.8188122130487 2012.6036090356654
1859.5142586509319 2171.8171811621464
1860.209537374838 1993.219032764353
1860.9046484268183 2158.698239597785
1861.599591848917 2458.090480829177
1862.294367683151 2115.0277664063283
1862.988975971528 2020.0645344822346
1863.6834167560355 2331.2320769734524
1864.3776900786452 2449.5461196586166
1865.0717959813119 2081.8752675697733
1865.7657345059724 2061.579361743978
1866.4595056945564 2221.0425080035566
1867.1531095889586 2275.1685636582033
1867.846546231076 1921.345625421352
1868.5398156627743 2390.91356255507
1869.2329179259123 2045.4373420020413
1869.9258530623283 2008.6480829057618
1870.618621113843 1971.754172794705
1871.3112221222636 1951.4137236838535
1872.0036561293764 2089.072126416492
1872.695923176956 2211.07287555774
1873.3880233067594 2331.47624818636
1874.0799565605212 1940.6283542007793
1874.7717229799673 2172.050693746102
1875.4633226068036 2321.881375329557
1876.1547554827175 2342.2888243777825
1876.8460216493859 2036.0011800420048
1877.5371211484617 2131.3436742064596
1878.2280540215852 2324.1208577353123
1878.9188203103804 1956.8281824404262
1879.6094200564548 2139.0865795535074
1880.299853301396 2034.3423114460843
1880.9901200867826 2354.411695800508
1881.6802204541673 2197.2315315443457
1882.3701544450942 2215.7217420319025
1883.059922101087 1924.758103040132
1883.7495234636517 1992.8434705599298
1884.4389585742792 2060.989790655719
1885.1282274744517 1964.3581741093494
1885.8173302056166 2098.9653634123306
1886.506266809225 2233.7554560049734
1887.195037326701 1919.20978590831
1887.8836417994517 2070.6508410201627
1888.5720802688702 2517.4099505329186
1889.260352776333 2433.3894274673103
1889.9484593632042 2390.490504017536
1890.63640007082 2026.7475185108055
1891.3241749405151 1940.496056613419
1892.0117840135954 2248.1950485183143
1892.6992273313572 2216.829993701401
1893.3865049350788 1911.1618521902535
1894.0736168660223 2413.0276057243036
1894.7605631654333 2174.4443124700747
1895.4473438745408 1992.1763488081353
1896.133959034556 2466.070260434311
1896.820408686679 2226.6793613928867
1897.506692872088 2446.5051210728716
1898.192811631945 2206.6933392208075
1898.8787650073991 2077.8146848937686
1899.5645530395832 2327.843513965806
1900.2501757696118 2290.4889790452903
1900.9356332385796 2408.5878754184064
1901.620925487574 2527.0605138302653
1902.3060525576602 2290.7022473745296
1902.9910144898859 2213.005101897881
1903.6758113252872 2022.543811982697
1904.3604431048789 2096.622966340533
1905.0449098696663 2285.7217679347223
1905.7292116606295 2018.2526648176758
1906.4133485187394 2172.9876894036297
1907.0973204849488 1710.0362514324793
1907.7811276001976 1887.575804305882
1908.4647699053967 2104.8171105419065
1909.1482474414588 1545.696777218733
1909.8315602492694 1906.9761488433978
1910.5147083696957 2337.716191036692
1911.1976918436012 2224.740856513927
1911.880510711815 1962.3963461548876
1912.5631650151681 1914.1342444993156
1913.2456547944657 1865.7487309433109
1913.927980090495 2026.6092986807641
1914.6101409440362 1972.6729130644376
1915.2921373958416 2209.5885780003146
1915.9739694866603 2048.5537941476755
1916.655637257214 2367.3343756977165
1917.3371407482136 2113.665718472531
1918.0184800003572 2319.039188699747
1918.6996550543154 2336.4824144191853
1919.3806659507554 2259.234337831681
1920.0615127303208 2122.3620469824255
1920.7421954336423 2347.4210004842316
1921.4227141013343 2279.005499676542
1922.103068773993 2208.6190125328617
1922.783259492202 2357.7189560459174
1923.4632862965227 2060.3023605320905
1924.1431492275078 1961.0050793370588
1924.8228483256917 1947.4221855159499
1925.5023836315922 2054.227927869395
1926.1817551857057 2223.8120408558943
1926.8609630285227 2393.7534410543776
1927.5400072005123 2255.5538038152526
1928.218887742125 2026.4611184336525
1928.8976046938005 1934.7571523701893
1929.5761580959588 2188.052858970993
1930.2545479890086 2050.60821545474
1930.9327744133352 1796.4233333347336
1931.6108374093164 2024.3594450417822
1932.2887370173066 1862.380386211315
1932.9664732776473 2295.066003265664
1933.6440462306673 2137.1477671636812
1934.3214559166754 1939.0978066177165
1934.9987023759659 2330.031232613038
1935.675785648813 2197.0125330873566
1936.3527057754836 1811.5042303906393
1937.029462796223 1817.6818572485693
1937.70605675126 1823.9154969584692
1938.3824876808085 1836.3922128084382
1939.058755625072 1972.734892749905
1939.7348606242267 1982.6190026703266
1940.4108027184448 2018.311501892853
1941.0865819478713 2296.8013220319945
1941.7621983526478 1857.4528384071866
1942.4376519728921 1877.7666965924113
1943.1129428487038 2014.1143542105142
1943.7880710201734 2165.1182901988886
1944.4630365273733 2037.718299359081
1945.1378394103576 1812.8246198479815
1945.8124797091714 1798.2847325437026
1946.4869574638324 1783.6530875909084
1947.161272714353 1936.80803939595
1947.8354255007234 2161.6588090783766
1948.5094158629272 1886.2246627995603
1949.1832438409183 2115.2548571323136
1949.8569094746435 2225.5948186871633
1950.530412804037 2235.3375639277074
1951.2037538690092 2265.4606162725077
1951.8769327094578 1950.9590133772733
1952.5499493652678 1954.567981358629
1953.222803876306 2315.9652877532344
1953.895496282421 2095.852166561238
1954.5680266234522 2142.1502107500255
1955.2403949392155 2111.43011598554
1955.9126012695142 1755.8704833603565
1956.5846456541403 1954.0952261747861
1957.2565281328643 1981.7237471240253
1957.9282487454457 2197.052803807681
1958.5998075316202 2189.837372495218
1959.27120453112 1940.0233213089984
1959.9424397836501 1926.8767181323954
1960.613513328908 2224.430880712903
1961.2844252065697 2330.1906866800477
1961.9551754563017 1821.5313430844683
1962.6257641177453 1874.931043097817
1963.29619123054 1735.6371621658739
1963.966456834296 1865.5970949277987
1964.6365609686181 1795.8405796236334
1965.306503673086 2204.557956544814
1965.976284987275 1903.2377532582445
1966.645904950734 2118.1277929779344
1967.315363603002 1727.566374487506
1967.9846609836077 2014.4502304921589
1968.6537971320486 1951.048252843287
1969.3227720878222 2135.3588532013473
1969.9915858904042 1995.773685003768
1970.660238579252 2155.51961780733
1971.3287301938108 1943.856533145547
1971.997060773514 1730.2137115254668
1972.665230357772 1768.879406496905
1973.3332389859843 1772.1502938839785
1974.0010866975335 1771.620392082732
1974.6687735317864 2001.307498580829
1975.3362995280932 2039.781629201087
1976.003664725793 2039.4800669358035
1976.6708691642052 1719.8406357613699
1977.3379128826364 1880.2148916780964
1978.004795920373 2207.9437171018567
1978.6715183166925 2365.6157315617093
1979.3380801108524 2194.5167426483667
1980.0044813420973 2023.2798743476912
1980.6707220496555 1548.536883225063
1981.3368022727373 1901.2424689676432
1982.0027220505417 2108.711396978817
1982.66848142225 1551.3237040378192
1983.3340804270283 1641.9412632193453
1983.999519104027 1960.3569699095829
1984.6647974923835 1933.242656385101
1985.329915631215 2141.099791819884
1985.99487355963 1916.9575216583785
1986.6596713167146 2139.1405507514332
1987.3243089415428 1799.5726571454793
1987.9887864731754 2143.8953776989724
1988.6531039506553 1683.5899803126936
1989.3172614130071 1735.0173788974218
1989.9812588992481 1786.560877292004
1990.645096448372 1555.4706251665757
1991.3087740993633 1921.4043507060007
1991.9722918911848 1904.9310417230013
1992.635649862792 1963.5181347595135
1993.2988480531185 2051.702341197799
1993.9618865010852 2329.1801775433146
1994.6247652455968 1856.432460617964
1995.287484325545 1731.129093830014
1995.9500437798033 1842.2093184342484
1996.6124436472292 1758.6221762245746
1997.2746839666706 2118.4932916612624
1997.936764776954 1801.7619296816406
1998.598686116895 1797.7809369869642
1999.2604480252903 1929.6712558152617
1999.9220505409212 2061.792903221166
2000.5834937025593 1687.7400868433178
2001.2447775489582 1856.190413450265
2001.9059021188514 1935.2007076547131
2002.5668674509616 1789.418866820671
2003.2276735839987 1896.046071880993
2003.8883205566508 2194.769350579053
2004.5488084075987 1864.5807041169785
2005.2091371755014 1940.3053715857084
2005.8693068990033 1653.0336418279755
2006.5293176167397 1673.5238427430627
2007.1891693673224 1694.2000322642598
2007.848862189354 1768.4997907785164
2008.5083961214223 1737.1667032665578
2009.1677712020955 1788.0347596606389
2009.8269874699254 1659.0342517227025
2010.4860449634598 1638.7449698480657
2011.1449437212177 1618.4991069412795
2011.8036837817108 2177.8875938117844
2012.4622651834325 1990.5289954178356
2013.1206879648653 1925.3570460980313
2013.7789521644736 1762.9173967111758
2014.4370578207036 1599.9936520680842
2015.0950049719922 1832.007530654802
2015.7527936567585 2134.2856165200606
2016.4104239134067 1937.775829940289
2017.067895780323 2266.340846152452
2017.725209295886 2289.6455862015787
2018.3823644984514 2312.959493806137
2019.0393614263648 1883.8118214799003
2019.6962001179545 1849.1323168778144
2020.3528806115355 2313.8553613705812
2021.0094029454067 2137.8287698855243
2021.6657671578487 1669.8068875599358
2022.321973287133 1788.7377741592009
2022.9780213715148 1809.5570665048167
2023.6339114492293 1887.3907096681385
2024.2896435585026 1924.753294424614
2024.9452177375442 1899.9212545953692
2025.600634024544 2056.1784952179532
2026.2558924576842 2039.1717216738518
2026.9109930751292 2114.070206291467
2027.565935915025 1882.6001813405248
2028.2207210155066 2261.350558640086
2028.8753484146964 2423.9015452466037
2029.529818150695 2305.947026339361
2030.1841302615903 2187.461031113752
2030.8382847854573 1776.7650733877344
2031.4922817603601 2017.7271939268587
2032.1461212243357 1882.320078726246
2032.7998032154192 1722.2171558040475
2033.4533277716218 1834.8746894417304
2034.1066949309443 1684.9547439495332
2034.7599047313688 1710.562419090285
2035.4129572108704 1902.2833383814093
2036.0658524074006 1844.2461594461256
2036.7185903589016 1996.6550177510974
2037.3711711032956 2055.634957718323
2038.023594678496 1866.462045484551
2038.675861122394 1716.9050520240876
2039.3279704728757 1725.9726340068833
2039.9799227678031 1735.219713029981
2040.6317180450278 1813.918913877113
2041.2833563423865 1772.94216275174
2041.9348376977014 2275.5600421602253
2042.5861621487784 2175.9558631306627
2043.2373297334088 2052.552605838104
2043.8883404893695 2035.8068690597029
2044.5391944544208 2006.5435906124294
2045.1898916663158 2200.5961587011907
2045.8404321627804 2248.206920424224
2046.4908159815368 1681.0589480785663
2047.1410431602853 1890.4671766653246
2047.7911137367173 1705.4528446989875
2048.441027748504 1645.7531551046632
2049.090785233302 1585.9343106977697
2049.7403862287592 1852.6621855609683
2050.389830772503 1745.1419828980338
2051.0391189021466 2069.555180692434
2051.688250655294 1935.2069028995415
2052.337226069527 1622.5560986140213
2052.986045182417 2087.3823219468213
2053.634708031521 1568.5791568591956
2054.283214654375 2126.785373946477
2054.931565088511 1497.9105577467858
2055.579759371436 1638.121948182692
2056.2277975406523 1924.291420394987
2056.8756796336384 1699.493725684713
2057.5234056878617 1474.17583755133
2058.1709757407752 1774.9175304535972
2058.8183898298194 2209.302842531516
2059.465647992416 2012.6548376319893
2060.1127502659747 2084.315961837304
2060.759696687888 2043.7380349793439
2061.4064872955405 2003.1708061083489
2062.053122126292 1707.074756458863
2062.699601217497 2006.7372253017365
2063.345924606485 1709.6122003523797
2063.992092330587 1896.229487449192
2064.638104427102 1648.4205540566854
2065.283960933324 2058.930656147532
2065.92966188653 1905.329100965372
2066.5752073239855 1778.8838385093713
2067.2205972829397 1652.3413190486142
2067.86583180062 1963.5422770909768
2068.5109109142522 1827.9011941124452
2069.15583466104 1959.6549401046523
2069.8006030781708 1621.196320111974
2070.445216202821 1814.4955870473525
2071.089674072153 2143.6009013482603
2071.7339767233116 2055.6236413185243
2072.3781241934303 1901.4090187669613
2073.0221165196253 2003.918665675824
2073.6659537390024 1878.1887919674955
2074.3096358886505 2049.49658016358
2074.953163005637 1727.1439723356102
2075.596535127028 1500.5464304354753
2076.2397522898664 1678.9551472720636
2076.882814531182 1798.0298668951796
2077.5257218879924 2063.9797707144717
2078.1684743973 1662.684957715222
2078.8110720960885 1651.0912350480412
2079.453515021336 1766.921680625331
2080.095803209997 1882.8382922655942
2080.7379366990135 1899.9467468162002
2081.37991552532 1973.3876866739731
2082.0217397258275 2110.175248973687
2082.6634093374414 1608.0732109399128
2083.3049243970418 1896.986284399945
2083.9462849415067 2013.446622241137
2084.587491007689 1872.964906961091
2085.2285426324324 1802.8448793512184
2085.869439852564 1885.2380296621297
2086.510182704902 1698.3691779621513
2087.1507712262483 1755.4121710384757
2087.791205453381 1569.2384441117144
2088.4314854230743 1700.4037468219801
2089.0716111720867 1831.7614454337654
2089.7115827371617 1552.2310674332596
2090.351400155023 1574.493169629824
2090.991063462385 1596.8748394259503
2091.6305726959527 1555.3395452109294
2092.2699278924047 1594.8174667972621
2092.9091290884153 1634.4394778636336
2093.548176320641 1693.4604946433124
2094.187069625721 2006.414361066906
2094.8258090402887 2017.3973366560942
2095.464394600951 2028.4067467495756
2096.102826344313 1914.4774463517417
2096.741104306955 2021.152651619714
2097.379228525453 1708.2328241541204
2098.017199036358 1856.7098089341823
2098.6550158762147 2005.495866592903
2099.2926790815527 1959.3128064940934
2099.9301886888825 1810.2340389592227
2100.5675447347076 1852.3657301636035
2101.2047472555114 2017.6790241377137
2101.841796287761 1848.0061092344008
2102.47869186792 1903.3606998008443
2103.1154340324265 1727.2928947513242
2103.752022817709 1804.0688297552447
2104.388458260184 1714.4115999969854
2105.024740396251 1814.010765814716
2105.660869262292 1627.594405827574
2106.296844894685 2033.0677506180011
2106.93266732978 1786.7755035028845
2107.5683366039284 1753.0018570184773
2108.2038527534532 1996.020375856966
2108.8392158146726 2046.4941638232547
2109.4744258238843 1814.8026088066467
2110.1094828173755 1850.8038234570254
2110.744386831422 1838.748710288855
2111.3791379022787 1826.6920162557428
2112.01373606619 2064.6118885049664
2112.648181359389 1953.6703359467308
2113.28247381809 1810.915661550184
2113.916613478492 1882.3195255770333
2114.550600376786 1826.3487423732545
2115.1844345491445 1807.8148456359722
2115.818116031729 1536.0721873189627
2116.451644860679 1817.7990761297774
2117.085021072133 1809.244739690382
2117.718244702204 1800.5816897606583
2118.3513157869984 1728.9117069748747
2118.984234362604 1584.9144495048124
2119.617000465092 1786.834333899554
2120.249614130529 1802.3216931691863
2120.8820753949585 1817.836620663646
2121.5143842944162 1706.5121032274662
2122.14654086492 1714.1704876919262
2122.7785451424734 1630.4771556377711
2123.4103971630702 1546.796120802588
2124.042096962681 1809.755970910875
2124.6736445772767 1974.8961048005215
2125.305040042802 1624.436173082144
2125.936283395191 1698.361596756063
2126.567374670365 1899.9193895550943
2127.198313904233 1721.258111140419
2127.8291011326855 1667.3156331563448
2128.4597363916037 1613.0621620035758
2129.0902197168507 1726.3682435923633
2129.720551144279 1985.9006952324914
2130.3507307097225 2245.670575655757
2130.980758449008 2179.8318954492997
2131.6106343979427 2111.3018206028723
2132.2403585923203 2042.585286336104
2132.8699310679276 2076.055664728651
2133.499351860526 1878.5386540946379
2134.1286210058715 1718.3086291215004
2134.7577385397053 1914.786600866948
2135.3867044977487 2111.564323357066
2136.0155189157176 2145.4106399835173
2136.644181829308 2173.181054984705
2137.2726932742025 1748.759665150963
2137.901053286074 1669.2754440484682
2138.5292619005777 1589.731361573692
2139.1573191533535 1773.283896672269
2139.7852250800315 1927.0260014331584
2140.4129797162295 1834.4106818697546
2141.0405830975433 1470.8112632971984
2141.6680352595613 1518.2344053520108
2142.2953362378576 1565.765685394896
2142.9224860679915 1632.9859495181468
2143.549484785508 1702.8724210181965
2144.1763324259373 1722.2509119710332
2144.803029024799 1817.6391936385558
2145.429574617594 1623.9700845299903
2146.0559692398165 1969.2744934239058
2146.682212926942 1916.7636610960446
2147.308305714432 1864.026545036324
2147.9342476377333 2097.90076767444
2148.5600387322847 2272.191211109605
2149.185679033506 1914.4937972143348
2149.8111685768017 1666.0360149498713
2150.4365073975678 1552.5368134601317
2151.061695531187 1610.0351940021253
2151.686733013021 2038.2540895851278
2152.311619878423 1898.4094395215034
2152.9363561627342 1789.0222924606237
2153.560941901278 1534.5449740380889
2154.1853771293663 1887.3800663732436
2154.809661882293 1695.0669751094906
2155.433796195348 2202.2706244207816
2156.0577801037944 2100.6508089028334
2156.681613642895 1998.7189297549164
2157.3052968478896 1675.355796004203
2157.928829754006 1885.698305019103
2158.552212396462 2089.8281086176894
2159.1754448104566 1951.7315406135804
2159.7985270311783 1574.0164264549792
2160.4214590938027 1431.9527643763827
2161.0442410334927 1302.7289098109916
2161.6668728853874 1384.559507796999
2162.289354684628 1466.5960747436368
2162.911686466332 1791.3950055322925
2163.533868265602 1830.5564292497845
2164.1559001175337 2232.629671213105
2164.7777820572046 1942.5939296378906
2165.399514119681 1796.1256912016172
2166.021096340013 1492.2063376840606
2166.6425287532384 2077.1961351311056
2167.263811394385 2104.996632169264
2167.8849442984574 2133.019966953172
2168.505927500455 1793.6149253734243
2169.126761035366 1957.5519025569047
2169.7474449381552 1575.7291430972052
2170.367979243778 1335.6934449622756
2170.9883639871823 1988.8794613642847
2171.608599203293 1529.666844809352
2172.2286849270276 2418.8249596815376
2172.8486211932886 2358.8805321837326
2173.4684080369625 1750.5534173396213
2174.0880454929265 1463.8358325189606
2174.7075335960417 1420.7463967935676
2175.3268723811543 1398.0507721640765
2175.9460618831 1375.3185420430511
2176.565102136701 1709.9047369641387
2177.1839931767627 1718.7874509783749
2177.802735038078 1727.718326732138
2178.421327755432 1626.1773121191638
2179.0397713635866 1677.6286252000932
2179.658065897298 1705.1274297425575
2180.276211391305 1974.483230793463
2180.8942078803357 1679.7981646682947
2181.5120553991 1819.6657407429582
2182.129753982299 1486.4679726928757
2182.7473036646206 1709.6278859472382
2183.3647044807367 1821.7900945327528
2183.9819564653044 1515.8235695883434
2184.599059652968 1708.9741800965603
2185.216014078367 1897.2249167614598
2185.832819776113 1976.505367894099
2186.4494767808137 2055.860917784781
2187.065985127063 1704.805961348528
2187.682344849436 1528.991853578325
2188.298555982501 1594.7641987298944
2188.9146185608097 1660.5483224014563
2189.530532618901 1925.3810728324893
2190.1462981912937 1816.8313236892968
2190.761915312507 1908.150233774027
2191.377384017036 1731.4574610248605
2191.9927043393654 1787.5877572511138
2192.6078763139667 1234.0681049520247
2193.2228999753006 1416.249636826515
2193.837775357808 1598.8241195320902
2194.452502495922 1378.7722087669288
2195.0670814240602 1569.2103891040695
2195.6815121766285 1550.2272562020469
2196.2957947880186 1402.176466774345
2196.9099292926057 1253.8316862533616
2197.523915724758 1736.5048819895267
2198.137754118825 1600.6644220342291
2198.7514445091456 2229.582397369181
2199.3649869300443 2332.18177788644
2199.9783814158327 2435.118736848043
2200.5916280008096 2169.7417802653154
2201.2047267192593 1936.997806450135
2201.8176776054515 1778.578924997993
2202.430480693649 1868.321649650059
2203.0431360180955 1958.3210126907459
2203.6556436130195 1842.5675778814161
2204.268003512645 1309.7579436710153
2204.8802157511727 1660.5788908740349
2205.492280362796 2128.5024354860952
2206.1041973816937 1777.4254275264175
2206.715966842032 1902.017532328338
2207.3275887779655 1743.2497116634227
2207.93906322363 1815.8527688283186
2208.550390213153 1943.2744679842485
2209.1615697806465 1921.2877286941596
2209.7726019602105 1547.8177292968621
2210.3834867859277 1330.153489785904
2210.9942242918787 1709.3095414869513
2211.6048145121167 1732.6987860531092
2212.2152574806914 2452.7543460074753
2212.825553231638 2522.375247494298
2213.435701798975 2592.224047609788
2214.045703216707 1811.0765644924322
2214.655557518832 1274.1707510645597
2215.2652647393297 1326.3458374540985
2215.874824912169 1185.8065672108926
2216.4842380713 1785.3426404526022
2217.09350425067 1373.5812469276207
2217.7026234842033 1836.8244435975714
2218.311595805819 1951.8023561844184
2218.9204212494133 1808.5139730847131
2219.52909984888 2090.7611557850814
2220.137631638092 1443.2960482848093
2220.7460166509154 1469.8127109185075
2221.354254921198 1496.3119860642214
2221.9623464827764 1648.4021613501895
2222.5702913694713 1691.5890207199361
2223.178089615096 2141.7733260614527
2223.7857412534486 1755.1863675984482
2224.39324631831 1681.1837238642681
2225.000604843457 1607.0042225716377
2225.607816862641 1983.5819449420076
2226.214882409611 1892.7423276137383
2226.8218015180973 1908.5859813615475
2227.4285742218217 1753.6477408451651
2228.0352005544864 1738.7747055815435
2228.6416805497847 1574.670751665204
2229.248014241399 1763.8226939896601
2229.8542016629945 1367.6137913398625
2230.460242848223 1757.0161892799356
2231.0661378307304 1681.850727182995
2231.671886644139 1606.6437877252752
2232.277489322065 1450.7439588610475
2232.8829458981127 1185.6338512425912
2233.48825640587 1689.7257902360204
2234.0934208789095 1843.6725045152289
2234.6984393507955 1997.8537957571978
2235.3033118550793 1975.9227742858395
2235.9080384252975 1768.7722057351525
2236.5126190949723 1370.1391028991145
2237.1170538976166 1676.5814771132707
2237.721342866729 1382.589053959334
2238.32548603579 1701.27568456786
2238.9294834382763 1977.9886853934017
2239.533335107646 1642.4422088496565
2240.1370410773434 1621.7274909239227
2240.740601380803 1593.634510472362
2241.3440160514474 1713.9013082487593
2241.9472851226783 1793.2211029378093
2242.550408627896 1697.5817521230936
2243.1533866004793 2077.5392342922455
2243.756219073799 1815.4669410372965
2244.3589060812064 1539.6824349709943
2244.961447656049 1431.7820060564338
2245.5638438316564 1679.9372510877142
2246.166094641343 1669.6905889223522
2246.7682001184166 1540.992804371654
2247.3701602961664 1495.079857696399
2247.971975207871 1815.5889502141854
2248.5736448867974 1658.4255655800393
2249.175169366197 1939.464255036813
2249.7765486793123 1807.2414710804017
2250.3777828593684 1865.287982748237
2250.9788719395783 1772.781156466611
2251.579815953146 1665.1292522675703
2252.1806149332606 1437.8792072312465
2252.781268913097 1731.4215175123682
2253.381777925817 1539.7312735866385
2253.9821420045737 1721.5572597852242
2254.5823611825035 1872.2238244342211
2255.1824354927303 1758.1735954623232
2255.782364968365 1542.9173742895184
2256.38214964251 1327.4113024442117
2256.9817895482483 1314.8961429638607
2257.5812847186553 1333.1817885842765
2258.180635186791 1351.54201158699
2258.779840985704 1576.7387082646883
2259.37890214843 1587.1447637089323
2259.97781870799 1709.0652906608725
2260.5765906973957 1831.2178558542284
2261.175218149645 1749.857452754847
2261.773701097718 1893.3719125406708
2262.3720395745895 1441.482651535331
2262.970233613216 1295.90964625593
2263.568283246548 1533.120712846027
2264.1661885075137 1328.1855812045337
2264.763949429038 1486.8224657288492
2265.3615660440246 2132.7254797692176
2265.959038385374 1409.934936137511
2266.5563664859637 2047.628934179223
2267.153550378669 1609.734482658214
2267.7505900963424 2025.0569661431168
2268.3474856718312 1487.6381055177512
2268.9442371379664 1713.243503036479
2269.5408445275643 1588.3178778929594
2270.1373078734377 1570.90466673543
2270.7336272083758 1553.4584959932822
2271.32980256516 1584.1970309788433
2271.925833976562 1746.7849931081994
2272.5217214753357 1935.749698418055
2273.117465094223 1489.179887562363
2273.7130648659586 1438.3689043355625
2274.308520823257 1727.5559281137225
2274.903832998827 1961.8467232269402
2275.4990014253563 1510.4173195435708
2276.094026135528 1823.6175645961152
2276.6889071620117 1479.2511125644055
2277.2836445374614 1666.0790500349049
2277.878238294519 1789.687052624904
2278.472688465812 1547.1618523680738
2279.066995083962 1304.2181299802635
2279.6611581815705 1739.420477622695
2280.255177791232 1958.7883804253404
2280.8490539455233 1685.4101613709033
2281.442786677013 1976.7848010187263
2282.0363760182554 1903.9195333220566
2282.6298220017943 1463.454291014768
2283.223124660155 2096.491273423799
2283.816284025859 1529.0676934678427
2284.4093001314086 2085.6163041445698
2285.002173009292 1424.675589658988
2285.5949026919952 1869.6579409717135
2286.1874892119777 1572.2803126200579
2286.7799326016993 1807.962614876495
2287.3722328936 1424.807260527818
2287.964390120109 1064.3705959485862
2288.556404313642 1673.150035653422
2289.1482755066027 2101.6580506008277
2289.7400037313873 1608.0971921155347
2290.3315890203703 1666.185664061223
2290.9230314059205 1515.064939026974
2291.5143309203904 1363.746309818049
2292.1054875961236 1539.0057619724532
2292.6965014654506 2012.4473590908135
2293.287372560684 1472.218453958307
2293.878100914131 1478.5265304100105
2294.468686558086 1484.8956857536384
2295.059129524827 1523.1177427845537
2295.649429846617 1571.7606674033432
2296.239587555716 1620.4640736050767
2296.8296026843636 1610.9410955207193
2297.419475264791 1581.3441589522693
2298.0092053292137 1551.5939662699898
2298.598792909839 1895.2911884836733
2299.1882380388597 1749.4413914477577
2299.777540748455 1741.8621458312766
2300.3667010707904 1734.1611549919733
2300.9557190380256 2025.5594141930578
2301.544594682302 2191.9994416272125
2302.1333280357503 2042.1926020306666
2302.721919130485 1892.2607416847109
2303.3103679986198 2067.066529521345
2303.898674672242 1881.8731034639848
2304.486839183437 1390.6510455793155
2305.0748615642697 1557.9869061908178
2305.6627418468015 1696.7628593761983
2306.2504800630704 1635.6497327701834
2306.8380762451143 1729.6993015378507
2307.425530424949 1713.879116571717
2308.012842634582 1698.0092700924433
2308.6000129060103 2076.4184952891264
2309.187041271214 1794.4804074441977
2309.773927762164 1511.9250369577924
2310.3606724108213 1906.168847672275
2310.9472752491274 1836.743209649942
2311.5337363090184 1767.1862588174397
2312.120055622414 1594.5003088468136
2312.706233221221 1666.8596523190172
2313.2922691373424 1249.4657536418904
2313.8781634026564 1410.9508014116152
2314.463916049037 1572.8087576716453
2315.049527108342 1829.5909036530898
2315.6349966124235 2246.6513510871173
2316.2203245931123 1998.7156901028393
2316.8055110822315 1695.7009185034585
2317.3905561115935 1391.9685559148509
2317.9754597129977 1391.8649891311964
2318.560221918229 1358.6569222965038
2319.1448427590603 1325.4030830139795
2319.729322267256 1391.700362225564
2320.313660474563 1481.493180699998
2320.8978574127195 2378.557484651994
2321.481913113452 1953.581561450886
2322.0658276084705 1295.6128800970375
2322.6496009294806 1569.781060892933
2323.233233108165 1600.458810429289
2323.8167241762058 1554.1211636796877
2324.4000741652617 1786.1016794647162
2324.983283106987 1899.2987549292216
2325.5663510330232 1928.5006980818757
2326.1492779749933 1556.7951455234574
2326.7320639645204 1657.7372128950901
2327.3147090332004 1286.3282211868977
2327.897213212629 1447.6300782078076
2328.4795765343843 1609.0438986677234
2329.0617990300307 1459.6056784454552
2329.643880731124 2099.8254059551155
2330.22582166921 1425.9740792773819
2330.807621875816 1979.1905195794886
2331.3892813824623 1151.9354707337613
2331.9708002206517 1253.090825356157
2332.5521784218818 1483.5960736086395
2333.133416017634 1714.6326892666239
2333.7145130393765 1484.989323345605
2334.295469518571 1835.8507359879725
2334.876285486658 1921.4275868725047
2335.456960975076 1891.114340278785
2336.037496015242 1860.7660909056929
2336.6178906385667 1607.9105990803976
2337.198144876451 1698.8824037698682
2337.778258760278 1616.8268057545922
2338.3582323214214 1714.8963276657964
2338.938065591243 1813.1507314745486
2339.517758601087 2059.6000687645233
2340.0973113822965 1898.1290010486305
2340.676723966193 1620.6767537665464
2341.255996384094 1630.9694448386097
2341.835128667295 1910.9093653640703
2342.4141208470883 1855.7544242119543
2342.992972954751 1862.8449117084797
2343.5716850215467 1413.9613075367045
2344.1502570787306 964.139496026495
2344.7286891575386 1244.7052127473085
2345.3069812892045 2052.478882743132
2345.885133504944 2045.4125983288377
2346.4631458359618 1609.8507160528648
2347.04101831345 1443.651250916823
2347.6187509685915 1495.1112157673708
2348.196343832553 1359.9446355671603
2348.7737969364935 1321.4957461114466
2349.351110311558 1283.0264110581638
2349.9282839888765 1497.1033212874067
2350.5053179995757 1206.069500186511
2351.0822123747585 1593.8098991421252
2351.658967145526 1489.9955215780717
2352.2355823429643 1386.0936899378737
2352.812057998144 1673.4288387827044
2353.3883941421263 1645.2038737058344
2353.9645908059647 1833.2836469054987
2354.540648020693 1516.6195293896692
2355.116565817336 1793.18175471545
2355.6923442269126 1525.2416497244099
2356.2679832804224 1779.4713548241502
2356.8434830088518 1689.4438362799453
2357.41884344318 1597.3877415475938
2357.994064614377 1474.0708457126732
