#exp_cfg={"servo_angle": 0.0, "laser_lim": 100.0, "servo_angle_to": 18.0, "laser_wup": 0.0, "bt_dev": "EnSpectr-25AE3", "laser_wdn_max": 0.0, "frames": 10.0, "servo_used": 0, "servo_calib_use": 0, "laser_wdn_min": 0.0, "servo_pix_from": 90.0, "cooler_tout": 300.0, "servo_angle_from": 0.0, "servo_calib": "[-1.9174921013161362e-09, 3.9322238269163779e-05, -0.27385609119055809, 653.59552119713567]", "laser_autoctl": 0, "servo_pix_to": 3682.0, "laser_pw": 100.0, "cooler_on": 0, "laser_volt": 4.0, "cooler_autoctl": 0, "cooler_curr": 70.0, "cooler_startup": 10.0, "laser_fixed_pw": 0, "gain": 1.3, "offset": 2.53059635486, "servo_calib_degree": 3.0, "laser_curr": 55.0, "shutter": 8200.0, "servo_calib_step": 1.0, "laser_fixed_curr": 0, "exp": 2000.0, "ccd_volt": 4.7, "bt_addr": "00:06:66:62:5A:E3", "servo_delay": 500.0, "laser_autooff": 1}
#proc_cfg={"flat_auto_wnd": 200.0, "flat_auto_fr": 200.0, "flat_auto_shift": 5.0, "yconv": 1, "flatten": 1, "flatten_strength": 100.0, "xfrom": 300.0, "auto_max_frame": 2000.0, "auto_signal": 48000.0, "flat_auto_tol": 0.1, "autoclip": 1, "xrel_range": 0.0, "flat_auto_to": 4000.0, "intensity_adj": 1.0, "xrel": 7852.0, "rmhot": 1, "flat_auto_slit": 4.999999999999997, "auto_ini_exp": 300.0, "auto_off": 0, "xto": 2860.0, "flat_auto_ref": "", "flat_auto_rank": 1, "autobackg": 0, "xrel_adj": 0.0, "auto_black_lvl": 1, "base_wnd": 100.0, "sub_baseline": 0, "xconv": 2, "auto_max_exp": 1000.0, "auto_total_exp": 10000.0, "auto_exp": 0, "rmripple": 0, "black_lvl": 8281.75, "shutter_clip_adj": 0.0, "auto_bckg": 0, "flat_auto_thr": 0.9, "subbackg": 1}
316.8218498245369 11945.352100843365
317.89969571804795 11691.162491101331
318.977263876126 11752.627673371531
320.05455438786703 11642.518440115116
321.1315673423287 11563.952957700127
322.2083028285215 11653.318986171762
323.2847609354267 11542.147071243437
324.3609417519747 11570.420977376814
325.43684536705587 11457.083686593245
326.5124718695279 11511.275227118264
327.58782134820103 11490.276171778043
328.66289389184385 11525.460269024414
329.7376895891921 11211.228194208396
330.8122085289342 11381.31311354984
331.88645079971866 11399.99378103736
332.9604164901575 11300.922642492234
334.03410568881554 11260.437826333311
335.1075184842266 11407.640343614068
336.18065496487543 11199.963508765633
337.2535152192122 11294.49397890473
338.32609933564163 11332.072489504082
339.39840740253203 11199.256523754473
340.4704395082099 11201.412443635083
341.5421957409617 11175.880314416947
342.6136761890357 11242.312247399144
343.6848809406365 11154.793965235463
344.75581008392874 11083.6301057025
345.82646370703696 11017.288037355524
346.8968418980512 11052.828419880043
347.96694474501055 11075.528226128521
349.0367723359268 11026.863794754363
350.106324758759 11039.132307614704
351.1756021014353 10853.6797355395
352.2446044518383 10924.599208631835
353.31333189781435 11050.416865039295
354.38178452716966 10891.807178168981
355.449962427665 10901.013672259742
356.51786568702846 10818.467575116752
357.58549439294256 10959.187564354428
358.6528486330535 10978.466699418472
359.71992849496564 10794.409829124925
360.7867340662433 10817.211129468014
361.8532654344144 10813.05665468373
362.9195226869597 10837.75170071013
363.9855059113288 10759.995439949711
365.05121519492604 10636.85919536274
366.11665062511565 10829.83721659234
367.1818122892273 10786.032131603442
368.2467002745434 10773.84185315998
369.31131466831175 10730.440851285686
370.375655557742 10646.09501664068
371.4397230299983 10702.029668183157
372.5035171722102 10773.927849297534
373.5670380714637 10607.162134389413
374.6302858148101 10774.750959919045
375.6932604892554 10779.676249467213
376.7559621817709 10743.386616898653
377.81839097928605 10674.27103898944
378.8805469686886 10571.689996880672
379.94243023683157 10602.633513122053
381.0040408705263 10639.469484793664
382.0653789565458 10481.327177021507
383.1264445816196 10590.317414507557
384.1872378324406 10456.527188333712
385.2477587956637 10626.715516216309
386.3080075579037 10445.12723130928
387.3679842057336 10283.917068655333
388.4276888256918 10437.99935453579
389.48712150426945 10429.869743124242
390.54628232792857 10332.574568045371
391.6051713830857 10253.051142678456
392.66378875611736 10290.08501056876
393.7221345333637 10339.169898367303
394.7802088011249 10228.298494801415
395.838011645661 10348.057060048346
396.89554315319765 10283.622076668791
397.9528034099112 10137.68521049339
399.00979250194723 10106.698830378142
400.06651051541485 10141.854693028674
401.1229575363741 10261.99834070071
402.17913365085224 10055.016586608172
403.23503894483656 10180.862008228261
404.2906735042761 10084.642400022034
405.3460374150818 10020.227411837213
406.401130763119 10077.397383655452
407.455953634224 10094.920918072774
408.5105061141876 10004.827732828564
409.56478828876243 9909.114701753711
410.6188002436629 9869.563711843253
411.6725420645689 9908.444396754016
412.72601383711117 9941.198727624407
413.77921564689314 9976.561538714419
414.8321475794728 9873.933009808601
415.88480972036814 9893.423142636051
416.93720215506437 9928.70383796359
417.9893249690049 9762.877893941053
419.04117824759123 9695.661957400807
420.09276207619223 9745.638257807648
421.144076540133 9811.157788680513
422.1951217247042 9705.993728908248
423.24589771515275 9783.78845805083
424.2964045966928 9738.364365209572
425.34664245449494 9770.734917005604
426.3966113736933 9674.894811825272
427.4463114393875 9657.443243870397
428.49574273662984 9640.579864378873
429.5449053504417 9553.914990266663
430.5937993658026 9695.846843639782
431.6424248676558 9601.85811979401
432.6907819409007 9548.380229558581
433.73887067040596 9648.04416815418
434.7866911409965 9697.326074411178
435.8342434374608 9570.713783047486
436.88152764455117 9510.511562072943
437.9285438469724 9511.366032297261
438.9752921294057 9451.737229624914
440.02177257648145 9500.376791775683
441.06798527279716 9378.873345020731
442.1139303029122 9535.988422682634
443.1596077513459 9538.963309790242
444.2050177025794 9370.752522602796
445.25016024105753 9476.115360810352
446.2950354511886 9448.17552890492
447.33964341733736 9355.72729036715
448.383984223834 9345.693229176952
449.4280579549686 9292.525907305167
450.471864694995 9257.685671654788
451.5154045281306 9252.13085533369
452.5586775385509 9278.800008694277
453.60168381039693 9251.816278148504
454.64442342776783 9405.22973913802
455.6868964747264 9290.847870739888
456.7291030353008 9280.753372780116
457.77104319347563 9366.444298927527
458.8127170332027 9216.657135706891
459.854124638392 9205.037899159357
460.895266092919 9316.54820382452
461.93614148061897 9266.347879389694
462.97675088529104 9383.706513811372
464.01709439069236 9302.27280584413
465.0571720805492 9282.852113575333
466.0969840385442 9348.064886558963
467.1365303483253 9401.460645127088
468.17581109350067 9234.71044866404
469.2148263576437 9160.999946490138
470.2535762242878 9171.70173118394
471.29206077693016 9314.232044908706
472.33028009902773 9264.967210118903
473.3682342740012 9306.743282042089
474.40592338523857 9227.351804021706
475.4433475160804 9179.65373014614
476.4805067498364 9256.516338206344
477.51740116978 9185.307439217013
478.5540308591426 9300.335254891088
479.59039590112116 9356.359044308936
480.6264963788726 9255.629479629233
481.6623323755193 9312.123684403843
482.6979039741436 9293.732832427439
483.7332112577915 9471.592666036951
484.76825430947247 9570.40365205169
485.80303321215797 9420.817231727035
486.837548048783 9472.503992587132
487.8717989022425 9610.020753142026
488.90578585539697 9586.891810821271
489.9395089910686 9647.565780845744
490.97296839203955 9472.794622693102
492.00616414106116 9389.835083650414
493.0390963208429 9541.8268478868
494.0717650140559 9505.7268617956
495.10417030333883 9374.52087063579
496.1363122712901 9441.58252200238
497.16819100046814 9321.81122939896
498.1998065734024 9157.243601188078
499.2311590725767 9283.067158676997
500.26224858044407 9132.122993297733
501.2930751794156 9050.733407950642
502.3236389518679 9135.901842867836
503.35393998014115 8923.409958450518
504.38397834653733 8949.630305935698
505.4137541333221 9033.004481040607
506.4432674227228 8837.068563850236
507.4725182969323 8873.860820940356
508.5015068381035 8872.415155568626
509.53023312835467 8880.52286791312
510.55869724976765 8817.688770214309
511.58689928438434 8849.45689558386
512.6148393142121 8673.490068282981
513.6425174212218 8862.040123570883
514.6699336873462 8778.82456921077
515.6970881944835 8876.168806857368
516.7239810244901 8742.205356569584
517.7506122591931 8810.130793460145
518.7769819803761 8761.27885300398
519.8030902697901 8826.71983218517
520.8289372091476 8789.019903438772
521.8545228801249 8844.929082460374
522.8798473643619 8822.119773581973
523.9049107434621 8739.67162331715
524.9297130989908 8766.82335822036
525.9542545124805 8751.49424063673
526.9785350654201 8683.439811651448
528.0025548392696 8855.924697396958
529.0263139154504 8659.1744530794
530.0498123753423 8762.074276170184
531.073050300296 8739.191179795744
532.0960277716204 8659.544023108532
533.1187448705896 8658.86532535528
534.1412016784416 8769.763688333102
535.1633982763833 8670.491067224348
536.1853347455726 8590.974823139299
537.2070111671401 8596.750846547502
538.2284276221817 8553.466165433736
539.2495841917516 8522.113025668423
540.2704809568677 8411.549255607011
541.2911179985167 8419.688096398266
542.3114953976419 8483.521438860193
543.3316132351592 8392.471927027598
544.3514715919409 8356.970222268874
545.3710705488247 8352.061496169068
546.3904101866156 8309.436428289922
547.4094905860784 8368.430531485385
548.4283118279418 8265.267249162578
549.4468739929034 8404.223687680707
550.4651771616191 8308.502611778978
551.4832214147063 8149.914183881929
552.501006832761 8311.041587534062
553.5185334963226 8224.26180070516
554.5358014859103 8400.769292173938
555.5528108820035 8251.655108295552
556.5695617650363 8225.489454628923
557.5860542154242 8247.003705231782
558.6022883135283 8224.674602527592
559.6182641396881 8176.210708131589
560.6339817741991 8312.30261194275
561.6494412973225 8281.566319725482
562.6646427892883 8353.355214787485
563.6795863302796 8097.595643209958
564.694272000459 8216.53902029977
565.7086998799423 8353.218414062694
566.7228700488104 8197.935719928439
567.7367825871115 8169.617638419606
568.7504375748576 8204.714731856198
569.7638350920224 8119.840909799044
570.7769752185486 8108.712213671655
571.7898580343353 8193.162082645784
572.802483619258 8069.353442659631
573.8148520531431 8269.887978416758
574.8269634157932 8266.619566235098
575.8388177869692 8152.6202431003985
576.8504152463938 8136.045954097327
577.8617558737587 8307.655256292875
578.8728397487175 8078.190196645572
579.883666950891 8158.930360760746
580.8942375598654 8283.523600125807
581.9045516551851 8234.959394389205
582.9146093163617 8467.272792868704
583.924410622878 8145.23355028665
584.9339556541727 8167.320012082897
585.9432444896538 8407.858680517227
586.9522772086875 8256.662761729227
587.9610538906127 8345.387673908317
588.9695746147318 8280.44594791023
589.9778394603054 8290.697543299324
590.985848506567 8215.932638045666
591.9936018327098 8219.036450934054
593.0010995178891 8027.9310902371535
594.0083416412344 8168.672478190597
595.0153282818283 7968.95147870375
596.0220595187293 7985.947860842539
597.0285354309508 8022.550874005232
598.0347560974806 8000.070345412071
599.0407215972609 7959.774790675752
600.0464320092051 7968.407856873615
601.0518874121954 7964.800310157897
602.0570878850685 7893.644518715194
603.062033506636 7892.934876420715
604.0667243556636 7871.050780910165
605.0711605108936 7780.026622737389
606.0753420510264 8054.428851695686
607.0792690547278 7895.833056188673
608.082941600629 7751.363491543522
609.0863597673306 7903.989562095453
610.0895236333909 7886.481020134115
611.0924332773357 8063.628512101524
612.0950887776617 7915.280810576228
613.0974902128219 7924.158192091808
614.0996376612384 8196.34810506115
615.1015312013005 8196.514313898182
616.1031709113595 8242.249162652904
617.1045568697336 8105.609452280534
618.1056891547069 8106.830582025927
619.1065678445229 8096.962755921825
620.1071930173985 8469.248561724127
621.1075647515099 8412.79590141564
622.1076831250048 8440.736279542509
623.1075482159849 8472.938991120245
624.1071601025305 8419.929964933142
625.1065188626781 8486.3985975113
626.105624574433 8676.529778240769
627.1044773157682 8840.783982490093
628.1030771646128 8564.85238981493
629.1014241988742 8756.551094841623
630.0995184964158 8853.738956841344
631.0973601350688 8863.068745169794
632.0949491926294 9031.783868120398
633.0922857468631 8699.091028913532
634.089369875499 8872.30428545021
635.0862016562278 8885.836860839576
636.0827811667077 8709.463045981462
637.0791084845641 8705.026411387353
638.0751836873878 8508.78426892659
639.0710068527369 8682.93189671977
640.0665780581294 8437.949898870374
641.0618973810506 8362.186297079432
642.0569648989604 8470.73896424003
643.0517806892676 8186.461430003324
644.0463448293649 8328.167348186802
645.040657396592 8182.30501643885
646.0347184682723 8168.602451189557
647.0285281216875 7993.120634958128
648.0220864340772 7983.880532780013
649.0153934826558 7962.5426094080785
650.0084493446047 7893.223121834982
651.0012540970674 7877.915441927854
651.9938078171526 7822.940832516715
652.9861105819346 7858.022255210844
653.9781624684565 7938.82642084635
654.9699635537254 7752.3119194622805
655.9615139147136 7847.825323775306
656.9528136283589 7635.869620717499
657.9438627715699 7834.669458514678
658.9346614212154 7719.329013230941
659.925209654135 7609.445467502129
660.9155075471263 7592.326479815181
661.9055551769616 7670.986885179927
662.895352620375 7825.1082824830755
663.8848999540678 7612.357623628341
664.8741972547068 7543.488839521118
665.863244598926 7561.234949866809
666.8520420633213 7611.663058515716
667.8405897244611 7465.69031950729
668.8288876588758 7346.237721942036
669.8169359430613 7518.4161636452645
670.8047346534822 7495.3044054390975
671.7922838665672 7324.105974372871
672.7795836587156 7511.653889828032
673.766634106285 7605.261914830784
674.7534352856092 7253.088579748646
675.7399872729766 7241.895623597654
676.7262901446538 7325.766271313463
677.712343976862 7333.689039883182
678.6981488457986 7344.390212683355
679.6837048276229 7203.887415462794
680.6690119984596 7301.894905096997
681.6540704344043 7292.619502021194
682.6388802115107 7236.033771614154
683.6234414058108 7221.049186149487
684.6077540932874 7144.567474082915
685.591818349907 7193.754680465431
686.575634251587 7222.352705439684
687.5592018742263 7126.794637554385
688.5425212936734 7003.56342700595
689.5255925857564 7273.524166627032
690.5084158262707 7114.9362760946005
691.4909910909646 7086.987194837496
692.4733184555644 7001.905430025121
693.4553979957618 7128.325186165601
694.4372297872123 7080.786973717254
695.4188139055404 7057.248382530427
696.4001504263324 6964.228137440943
697.3812394251509 7164.781420080237
698.3620809775111 6997.957983024862
699.3426751589104 7052.876430601985
700.3230220448004 6965.010994710365
701.3031217106054 6963.606819446312
702.2829742317172 7280.320914596834
703.2625796834873 6891.278919463068
704.2419381412474 6897.034495267229
705.22104968028 6986.324148546917
706.1999143758458 6925.908738620647
707.178532303169 7000.500375459143
708.1569035374378 7044.028118091202
709.1350281538107 7068.107487991775
710.1129062274158 7015.5012230436205
711.0905378333373 7246.549602821373
712.0679230466376 7226.291711867814
713.0450619423427 7342.040037992258
714.0219545954424 7513.575669354077
714.9986010808989 7316.785252711976
715.9750014736292 7427.433338612766
716.9511558485392 7587.676494396704
717.9270642804786 7705.704487928486
718.9027268442787 7768.829548935306
719.8781436147328 7672.527101693237
720.8533146666014 7602.578699176173
721.828240074612 7686.313574229433
722.8029199134635 7597.199311938313
723.7773542578125 7620.485749118723
724.751543182294 7478.4337095439305
725.7254867615029 7495.340395607837
726.6991850700015 7185.882352703838
727.6726381823228 7285.463909058623
728.6458461729599 7287.981864950935
729.6188091163858 7158.478866937381
730.5915270870246 7239.442104551568
731.5640001592856 7137.315005445022
732.536228407529 7108.270639460394
733.5082119060917 7127.781139608892
734.4799507292755 7138.928843113225
735.4514449513481 7091.755029312716
736.4226946465496 7224.134286028047
737.3936998890786 7207.2017375458845
738.3644607531078 7008.384892175358
739.3349773127793 7024.1235733557305
740.3052496421951 7048.272705282999
741.27527781543 6849.109505934754
742.2450619065221 6769.526374901792
743.2146019894826 6825.157300384138
744.183898138288 6775.467634570089
745.1529504268801 6680.711370581708
746.1217589291682 6606.4590384879675
747.0903237190341 6680.21990577285
748.058644870318 6681.648867531023
749.0267224568397 6608.522519276985
749.994556552374 6473.832149021138
750.9621472306771 6599.124252039624
751.9294945654583 6563.7595949732495
752.8965986304011 6588.495403998926
753.8634594991636 6424.452310891276
754.8300772453586 6582.384686760274
755.7964519425768 6450.882758223447
756.762583664371 6590.058726607179
757.7284724842611 6574.235923450996
758.6941184757416 6463.631680249676
759.6595217122667 6518.717148651272
760.6246822672638 6504.402716963223
761.5896002141235 6227.768454679634
762.5542756262093 6417.75041578623
763.5187085768503 6420.302283403701
764.4828991393406 6361.197381922726
765.4468473869474 6429.369279752975
766.4105533929032 6479.63839451206
767.3740172304078 6372.989942057084
768.3372389726283 6549.605107602558
769.3002186926988 6350.038790444597
770.2629564637282 6346.718108830968
771.2254523587872 6330.875954778281
772.1877064509154 6342.098725763649
773.1497188131179 6198.237564413083
774.1114895183728 6146.110834623344
775.0730186396268 6213.45123352584
776.0343062497905 6235.08475067942
776.9953524217381 6138.882775197496
777.9561572283274 6237.0732683295155
778.9167207423689 6207.044039001611
779.8770430366476 6085.936991429388
780.8371241839159 6094.416164610677
781.7969642568951 6222.781538934019
782.7565633282757 6428.3378159688145
783.7159214707099 6177.068365042368
784.6750387568281 6273.060775301512
785.6339152592227 6190.389622578785
786.5925510504512 6107.653066130233
787.5509462030477 6132.487518996034
788.5091007895098 6171.47430112621
789.4670148823006 6137.13215875296
790.4246885538596 6128.000389226161
791.3821218765861 6117.793953353981
792.3393149228505 5972.132057577
793.2962677649975 6204.245804295568
794.2529804753303 6143.543104942212
795.20945312613 6161.560560843168
796.1656857896378 6051.9584234453705
797.1216785380675 5929.376903424016
798.0774314435985 6147.575888522529
799.0329445783846 6204.720595063363
799.9882180145414 6130.552716775421
800.9432518241574 6014.655816088401
801.89804607929 6181.892336075507
802.852600851962 6169.034945883221
803.8069162141637 6096.010762988733
804.760992237856 6270.97951182123
805.714828994971 6220.414293510212
806.6684265574077 6228.596608792539
807.6217849970271 6119.530815135376
808.574904385674 6129.997330833335
809.527784795142 6210.415645544136
810.4804262972102 6382.005677636813
811.4328289636178 6056.553771425504
812.3849928660748 5969.504885286722
813.3369180762638 5965.953682236521
814.2886046658241 6190.307770195305
815.2400527063783 5970.264542688075
816.1912622695108 5990.11246671009
817.1422334267718 6099.957045099027
818.0929662496856 5980.686966302287
819.0434608097457 5795.566316023797
819.9937171784059 5947.161888834746
820.9437354271013 5852.197789682571
821.8935156272255 6019.387814640577
822.8430578501484 5844.162150698767
823.7923621672016 5676.948518282304
824.7414286496896 5817.973288164186
825.6902573688876 5796.780918431734
826.6388483960363 5779.15449427571
827.5872018023492 5702.257108760385
828.5353176590033 5862.893582832576
829.4831960371503 5701.560696806146
830.4308370079016 5674.062168411232
831.3782406423525 5767.285151096144
832.3254070115545 5801.5895402039505
833.2723361865319 5658.132833881844
834.2190282382799 5627.880881942395
835.1654832377644 5735.928051597874
836.1117012559116 5522.81925050399
837.0576823636256 5837.888479196632
838.003426631778 5566.072282871892
838.9489341312074 5555.340794395341
839.8942049327197 5746.225430401092
840.8392391070975 5786.189276946894
841.7840367250865 5679.9304740470125
842.7285978573982 5567.818081496382
843.672922574724 5676.955949661338
844.6170109477152 5588.926204487185
845.560863046996 5568.133226520829
846.5044789431595 5650.4099041140125
847.4478587067697 5559.102117369655
848.3910024083561 5740.268486344879
849.333910118421 5571.904101056596
850.2765819074339 5561.981478437629
851.2190178458332 5642.829834369211
852.161218004032 5729.091267904931
853.1031824524016 5638.692912950328
854.0449112612987 5579.310340331815
854.9864045010327 5684.5009312877755
855.9276622418947 5573.229397271225
856.8686845541379 5612.43420756277
857.8094715079915 5692.924940538226
858.7500231736467 5807.014155531804
859.690339621271 5671.730673151389
860.6304209209939 5724.972891864215
861.5702671429244 5608.64692246065
862.5098783571284 5714.949058721945
863.4492546336569 5635.505096787789
864.3883960425155 5538.080094715174
865.3273026536863 5507.076935877889
866.2659745371238 5442.670011773831
867.2044117627465 5808.084833047351
868.1426144004472 5576.5259805263795
869.0805825200823 5697.577344031354
870.0183161914847 5615.593477357308
870.9558154844526 5700.645036223251
871.8930804687552 5684.050700876621
872.8301112141307 5537.945855247158
873.7669077902865 5746.992839983625
874.7034702669062 5782.478045327751
875.6397987136315 5625.639684361218
876.5758932000863 5761.218768158136
877.5117537958522 5746.079551966409
878.4473805704911 5686.777048586456
879.3827735935283 5696.348601463627
880.3179329344603 5835.757385972314
881.2528586627541 5732.942936408294
882.1875508478479 5895.258700568991
883.1220095591489 5864.9246689238125
884.0562348660296 5679.854796126712
884.9902268378391 5876.890104227296
885.9239855438955 5751.601325790268
886.8575110534839 5642.414291282187
887.7908034358588 5748.259756811296
888.7238627602474 5754.938150317894
889.6566890958475 5756.511692129086
890.5892825118208 5526.253586372359
891.5216430773125 5717.8380101107605
892.4537708614189 5727.266195853808
893.3856659332196 5588.436635364583
894.3173283617652 5510.834393732263
895.2487582160684 5685.76638664826
896.179955565116 5587.269799665159
897.110920477864 5506.110701986709
898.0416530232451 5493.0309101907715
898.9721532701478 5401.466683362674
899.9024212874428 5588.212191695814
900.8324571439662 5422.382335553719
901.7622609085302 5419.97373470693
902.6918326499072 5447.550085599235
903.6211724368477 5476.057202318041
904.5502803380696 5565.17959314386
905.4791564222614 5684.611545209119
906.4078007580792 5368.402740719647
907.3362134141571 5420.170695934148
908.2643944590909 5643.254120650944
909.1923439614493 5449.519381211883
910.1200619897754 5491.246989875051
911.0475486125779 5695.470870165686
911.9748038983344 5479.815288000165
912.9018279155007 5468.668501708273
913.8286207324982 5387.212261266329
914.7551824177117 5455.6334210081
915.6815130395116 5405.289254887268
916.6076126662283 5355.583807044046
917.533481366163 5339.039395605214
918.4591192075914 5424.795054829484
919.3845262587565 5496.059372363873
920.3097025878706 5337.691010892754
921.2346482631237 5382.052016623796
922.1593633526682 5350.837748798821
923.0838479246304 5410.8103956953455
924.0081020471061 5553.660263749773
924.9321257881656 5195.006271622493
925.8559192158464 5402.105952529639
926.7794823981512 5161.408825345218
927.7028154030686 5143.98807719976
928.6259182985414 5195.884651663588
929.5487911524906 5345.249013444506
930.4714340328119 5426.093269406494
931.3938470073608 5160.581162654635
932.3160301439748 5129.060582213838
933.2379835104548 5184.847629131638
934.1597071745709 5324.563565350412
935.0812012040769 5208.955451542972
936.002465666681 5301.209736760507
936.9235006300696 5318.14079585638
937.8443061619055 5264.455633533363
938.7648823298077 5120.669974313819
939.6852292013809 5167.020217225545
940.6053468441951 5346.805759388915
941.5252353257874 5009.025867902133
942.4448947136698 5166.95934396159
943.364325075323 5209.70725896247
944.2835264782043 5162.6638097750565
945.2024989897309 5131.853539072199
946.1212426773054 5270.351952875324
947.0397576082851 5290.683085576178
947.9580438500125 5364.225265572432
948.8761014697939 5377.474051823294
949.7939305349064 5336.017470165363
950.7115311125999 5130.511974167451
951.6289032700952 5109.77864386899
952.5460470745875 5260.732508766714
953.4629625932339 5134.866595398103
954.3796498931715 5341.601026859177
955.2961090415029 5255.727708332992
956.2123401053068 5206.5425568232795
957.1283431516276 5218.594402777109
958.0441182474842 5140.224727332627
958.9596654598663 5414.628098675867
959.8749848557309 5240.652843617782
960.7900765020167 5167.937378947937
961.7049404656209 5072.90999225838
962.6195768134185 5195.575827684992
963.5339856122537 5180.180386897776
964.4481669289453 5283.385807957897
965.3621208302793 5205.920294663201
966.2758473830145 5069.944538341961
967.1893466538822 5266.220100406135
968.1026187095813 5123.597579181115
969.0156636167867 5212.379349354503
969.9284814421426 5206.448778503859
970.8410722522622 5173.58822352057
971.753436113735 5134.546785387539
972.6655730931161 5078.378117712267
973.5774832569368 5217.606467919059
974.4891666716958 5055.642023777589
975.4006234038698 5034.3680994412225
976.3118535198955 5026.055776821994
977.2228570861935 5193.843480964045
978.1336341691494 5178.350999948847
979.0441848351202 4952.892442448288
979.9545091504333 5177.536548946524
980.864607181391 5145.928783828729
981.7744789942699 5089.349373519445
982.6841246553086 5094.599525068247
983.5935442307236 5156.527649954034
984.5027377867027 5180.541402577963
985.4117053894024 5120.389776503046
986.3204471049557 5028.082015863867
987.2289629994648 5170.73260255921
988.1372531390007 5277.314171830161
989.0453175896091 5207.060890878396
989.9531564173067 5113.124812864765
990.860769688079 5107.705947547398
991.7681574678918 5103.491812050193
992.6753198226706 5188.445155463374
993.582256818323 5104.614453948856
994.4889685207218 5111.324651007088
995.3954549957143 5302.74238187821
996.301716309119 5264.424607105499
997.2077525267232 5188.921812814338
998.1135637142943 5103.231543906941
999.0191499375615 5297.723759282013
999.924511262232 5304.8834921546495
1000.8296477539861 5258.056400628461
1001.7345594784656 5084.060919362064
1002.6392465012996 5055.0627719707645
1003.5437088880753 5283.141511979411
1004.4479467043584 5218.322994366091
1005.3519600156869 4936.265663740417
1006.2557488875718 5241.457013603604
1007.1593133854858 5221.613953908659
1008.0626535748888 4993.992267051382
1008.9657695212009 4953.922593611831
1009.8686612898182 5287.710348045088
1010.7713289461135 5192.407375136601
1011.6737725554212 5049.44870730222
1012.5759921830577 5121.264853867761
1013.4779878943027 5075.837154827122
1014.379759754418 5219.762995176698
1015.2813078286254 5043.462979613882
1016.18263218213 4849.527067530016
1017.0837328801026 4969.6955568219
1017.9846099876886 5132.368236004009
1018.8852635700023 4965.382016469125
1019.7856936921362 4720.424713205195
1020.6859004191447 5097.258096731402
1021.5858838160675 4892.673325796883
1022.4856439479063 4898.107653274788
1023.3851808796389 4719.469100487831
1024.2844946762143 4983.059797393548
1025.183585402554 4914.921616276571
1026.082453123554 4680.275531488221
1026.9810979040776 4944.842137776439
1027.8795198089647 4796.45320830381
1028.777718903024 4887.804207993063
1029.6756952510368 4807.473812597976
1030.5734489177648 4837.024123614584
1031.4709799679313 4792.600675574218
1032.3682884662358 5037.315685141704
1033.2653744773506 4631.765993505537
1034.1622380659192 4678.815435947607
1035.058879296559 4799.680299166497
1035.9552982338591 4953.323501548309
1036.8514949423825 4797.552424382966
1037.7474694866614 4775.345354780374
1038.6432219312028 4671.152102298043
1039.5387523404825 4931.867553358736
1040.4340607789582 4842.410438765594
1041.3291473110476 4836.90248807975
1042.2240120011465 4963.806182745683
1043.1186549136273 4945.04783845631
1044.0130761128294 4806.881111010245
1044.9072756630649 4837.58403121085
1045.8012536286205 4953.181046686149
1046.6950100737577 5012.137100031853
1047.588545062701 5067.413188845326
1048.481858659663 4973.462926830379
1049.3749509288118 5058.317513894975
1050.2678219343034 4917.128300410955
1051.1604717402515 5006.219188058093
1052.0529004107575 4815.889659459124
1052.9451080098825 5026.888272068515
1053.8370946016694 4992.353508867611
1054.7288602501267 5061.823013483465
1055.6204050192446 4965.084921626935
1056.511728972977 5049.349116387396
1057.402832175254 4913.535238836161
1058.2937146899785 4789.241426236049
1059.1843765810263 4809.580809756802
1060.0748179122456 4988.7582855555465
1060.9650387474576 4902.285184551759
1061.855039150456 4879.387209048187
1062.7448191850071 4883.071075062675
1063.6343789148505 4839.895147304382
1064.5237184037014 5035.315803761859
1065.412837715241 4821.128008092012
1066.3017369131267 4716.857443424489
1067.190416060992 4807.085573177269
1068.0788752224398 4770.3619406707385
1068.9671144610438 4788.449303680567
1069.8551338403558 4915.401597230479
1070.7429334239023 4919.153086156391
1071.6305132751695 4641.107590647074
1072.517873457633 4898.550084797616
1073.4050140347335 4765.219239311863
1074.2919350698776 4831.610169331884
1075.1786366264623 4711.040523876672
1076.0651187678395 4784.829510042985
1076.95138155735 4600.637632866929
1077.8374250582929 4722.138425652448
1078.7232493339507 4797.569556874141
1079.608854447577 4631.373273272437
1080.4942404623907 4626.089572796968
1081.3794074415982 4707.960616022021
1082.2643554483657 4792.452726252834
1083.149084545841 4711.6293895825875
1084.033594797138 4557.305273123642
1084.9178862653516 4623.395691298096
1085.8019590135427 4851.237931044941
1086.6858131047484 4479.241577585666
1087.5694486019802 4688.392022990141
1088.4528655682225 4653.74157765923
1089.3360640664287 4908.674892782876
1090.2190441595321 4743.9105308530225
1091.1018059104317 4763.614345769203
1091.98434938201 4847.426500458228
1092.866674637111 4832.553275387401
1093.748781738559 4711.353465056066
1094.6306707491512 4585.7926186086925
1095.5123417316554 4816.862826385042
1096.3937947488157 4629.27934554764
1097.2750298633455 4685.122683501992
1098.156047137938 4640.553339199799
1099.0368466352556 4683.3334760196285
1099.9174284179317 4848.966394658675
1100.7977925485757 4514.388378993538
1101.6779390897755 4567.28620037843
1102.5578681040806 4629.8765995600825
1103.4375796540226 4649.56366767651
1104.3170738021054 4504.975826818373
1105.1963506108077 4313.691652104926
1106.0754101425773 4331.687416294948
1106.9542524598382 4609.679323686736
1107.8328776249855 4390.506775682755
1108.7112857003904 4482.320634490729
1109.5894767483987 4381.712147877501
1110.4674508313292 4615.174298473431
1111.3452080114657 4430.92235939525
1112.2227483510815 4561.657727291574
1113.1000719124077 4604.145567647896
1113.9771787576592 4556.861428200316
1114.854068949022 4503.533105494398
1115.7307425486542 4627.403309446628
1116.6071996186893 4594.036985826132
1117.483440221229 4757.370879114136
1118.3594644183577 4452.344578144346
1119.235272272128 4628.529974985983
1120.1108638445658 4682.588616122541
1120.9862391976712 4860.782207832299
1121.8613983934229 4730.329536069781
1122.7363414937627 4662.885987933591
1123.6110685606182 4716.379456986015
1124.485579655884 4911.696517646323
1125.359874841426 4738.342870723096
1126.2339541790916 4741.018050513842
1127.1078177306936 5013.713687009274
1127.9814655580267 4763.33396462694
1128.854897722851 4873.282763843035
1129.7281142869106 4749.284665651196
1130.6011153119125 4894.548488885606
1131.473900859548 4958.058990071212
1132.3464709914697 4873.8436135874745
1133.2188257693178 4815.062176276166
1134.0909652546961 4682.397089728773
1134.96288950919 4595.611640335782
1135.8345985943506 4794.898858280962
1136.7060925717087 4530.21975489171
1137.57737150277 4637.2459601403325
1138.4484354490069 4923.0812159018205
1139.3192844718778 4590.739560873928
1140.1899186327992 4492.866154105127
1141.060337993178 4769.421264757175
1141.930542614382 4593.462001860117
1142.8005325577597 4516.753567101579
1143.670307884635 4279.0394564396975
1144.5398686563003 4450.600979337485
1145.409214934025 4532.381813138376
1146.2783467790541 4191.401540307748
1147.1472642526023 4436.642638157462
1148.0159674158622 4529.855219049862
1148.8844563300026 4417.738301760891
1149.7527310561618 4273.432882379304
1150.6207916554504 4167.944839886865
1151.4886381889592 4194.547228516588
1152.3562707177498 4433.2185804971605
1153.2236893028585 4205.061795874805
1154.090894005296 4142.292319889498
1154.9578848860474 4221.088696908219
1155.8246620060709 4196.632656452497
1156.6912254262988 4028.8720926224914
1157.5575752076438 4140.743338570806
1158.42371141098 4367.686343037418
1159.2896340971656 4334.033555264655
1160.1553433270346 4127.1549050108515
1161.0208391613887 4231.8243620876265
1161.8861216610057 4290.833744855758
1162.75119088664 4220.8409814248425
1163.6160468990201 4158.258605773247
1164.4806897588442 4183.035932213586
1165.3451195267917 4246.1272090078655
1166.2093362635114 4252.444649874615
1167.0733400296285 4207.739694554901
1167.9371308857444 4073.991144879611
1168.8007088924278 4103.156149177209
1169.6640741102328 4274.12335668784
1170.5272265996773 4095.1573142671687
1171.390166421259 3937.697074098597
1172.252893635452 4221.009059382997
1173.1154083026995 4273.074562225618
1173.977710483421 4243.753556532935
1174.8398002380145 4044.3251660110645
1175.7016776268483 4208.6680075641625
1176.563342710264 4170.014056726449
1177.4247955485826 4116.679449482666
1178.2860362020947 4166.974582807824
1179.147064731069 3979.2000760275996
1180.0078811957483 4179.651326288548
1180.8684856563486 4122.171290332142
1181.7288781730604 4169.4177975192
1182.589058806052 4055.3118825598076
1183.4490276154593 4305.828770878458
1184.3087846614017 4057.1141386817494
1185.1683300039676 4186.598616346015
1186.027663703222 4381.523220677266
1186.8867858192025 4132.645620674679
1187.7456964119228 4240.006479674794
1188.6043955413716 4241.1728154466555
1189.4628832675116 4276.297328977615
1190.3211596502842 4437.266041149893
1191.179224749596 4308.083710379411
1192.0370786253388 4170.6632621091285
1192.8947213373758 4431.266839413775
1193.7521529455407 4592.716465840267
1194.6093735096438 4223.656930536426
1195.466383089477 4334.387514104301
1196.3231817447977 4261.51167232774
1197.1797695353398 4512.282286304075
1198.0361465208189 4233.80680102074
1198.8923127609214 4266.163375181907
1199.7482683153048 4365.736796134939
1200.6040132436028 4549.419938869685
1201.459547605431 4281.231872993289
1202.3148714603722 4342.748229326843
1203.1699848679855 4310.988933036165
1204.0248878878065 4434.361757430604
1204.8795805793507 4056.518042953184
1205.7340630020935 4349.136154017397
1206.5883352155033 4361.767237629998
1207.4423972790064 4392.486786161629
1208.2962492520237 4262.931035988899
1209.1498911939307 4274.727972438871
1210.0033231640937 4217.769168116023
1210.8565452218427 4272.935136897993
1211.7095574264913 4022.4060365347987
1212.5623598373222 4080.8008097283578
1213.4149525135963 4020.6745034676
1214.2673355145507 4123.83396788145
1215.1195088993936 4127.998976504411
1215.9714727273113 4023.035333150941
1216.8232270574663 4319.72161489596
1217.6747719489904 3939.0612734415904
1218.5261074609934 4006.620705187095
1219.3772336525653 4147.597047204414
1220.2281505827668 4217.545514768703
1221.0788583106296 4261.811024634598
1221.9293568951707 3942.8187606917804
1222.7796463953746 3905.00214578376
1223.629726870202 4139.021871818018
1224.4795983785934 4148.054855277633
1225.3292609794553 4107.664792864344
1226.1787147316809 3965.7190317946806
1227.0279596941327 4043.2475507309728
1227.8769959256424 3940.9634800297436
1228.7258234850306 4224.178016642079
1229.5744424310833 3894.052042154171
1230.422852822563 4157.513199372121
1231.2710547182105 4241.619627006605
1232.119048176739 4097.812567880648
1232.9668332568417 3852.4779815320376
1233.8144100171812 4108.2220072918335
1234.6617785163999 4151.698866329889
1235.508938813111 3801.808133024299
1236.3558909659114 3922.573025909548
1237.2026350333617 4174.524850128938
1238.049171074008 4189.873552819274
1238.8954991463652 3920.1388618472047
1239.741619308932 4014.0844975610053
1240.587531620169 4067.058184215884
1241.4332361385277 4119.093021740497
1242.2787329224248 4003.478967077317
1243.1240220302534 3870.886301201066
1243.9691035203869 3878.2068527512856
1244.813977451171 4220.213616039377
1245.6586438809263 4079.920328513449
1246.5031028679496 3795.5063088950396
1247.3473544705157 4107.717084210566
1248.1913987468706 4014.19129607993
1249.0352357552383 3775.5326420984384
1249.8788655538228 3826.2122756899967
1250.7222882007918 4027.725301408783
1251.565503754302 4121.042448822205
1252.4085122724755 3649.121494809049
1253.2513138134182 4086.2990516016507
1254.0939084352049 4005.2525324350727
1254.9362961958905 3993.361071875869
1255.7784771535007 3893.705400601528
1256.6204513660432 4052.98744279276
1257.4622188915 4224.437276645707
1258.3037797878242 3954.2467981487775
1259.1451341129468 3810.4862543447816
1259.9862819247755 3960.456854444152
1260.8272232811978 3922.998665369877
1261.6679582400666 4227.075201552446
1262.5084868592203 3779.5344550757886
1263.34880919647 3820.190311139606
1264.1889253095997 4020.820568930635
1265.0288352563712 4163.106275749029
1265.8685390945266 3880.743562396265
1266.7080368817751 4027.7978818678866
1267.5473286758115 4085.509070323733
1268.386414534294 4092.7021999709264
1269.2252945148703 3579.30091954275
1270.0639686751547 3901.070656975623
1270.9024370727402 3870.410998548362
1271.7406997651997 3764.553395742103
1272.5787568100714 3702.686302690775
1273.4166082648808 3771.4085224404866
1274.2542541871244 3844.5787857338773
1275.091694634275 4151.46055904318
1275.9289296637817 3697.154581238467
1276.7659593330663 3963.035796907726
1277.6027836995308 3822.185791247824
1278.4394028205552 4021.037497049799
1279.2758167534867 3860.222315936933
1280.112025555658 3973.4280170058896
1280.9480292843746 3874.713831813345
1281.7838279969128 3698.0626657357525
1282.6194217505326 3888.1497269066776
1283.4548106024686 3710.2059630632575
1284.289994609926 3762.8313706192253
1285.1249738300921 3936.5078448164386
1285.959748320127 3683.083942492256
1286.7943181371702 3854.698583262868
1287.6286833383328 3786.136885273971
1288.4628439807038 3910.304568681041
1289.2968001213521 3742.7147897709738
1290.1305518173194 3771.902091393002
1290.9640991256183 3873.7413403674664
1291.7974421032523 3789.983045035421
1292.630580807183 3694.6963116182
1293.463515294361 3891.598970413811
1294.29624562171 3974.029774318768
1295.12877184613 3711.867356265209
1295.961094024493 3669.8704139908236
1296.79321221365 3891.6350184043195
1297.6251264704333 3872.9616443754994
1298.4568368516466 4191.345103177362
1299.2883434140658 3934.6059631435783
1300.1196462144526 3752.7829160676897
1300.9507453095375 3873.446905481803
1301.7816407560313 3798.108225246621
1302.6123326106172 3863.3917870457676
1303.4428209299622 3728.1955860077496
1304.2731057707024 4059.625265182486
1305.1031871894502 3682.4322826970797
1305.933065242798 3972.9456042342763
1306.7627399873181 3889.1735104458144
1307.5922114795467 4242.799523091303
1308.4214797760123 4396.739760332975
1309.2505449332057 3844.904337345584
1310.0794070076026 3944.3977824238173
1310.9080660556538 4105.670920355724
1311.736522133786 4143.532916859094
1312.5647752983987 3864.198019080025
1313.3928256058734 3701.0596041928743
1314.2206731125661 4055.5800630515055
1315.048317874809 3920.98381918686
1315.8757599489109 3919.2821796525423
1316.7029993911547 3997.288460664791
1317.5300362578055 4102.195346791168
1318.356870605101 3772.343070227711
1319.183502489257 3885.942834447423
1320.0099319664623 3935.030367659621
1320.836159092889 4043.0494693627224
1321.66218392468 4087.5074477634325
1322.4880065179532 3780.1445058310283
1323.3136269288134 3942.9805858396844
1324.1390452133292 4165.662504582266
1324.9642614275563 4226.5537128235965
1325.7892756275214 3950.000889191075
1326.6140878692295 3761.5493350157026
1327.4386982086617 4398.445678845226
1328.2631067017755 4013.241686971464
1329.0873134045069 3996.088020055499
1329.911318372764 3925.5131840917893
1330.735121662441 3948.7813509670073
1331.558723329399 3819.829692207074
1332.3821234294774 3819.6741751577474
1333.2053220185007 3868.1324578727704
1334.0283191522612 3814.526640006323
1334.851114886529 4062.1580519227928
1335.6737092770582 3639.914771116661
1336.4961023795695 3824.6622624719917
1337.3182942497697 3780.4054444081985
1338.1402849433325 3806.1796671759926
1338.962074515921 3707.9926352395923
1339.7836630231632 3629.3298279902424
1340.6050505206676 4211.300156512996
1341.426237064028 4003.9675302400406
1342.2472227088037 3582.472125537831
1343.0680075105338 3537.186705079549
1343.888591524741 3775.337383858223
1344.7089748069138 3914.9542436646275
1345.5291574125276 3828.8599315741726
1346.3491393970307 3545.0493657224542
1347.168920815846 3857.077380749385
1347.9885017243778 3955.5751733121638
1348.8078821780036 3711.142523189069
1349.6270622320844 3786.171527450801
1350.4460419419447 3495.866827364097
1351.2648213629054 3834.85349702676
1352.0834005502438 3531.091498955073
1352.90177955923 3612.4100903198305
1353.7199584451064 3790.47683692111
1354.5379372630887 3711.872342549551
1355.355716068374 3667.2410596900495
1356.1732949161305 3537.894599539686
1356.9906738615155 3660.3522716554785
1357.8078529596478 3652.6312561252125
1358.6248322656375 3762.54429322946
1359.441611834567 3593.3776545352184
1360.2581917214866 3773.0155164549337
1361.0745719814367 3634.681239931951
1361.890752669433 3592.985339418454
1362.7067338404577 3483.1343392392396
1363.5225155494845 3814.7129747475765
1364.3380978514506 3869.4713485154584
1365.1534808012839 3360.6071550792926
1365.9686644538815 3262.444840042069
1366.783648864117 3745.5431976900372
1367.5984340868417 3788.870080576836
1368.413020176893 3700.594948474803
1369.2274071890715 3496.321946310503
1370.0415951781652 3785.119303568134
1370.8555841989346 3591.472570279241
1371.6693743061223 3376.6852278178217
1372.48296555444 3365.3616986057627
1373.2963579985844 3696.8953635615567
1374.1095516932255 3597.185565518322
1374.9225466930166 3266.5209276550095
1375.7353430525782 3551.6059240613904
1376.5479408265164 3454.375410973481
1377.36034006941 3659.3267722694814
1378.1725408358216 3711.191002794726
1378.9845431802805 3266.4241141152625
1379.796347157304 3901.8009609995897
1380.6079528213813 3622.559182447339
1381.4193602269788 3336.0134776365485
1382.230569428546 3410.878447260312
1383.0415804805016 3715.3499746129332
1383.852393437246 3562.4658149386014
1384.6630083531563 3446.451815659029
1385.4734252825892 3416.2263489557554
1386.2836442798798 3429.469421664608
1387.0936653993322 3498.599242052017
1387.9034886952395 3458.5050964312795
1388.713114221864 3556.6508406491776
1389.5225420334482 3521.2498530968064
1390.331772184214 3393.595217964209
1391.1408047283585 3259.300552020751
1391.9496397200564 3313.6128047489583
1392.758277213461 3553.556435408863
1393.5667172627054 3578.7838481332474
1394.3749599218918 3397.1202301204335
1395.1830052451114 3201.205820294518
1395.9908532864265 3307.2185584444023
1396.7985040998774 3614.93570846732
1397.6059577394808 3299.8185160362946
1398.4132142592352 3338.8783610137725
1399.2202737131156 3284.947716118992
1400.027136155073 3481.2796400505126
1400.8338016390353 3356.771345862178
1401.6402702189134 3328.916081805711
1402.446541948586 3460.3094958421025
1403.2526168819204 3255.6988178132256
1404.058495072757 3359.6827630899907
1404.8641765749107 3365.648555430289
1405.6696614421799 3507.30887020739
1406.4749497283356 3811.1109538372584
1407.280041487129 3279.7326325321433
1408.084936772295 3125.6132416679584
1408.8896356375335 3576.6787019726457
1409.6941381365323 3495.1564624262187
1410.498444322955 3202.1393243817897
1411.3025542504402 3291.7147408142214
1412.106467972606 3397.4448685075286
1412.9101855430508 3431.5322999379364
1413.7137070153458 3103.522834314822
1414.5170324430437 3426.3118585781367
1415.320161879672 3438.5179746399963
1416.1230953787435 3686.597613779777
1416.925832993742 3342.3778319926832
1417.7283747781275 3095.1439998156557
1418.5307207853439 3465.9224680830107
1419.3328710688093 3380.3310501900282
1420.134825681922 3051.574325489908
1420.9365846780584 3278.2176923130914
1421.7381481105713 3607.52746920688
1422.539516032788 3413.5177635955165
1423.3406884980232 3165.3507024086225
1424.1416655595604 3187.2093278894995
1424.942447270665 3249.8256803783797
1425.7430336845828 3400.125701079361
1426.5434248545298 3216.2398294189707
1427.3436208337116 3376.7551299928687
1428.143621675301 3427.321863825821
1428.9434274324558 3553.0167272567023
1429.7430381583108 3176.0144389255292
1430.5424539059713 3293.311285224821
1431.3416747285337 3694.6600463445766
1432.1407006790632 3527.6409387137705
1432.9395318106053 3434.592568474768
1433.7381681761835 3199.8163566498033
1434.5366098288014 3510.1451843310956
1435.3348568214424 3499.0159628443994
1436.1329092070573 3303.4196046288407
1436.9307670385879 3456.015687563053
1437.7284303689503 3483.1118191490177
1438.5258992510335 3602.729428791876
1439.3231737377118 3479.183360741417
1440.1202538818306 3361.7647642422735
1440.9171397362225 3368.2461278589385
1441.7138313536925 3291.7091993918048
1442.5103287870243 3216.778809629012
1443.3066320889775 3215.312102364148
1444.1027413122956 3534.9238066287967
1444.8986565096966 3342.0160368567435
1445.694377733882 3275.101362106115
1446.4899050375207 3092.667203980397
1447.2852384732687 3193.720272039143
1448.0803780937622 3419.986244034616
1448.8753239516063 3217.7107496167496
1449.6700760993954 3008.0637799558062
1450.464634589689 3179.667850319052
1451.2589994750397 3557.715011732564
1452.0531708079689 3079.512548046738
1452.8471486409799 3049.44785727661
1453.6409330265524 3491.0263899688944
1454.4345240171442 3111.574324089649
1455.2279216651987 3143.8307789600653
1456.0211260231263 3257.733525017093
1456.8141371433194 3234.029061606469
1457.6069550781594 3369.678717964681
1458.3995798799897 2950.6232912332193
1459.1920116011424 3103.7432417388036
1459.98425029393 2963.2244280833993
1460.7762960106338 3028.2033041715426
1461.5681488035225 3150.226493005842
1462.3598087248392 3179.8055363795966
1463.1512758268036 3374.194441832083
1463.942550161617 2995.880691482571
1464.7336317814625 3009.54559916626
1465.524520738496 3275.346971424258
1466.3152170848552 3000.728541720421
1467.1057208726506 3174.5376608959755
1467.8960321539817 3017.5453012020266
1468.6861509809169 2911.1528091886166
1469.4760774055085 2938.5652470695672
1470.265811479785 3136.8888226766403
1471.055353255755 2838.8915096933024
1471.844702785409 2871.214349627227
1472.6338601207044 2878.3418508925306
1473.4228253135934 3134.3751839896076
1474.2115984159936 2840.6983074822524
1475.0001794798063 2714.319408149241
1475.7885685569145 3051.7959970289703
1476.576765699172 3011.0279126250402
1477.3647709584238 2863.112039233366
1478.1525843864802 3222.1952679662686
1478.9402060351367 3052.829530298743
1479.7276359561693 3144.9895932652116
1480.514874201328 2845.748810364922
1481.3019208223468 2788.1690213545144
1482.0887758709323 2612.2888050367624
1482.8754393987747 3147.926081224851
1483.6619114575406 2839.571478391821
1484.4481920988783 2907.898714545878
1485.2342813744108 2977.5707788480695
1486.0201793357446 3261.264513399973
1486.8058860344572 2758.8150954762027
1487.591401522117 2905.289825101251
1488.3767258502594 2892.9519923389134
1489.1618590704056 2941.8029947963914
1489.9468012340494 2560.4581495007146
1490.7315523926754 2938.6186692916694
1491.5161125977356 3034.56850484556
1492.3004819006637 2996.5973523860735
1493.084660352877 2770.226819070741
1493.8686480057622 3014.5330575491826
1494.6524449106964 3158.870284370031
1495.4360511190262 3235.304747676326
1496.219466682087 3035.309242025868
1497.0026916511779 2945.6272538543226
1497.7857260775945 2915.632474721479
1498.5685700125996 3079.4338673125067
1499.3512235074395 2727.432323936733
1500.133686613337 2784.132219525119
1500.9159593814966 2719.290103135227
1501.698041863101 2661.6433245778658
1502.4799341093094 2604.0451922805214
1503.2616361712662 2638.3818838196576
1504.043148100087 2984.2759985863768
1504.8244699468742 3034.3567775351694
1505.6056017626997 2671.0768186208343
1506.3865435986281 2741.794990362282
1507.1672955056893 2915.9402669228925
1507.9478575348967 2720.904709623452
1508.7282297372512 3095.568933106599
1509.5084121637192 2835.461265373301
1510.2884048652577 2802.4434648166616
1511.0682078927948 2761.82098564633
1511.8478212972423 2761.4870034099267
1512.6272451294917 2740.188968952771
1513.4064794404076 2899.598904785733
1514.1855242808433 2962.8993426757943
1514.9643797016215 2833.3627201212835
1515.743045753552 2979.817204851101
1516.5215224874191 2870.2850269692444
1517.2998099539836 2575.735604738864
1518.077908203999 2795.1288213271737
1518.8558172881785 2838.8589193951134
1519.633537257234 2883.4555061432397
1520.4110681618404 2809.2749635722653
1521.1884100526604 2954.970017362663
1521.9655629803365 2814.8922746565727
1522.7425269954856 3089.33858853996
1523.5193021487103 3178.0714565017015
1524.2958884905856 2679.9519769019016
1525.0722860716687 2780.654877758874
1525.848494942502 2817.0353377708298
1526.624515153595 2819.646556021153
1527.4003467554485 2833.907196204121
1528.175989798534 3005.5717420547203
1528.9514443333064 2870.423737293167
1529.726710410203 3058.9090445228762
1530.5017880796331 2659.8624277809013
1531.276677391992 2765.7671326740233
1532.0513783976457 3053.734743280954
1532.825891146953 2825.952636328885
1533.6002156902414 2938.7650363662297
1534.3743520778207 2754.4368180025053
1535.1483003599806 2892.0550320273237
1535.9220605869923 2939.5810808535894
1536.6956328091019 2931.576562797081
1537.4690170765407 2773.807759149048
1538.242213439511 2904.275630611716
1539.015221948208 2854.5126755750084
1539.78804265279 2717.7950887683537
1540.560675603405 2565.9279618716273
1541.3331208501804 2994.7159309520694
1542.1053784432224 3016.256304319191
1542.8774484326168 2792.846139223815
1543.649330868422 2890.6752539336244
1544.4210258006842 2888.7927759865797
1545.1925332794308 2887.604547606024
1545.9638533546604 2706.060950761589
1546.7349860763552 2716.9773151501604
1547.5059314944829 3166.7186891863316
1548.27668965898 2845.273537533648
1549.0472606197673 2673.121145314206
1549.817644426752 2697.6773544253933
1550.5878411298072 2975.9919712699166
1551.3578507787988 2810.9258577045252
1552.1276734235635 2639.2292564416866
1552.8973091139233 2826.2083586459403
1553.6667578996767 2899.434961220656
1554.436019830604 2738.056573609805
1555.20509495646 2759.4770068845655
1555.9739833269869 2652.493795476813
1556.7426849919011 2648.2830238530255
1557.511200000903 3079.415705338614
1558.2795284036674 2831.2139458606825
1559.0476702498509 2728.3727333101165
1559.8156255890954 2927.9403775699857
1560.5833944710157 3156.420433844637
1561.3509769452048 2655.6560050432863
1562.1183730612447 2762.6715924134946
1562.8855828686865 2750.507762394657
1563.6526064170703 3178.583710162746
1564.4194437559127 2897.5530591020715
1565.1860949347047 2643.4640475602023
1565.9525600029283 3049.4093130575293
1566.7188390100328 3225.2729892016273
1567.4849320054564 2728.5356624098254
1568.250839038612 2779.1571826290938
1569.0165601588997 2759.147087630681
1569.7820954156887 2944.9588462304337
1570.5474448583373 2812.94439272857
1571.31260853618 2709.5596709429524
1572.0775864985299 2507.5807630858844
1572.8423787946813 2821.6132691305856
1573.6069854739108 2680.1444410973522
1574.371406585471 2908.7517889521473
1575.1356421785986 3007.043083829309
1575.899692302506 2704.6491409083583
1576.6635570063845 2903.8154413793063
1577.4272363394157 2755.287863495484
1578.190730350747 2647.396677430602
1578.9540390895163 2523.99419841088
1579.7171626048384 2400.1780761709333
1580.480100945806 2586.0679111195273
1581.2428541614918 2706.2705765272594
1582.0054223009538 2824.4002195497674
1582.767805413223 2818.319415552731
1583.5300035473156 2740.035257027805
1584.292016752228 3191.6945892947306
1585.0538450769309 2955.4709324182036
1585.8154885703807 2583.3977872454993
1586.5769472815136 2480.7604584738096
1587.3382212592405 2662.4993894439385
1588.099310552463 3037.9904958865873
1588.8602152100484 2740.0383256192013
1589.6209352808564 2921.753602399832
1590.3814708137234 2785.6889487798303
1591.14182185746 3139.969209939685
1591.9019884608679 2720.253296345051
1592.6619706727215 2489.5880523213264
1593.4217685417734 2871.307041567149
1594.1813821167616 2957.478049834694
1594.9408114464022 2523.274136573912
1595.7000565793933 2709.6249964789595
1596.459117564409 2890.265858443348
1597.2179944501113 2687.8647634118947
1597.9766872851324 2638.7083575362403
1598.735196118092 2855.620652938234
1599.4935209975883 2827.3099434114793
1600.2516619721973 2896.54480485991
1601.0096190904787 2656.9037156781333
1601.7673924009723 2709.7010145508525
1602.524981952196 2658.2475346478946
1603.2823877926476 2716.3565495417906
1604.0396099708087 2606.019290584871
1604.7966485351371 2479.381262919388
1605.5535035340745 2670.3841809476344
1606.3101750160404 2918.894018759321
1607.0666630294363 2600.3554730254127
1607.822967622642 2468.343557913964
1608.5790888440224 2693.573461098039
1609.3350267419137 2922.270573006789
1610.0907813646445 2631.3451790332424
1610.8463527605145 2683.252709426058
1611.601740977805 2791.2949244856122
1612.356946064785 2731.264454097567
1613.1119680696902 2429.4009536895014
1613.8668070407512 2597.691294722012
1614.6214630261748 2598.5847691524104
1615.375936074137 2908.5639031906917
1616.1302262328118 2573.533822720213
1616.8843335503425 2768.875588786706
1617.638258074854 2540.7961121893363
1618.391999854457 2626.668711978714
1619.1455589372363 2863.676571301199
1619.8989353712623 2734.9390524726577
1620.65212920458 2416.236379569527
1621.4051404852235 2584.2478405241736
1622.1579692611976 2511.342456200776
1622.9106155804966 2446.0773389334017
1623.663079491087 2534.6016667377935
1624.4153610409248 2735.421792649154
1625.1674602779385 2507.369505973029
1625.9193772500403 2384.8518960788388
1626.6711120051277 2897.8306003234093
1627.4226645910676 2708.5101750960553
1628.174035055721 2443.372583895768
1628.9252234469168 2725.4274444454995
1629.676229812474 2513.1817933111097
1630.4270542001905 2586.743914686673
1631.1776966578382 2660.479781584972
1631.9281572331747 2511.9584219689064
1632.678435973945 2812.127656818009
1633.4285329278573 2680.8172254077645
1634.1784481426203 2269.5427335605737
1634.9281816659113 2653.5094632318915
1635.677733545388 2755.7240245141343
1636.4271038286934 2484.813433138906
1637.176292563452 2753.056953773936
1637.9252997972635 2604.2474940050465
1638.674125577716 2796.018392503061
1639.4227699523672 3034.212317438447
1640.171232968767 2448.4776136476216
1640.9195146744423 2740.5184327726997
1641.6676151168977 2894.375168933043
1642.4155343436178 2776.1407604849724
1643.1632724020765 2647.124281714817
1643.9108293397167 2583.022965323041
1644.658205203974 2498.55789308221
1645.4054000422566 2560.221103236886
1646.1524139019566 2621.7317753043453
1646.8992468304423 2528.935336575608
1647.6458988750728 2534.728347953732
1648.3923700831765 2564.7467675525463
1649.1386605020743 2512.7286103684164
1649.8847701790564 2784.3397916248673
1650.6306991614038 2645.695932061549
1651.3764474963682 2797.112395188762
1652.1220152311944 2286.7701056648666
1652.867402413096 2668.683849287455
1653.6126090892776 2576.0507736292384
1654.3576353069184 2832.69066074918
1655.1024811131829 2753.38909234142
1655.8471465552066 2633.664547541558
1656.5916316801213 2865.6498081930113
1657.3359365350298 2646.3626127343796
1658.0800611670165 2567.1197030045214
1658.824005623148 2643.0798427254476
1659.5677699504722 2454.03344270894
1660.3113541960192 2734.9604495618687
1661.054758406799 2534.3877084497503
1661.7979826297997 2457.6357815551846
1662.5410269119966 2486.872994845511
1663.283891300338 2789.4911828942522
1664.0265758417645 2528.2462729984527
1664.7690805831826 2633.554057283771
1665.5114055714948 2798.3357211303705
1666.2535508535748 2552.3553913466953
1666.9955164762814 2305.704854542366
1667.7373024864555 2565.091746901979
1668.478908930916 2687.7255312311204
1669.220335856462 2483.6665527646082
1669.9615833098778 2562.040613419234
1670.7026513379296 2533.791860898814
1671.44353998736 2622.9306236552343
1672.1842493048916 2644.650068821763
1672.9247793372379 2563.259384000361
1673.6651301310812 2611.053828903193
1674.4053017330934 2455.7292731329194
1675.1452941899242 2271.6939425939636
1675.885107548207 2087.3612320794623
1676.6247418545518 2211.2447512837757
1677.3641971555535 2466.4696620594955
1678.1034734977893 2667.506724329525
1678.8425709278108 2549.902414336376
1679.5814894921605 2793.367661693993
1680.320229237359 2683.216359667861
1681.0587902098978 2674.955124906456
1681.7971724562685 2536.264328738573
1682.5353760229264 2418.2346506180515
1683.2734009563173 2692.9682915292224
1684.0112473028657 2317.3386829799065
1684.7489151089794 2492.0653808145785
1685.4864044210462 2744.3776279389526
1686.2237152854377 2705.853272368427
1686.960847748498 2667.414568921339
1687.6978018565642 2322.080130964157
1688.434577655944 2403.8095010207808
1689.1711751929379 2225.3903017088815
1689.9075945138156 2514.2016960402934
1690.6438356648396 2454.025122078959
1691.3798986922448 2078.762921533036
1692.1157836422499 2426.2843028202346
1692.851490561059 2294.1472845423114
1693.587019494853 2429.1684655131266
1694.3223704897991 2146.9470289795527
1695.0575435920364 2078.8228152546444
1695.792538847696 2168.9783790241972
1696.527356302886 2259.1621384559394
1697.2619960036936 2102.3505153686992
1697.9964579961907 2107.7620535736664
1698.730742326432 1812.513969408914
1699.4648490404488 2046.2680438983039
1700.1987781842563 2169.717867005566
1700.9325298038548 2438.4633531055515
1701.6661039452174 2466.312249108481
1702.3995006543082 2350.4568358551533
1703.1327199770658 2412.2366360532315
1703.865761959416 2092.8656718620814
1704.598626647261 2473.916229574104
1705.3313140864866 2083.6895081759385
1706.0638243229587 2244.587042416523
1706.7961574025303 2377.0526476712766
1707.528313371029 2126.7658876666305
1708.260292274268 2005.2056526126064
1708.9920941580403 2273.547086277301
1709.7237190681226 2365.356728993973
1710.4551670502697 2228.4526458948776
1711.18643815022 2366.356606067159
1711.9175324136959 2030.9517321354506
1712.6484498863938 2198.189221565353
1713.379190614005 1886.5556061017717
1714.109754642188 2048.972152149643
1714.8401420165883 2153.1058929332494
1715.570352782839 2173.1656894980924
1716.3003869865497 2193.3493671492483
1717.0302446733076 1990.517523404294
1717.7599258886876 2222.6941889250656
1718.4894306782444 2095.1915582085558
1719.2187590875183 1967.4231779954523
1719.9479111620203 2321.167555246548
1720.6768869472544 2091.965833395855
1721.4056864887025 2525.0502362552807
1722.1343098318284 2477.024297265311
1722.8627570220742 2188.153055292743
1723.591028104871 2003.8585003360993
1724.3191231256242 1919.8688087241353
1725.0470421297232 2111.588612092467
1725.7747851625427 2262.807141760737
1726.5023522694337 2300.351414062324
1727.2297434957363 2218.749157636445
1727.9569588867635 1919.132582812904
1728.6839984878152 2260.9322958592315
1729.4108623441734 2216.8909175045906
1730.1375505011038 2173.0118900252482
1730.8640630038426 1999.4008136180196
1731.5903998976264 1982.326403885541
1732.316561227657 2232.7090567694095
1733.0425470391274 1876.0165903064196
1733.7683573772065 2121.843547665442
1734.4939922870508 2105.4116819384917
1735.2194518137949 2140.60080178101
1735.9447360025606 2114.8352566606895
1736.669844898439 2057.603113246028
1737.3947785465189 1949.7355093507297
1738.1195369918605 1850.6587504987322
1738.8441202795093 2075.3337487985746
1739.5685284544943 2203.051997338895
1740.292761561821 2222.891201214788
1741.0168196464838 2218.907401067273
1741.7407027534518 2126.7456592023564
1742.464410927687 2068.2231148204437
1743.187944214118 2044.2138938664725
1743.9113026576688 1991.8731545724254
1744.634486303241 1965.7113443313835
1745.3574951957125 2062.6874031130337
1746.0803293799509 2211.5352605637727
1746.8029889008048 2080.3418908667436
1747.5254738031017 2178.0142102038894
1748.2477841316504 1965.5924797280331
1748.969919931249 2038.660392134466
1749.6918812466665 2041.4774945576733
1750.4136681226646 2239.4279297349804
1751.1352806039777 1937.8874148644372
1751.856718735331 1680.004943202859
1752.5779825614281 1876.798103303917
1753.2990721269507 2224.9498350664066
1754.0199874765676 2225.927177978639
1754.7407286549314 1760.0251491292413
1755.4612957066693 1911.707686798781
1756.1816886763954 1880.0023069903061
1756.9019076087097 2120.037436816869
1757.6219525481865 2110.678559082143
1758.3418235393856 2087.751644596994
1759.061520626854 2073.223144199386
1759.7810438551096 2244.2371739119776
1760.5003932686614 2281.3055350662125
1761.2195689119999 2318.414312699043
1761.938570829594 1976.6692447948546
1762.657399065898 1951.0622047612542
1763.376053665348 1840.7209377436188
1764.0945346723602 1808.20370788545
1764.812842131334 1798.9834043452095
1765.5309760866512 1789.871021531421
1766.2489365826787 1897.8762831887088
1766.9667236637597 1994.3414073334163
1767.684337374223 1664.6959883506952
1768.401777758383 1731.2383382466237
1769.1190448605284 1827.2648149733373
1769.836138724937 1796.814020889781
1770.5530593958665 1963.0121159129205
1771.2698069175603 2311.4035159476202
1771.9863813342326 2046.9221351370365
1772.702782690094 1943.2873547463957
1773.4190110293293 2143.569009932154
1774.1350663961111 1998.0557778473394
1774.8509488345844 1890.4087335206161
1775.5666583888924 2002.8298898286157
1776.2821951031437 2187.2272846070673
1776.9975590214362 1932.850983243814
1777.7127501878585 2159.842737914926
1778.4277686464684 2083.7541408827556
1779.1426144413108 2140.7012928471695
1779.8572876164162 2197.877755997067
1780.571788215797 1745.5121943073184
1781.2861162834415 1995.5094530222127
1782.0002718633277 1898.556825181644
1782.7142549994132 2118.6440315142777
1783.4280657356376 1983.6593722447337
1784.141704115922 1857.9824919036823
1784.855170184177 1924.1039937505034
1785.5684639842839 2023.329441760619
1786.2815855601148 1682.77524437471
1786.9945349555237 2089.3395275801686
1787.707312214343 1618.840360521628
1788.4199173803918 1687.4254899778891
1789.132350497468 1756.275583882082
1789.8446116093583 1913.1017910658495
1790.556700759822 1792.4164404479707
1791.2686179926077 1905.884151544108
1791.9803633514493 1899.8918886636627
1792.6919368800554 1661.439253209821
1793.4033386221236 1966.159369864395
1794.1145686213295 2105.5824517278074
1794.8256269213307 2169.994368930855
1795.536513565774 2035.4941503541875
1796.247228598284 1749.8465406088048
1796.9577720624693 1855.8972799017695
1797.6681440019165 1923.5269910556176
1798.3783444602013 1897.4819988991665
1799.0883734808776 2012.0703129455171
1799.7982311074884 2051.7821463941245
1800.5079173835475 1907.5493346182986
1801.2174323525633 2135.153305996947
1801.9267760580187 1865.815085515897
1802.635948543386 1929.880100374882
1803.3449498521113 1778.9603508656273
1804.0537800276325 1935.6236844384682
1804.7624391133668 1873.8925577926773
1805.47092715271 1631.4960721311515
1806.1792441890484 1768.518603394281
1806.8873902657433 2124.780327233743
1807.5953654261448 1872.246010942772
1808.3031697135812 1793.0086459065908
1809.0108031713662 1890.7315022310559
1809.71826584279 1961.0963808022493
1810.425557771141 1765.0885740571885
1811.1326789996747 1769.4881594826372
1811.839629571632 1773.7959156695658
1812.5464095302468 1908.095511369796
1813.2530189187182 1899.784650717727
1813.959457780249 1787.0880891950296
1814.6657261580076 2073.3758018307763
1815.371824095153 1935.5869680728913
1816.0777516348262 1696.6065173913946
1816.78350882015 1880.9165505570272
1817.4890956942272 1710.8107184608525
1818.1945123001533 1900.0405009384224
1818.8997586809928 1831.5971679199465
1819.6048348798067 1800.7865683223124
1820.3097409396287 1816.853902283729
1821.0144769034796 1884.4553102751997
1821.7190428143622 1952.0231724428365
1822.423438715261 2062.7675994577653
1823.1276646491478 1714.976551076389
1823.8317206589727 1977.5520541285593
1824.5356067876692 1891.5126085417112
1825.2393230781581 1843.202757023124
1825.942869573335 1645.2235973766328
1826.646246316086 1724.608200683714
1827.3494533492758 1946.1600539534404
1828.052490715756 1950.8336292361175
1828.7553584583547 1849.544608309323
1829.458056619891 1975.4878540708937
1830.1605852431585 1730.3091490273496
1830.8629443709433 1634.1026129272407
1831.5651340460063 1774.6593018481938
1832.2671543110919 1698.7993191597761
1832.9690052089318 2048.89253084488
1833.6706867822395 2019.7723379083884
1834.3721990737104 1990.806148197396
1835.0735421260233 2052.496799348272
1835.774715981841 1785.5201251121484
1836.4757206838058 1744.1044434125295
1837.1765562745459 1703.0414442232952
1837.8772227966747 1661.9205191666108
1838.5777202927839 1903.0471285556396
1839.2780488054523 1774.3212804623843
1839.9782083772352 1645.2312745686643
1840.6781990506806 1703.8779478356573
1841.378020868313 1762.620921265096
1842.0776738726418 1832.8355643744846
1842.777158106157 1681.6030298990463
1843.4764736113375 1683.0836430813117
1844.1756204306403 1969.4205066459504
1844.8745986065078 2046.5495935253105
1845.5734081813607 1716.689317619464
1846.2720491976124 1686.7240630646913
1846.970521697649 1772.2681278357954
1847.6688257238511 1910.9797703243944
1848.3669613185684 1858.373403539327
1849.0649285241452 1901.2054046027981
1849.7627273829057 1944.0701993941152
1850.460357937156 1823.793801073818
1851.1578202291857 1853.4065555656312
1851.8551143012664 1883.3593341050168
1852.5522401956569 1815.9760382704749
1853.2491979545957 2060.6688950876433
1853.9459876203055 1730.5190300384184
1854.6426092349902 1565.8558509490242
1855.3390628408451 1706.4373493014689
1856.0353484800362 2009.55679523541
1856.7314661947203 1866.8689856121837
1857.4274160270397 1606.5105973994303
1858.123198019115 1811.8624092745736
1858.8188122130487 1630.6935622056358
1859.5142586509319 1749.7659958171657
1860.209537374838 1731.193588883099
1860.9046484268183 1752.4751129245974
1861.599591848917 1702.1483078510792
1862.294367683151 1651.7257569640879
1862.988975971528 1676.4003559722282
1863.6834167560355 1819.411007010262
1864.3776900786452 2040.0958638907694
1865.0717959813119 1700.886049397806
1865.7657345059724 1601.8476544991518
1866.4595056945564 1865.6697081795446
1867.1531095889586 1896.8151644473462
1867.846546231076 1929.8252828209784
1868.5398156627743 1962.949492023186
1869.2329179259123 1693.264844713513
1869.9258530623283 1666.2480856213638
1870.618621113843 1639.1504777632163
1871.3112221222636 1602.7432571457155
1872.0036561293764 1708.5110000950813
1872.695923176956 1874.171159302014
1873.3880233067594 1928.3511459936994
1874.0799565605212 1599.6993503198032
1874.7717229799673 1784.1687670871786
1875.4633226068036 1971.6044350484226
1876.1547554827175 2014.6700469563075
1876.8460216493859 1752.269632255376
1877.5371211484617 1629.9655818168399
1878.2280540215852 1621.1103699351759
1878.9188203103804 1612.2158512640908
1879.6094200564548 1721.5596692755557
1880.299853301396 1636.8855845530245
1880.9901200867826 1946.0066380562773
1881.6802204541673 1778.754182732863
1882.3701544450942 1866.2472704633321
1883.059922101087 1934.275465819724
1883.7495234636517 2002.367497136923
1884.4389585742792 1691.1909109684243
1885.1282274744517 1648.6647145373713
1885.8173302056166 2251.616123314819
1886.506266809225 1866.7837352793892
1887.195037326701 1427.8841567838895
1887.8836417994517 1683.5171440302613
1888.5720802688702 2142.514303445575
1889.260352776333 1962.4735167889994
1889.9484593632042 1879.811595335542
1890.63640007082 1702.9636103269906
1891.3241749405151 1472.9456483111867
1892.0117840135954 1810.777966080384
1892.6992273313572 1788.0319274315705
1893.3865049350788 1636.6595775721719
1894.0736168660223 1694.673140020654
1894.7605631654333 1752.7176119223527
1895.4473438745408 1523.2807040417997
1896.133959034556 1684.37958952264
1896.820408686679 1845.6070538249073
1897.506692872088 2118.4788566271277
1898.192811631945 1769.1632091758433
1898.8787650073991 1657.203681403465
1899.5645530395832 1972.0978969342511
1900.2501757696118 1948.986117916301
1900.9356332385796 1658.7666446522076
1901.620925487574 1726.3090850095061
1902.3060525576602 1794.1036559181655
1902.9910144898859 1827.6379508010687
1903.6758113252872 1615.8672062903652
1904.3604431048789 1737.7475793339715
1905.0449098696663 1900.9383871266666
1905.7292116606295 1709.6654183700648
1906.4133485187394 1544.4433094892593
1907.0973204849488 1378.8306434772778
1907.7811276001976 1545.0340753268556
1908.4647699053967 1642.826330620658
1909.1482474414588 1612.3670941047758
1909.8315602492694 1581.7701970442338
1910.5147083696957 1933.2108454024788
1911.1976918436012 1686.571716017484
1911.880510711815 1576.5569367804087
1912.5631650151681 1568.5258731892977
1913.2456547944657 1560.439942453583
1913.927980090495 1674.052135127237
1914.6101409440362 1700.154964875753
1915.2921373958416 1874.0752422261362
1915.9739694866603 1722.0357493184558
1916.655637257214 2049.8197640181415
1917.3371407482136 1697.7964781498608
1918.0184800003572 2033.4651177993128
1918.6996550543154 1787.4417806110819
1919.3806659507554 1848.9585647748834
1920.0615127303208 1833.4197273020177
1920.7421954336423 1928.288432317111
1921.4227141013343 1866.149549373909
1922.103068773993 1803.9127780216077
1922.783259492202 1972.3287375691245
1923.4632862965227 1642.1133949428236
1924.1431492275078 1688.775850069654
1924.8228483256917 1641.4573637838616
1925.5023836315922 1842.238670564579
1926.1817551857057 1944.4573568064552
1926.8609630285227 2046.9157845351758
1927.5400072005123 1836.431927534435
1928.218887742125 1514.3189671783816
1928.8976046938005 1557.9364285807003
1929.5761580959588 1813.6542007298133
1930.2545479890086 1678.6117046503841
1930.9327744133352 1444.6714864323833
1931.6108374093164 1790.742190567135
1932.2887370173066 2040.6085347953315
1932.9664732776473 1913.306526761288
1933.6440462306673 1785.6428119754473
1934.3214559166754 1641.0852046395073
1934.9987023759659 2126.3212991457717
1935.675785648813 1823.547633507294
1936.3527057754836 1328.6132265175745
1937.029462796223 1462.8924976408744
1937.70605675126 1597.4923598169198
1938.3824876808085 1505.0847990388688
1939.058755625072 1647.7201977556663
1939.7348606242267 1564.754325274951
1940.4108027184448 1577.0575308697112
1941.0865819478713 1580.3088431572164
1941.7621983526478 1583.5585171603261
1942.4376519728921 1521.1921558060667
1943.1129428487038 1778.9126132575634
1943.7880710201734 1745.35627415663
1944.4630365273733 1832.7543120285463
1945.1378394103576 1572.0555621642948
1945.8124797091714 1508.6460040356305
1946.4869574638324 1445.0577925091225
1947.161272714353 1603.6807950494858
1947.8354255007234 1762.56035611657
1948.5094158629272 1580.5173301410214
1949.1832438409183 1754.1318487590956
1949.8569094746435 1861.2434576568799
1950.530412804037 1973.3872555793437
1951.2037538690092 1815.0996070634199
1951.8769327094578 1702.1363475573853
1952.5499493652678 1672.4962202458282
1953.222803876306 1951.0055039548818
1953.895496282421 1693.6306610782353
1954.5680266234522 1827.291929198092
1955.2403949392155 1811.9530058522098
1955.9126012695142 1419.1442709633582
1956.5846456541403 1673.7516903638268
1957.2565281328643 1638.7072795464264
1957.9282487454457 1848.9179184279485
1958.5998075316202 1854.1627366072626
1959.27120453112 1561.0365454721227
1959.9424397836501 1685.672835568937
1960.613513328908 1841.8952944949674
1961.2844252065697 1997.374177687064
1961.9551754563017 1575.8249317463456
1962.6257641177453 1575.9962912858348
1963.29619123054 1434.5318549874105
1963.966456834296 1553.480764340397
1964.6365609686181 1452.0422704614514
1965.306503673086 1523.7621216660395
1965.976284987275 1595.5204504401527
1966.645904950734 1639.7052203123317
1967.315363603002 1394.8904126136272
1967.9846609836077 1702.3538274931325
1968.6537971320486 1597.3764150096945
1969.3227720878222 1659.1289630120032
1969.9915858904042 1641.8724943481539
1970.660238579252 1826.201547563467
1971.3287301938108 1641.096167507122
1971.997060773514 1622.125574204345
1972.665230357772 1559.7909461803283
1973.3332389859843 1608.4617355858732
1974.0010866975335 1428.4119137976231
1974.6687735317864 1667.7200842197872
1975.3362995280932 1771.429315725365
1976.003664725793 1881.1985036276633
1976.6708691642052 1755.8402631333488
1977.3379128826364 1630.1611746895503
1978.004795920373 1792.4568871602028
1978.6715183166925 1543.4283725392713
1979.3380801108524 1845.3409381527406
1980.0044813420973 1661.9264648636054
1980.6707220496555 1300.724198317415
1981.3368022727373 1690.2031191642363
1982.0027220505417 1736.5647251584287
1982.66848142225 1608.554911265866
1983.3340804270283 1480.4103702580626
1983.999519104027 1613.2110757925923
1984.6647974923835 1627.8906634159216
1985.329915631215 1828.410075118319
1985.99487355963 1663.2850654854738
1986.6596713167146 1809.752909857918
1987.3243089415428 1510.1836205272014
1987.9887864731754 1807.8819147915751
1988.6531039506553 1395.7236521622508
1989.3172614130071 1482.7553573939742
1989.9812588992481 1569.960664852028
1990.645096448372 1313.3866384950368
1991.3087740993633 1637.5856964512418
1991.9722918911848 1673.5528332751014
1992.635649862792 1646.7107066908127
1993.2988480531185 1793.4863771794703
1993.9618865010852 1671.2574500437447
1994.6247652455968 1548.8553118530565
1995.287484325545 1508.777711397962
1995.9500437798033 1611.4471876706846
1996.6124436472292 1635.8070376705216
1997.2746839666706 1727.724200205365
1997.936764776954 1603.9416588866925
1998.598686116895 1509.5551487867692
1999.2604480252903 1670.3418272357096
1999.9220505409212 1831.4370836191933
2000.5834937025593 1540.4122328890053
2001.2447775489582 1570.8020218338302
2001.9059021188514 1566.1012680297488
2002.5668674509616 1466.400053588098
2003.2276735839987 1574.8416409935655
2003.8883205566508 1590.9318922288942
2004.5488084075987 1606.9924284425906
2005.2091371755014 1625.6721733206655
2005.8693068990033 1398.184757823688
2006.5293176167397 1447.4651196993673
2007.1891693673224 1496.9601153049587
2007.848862189354 1492.2142525700478
2008.5083961214223 1546.7898246370223
2009.1677712020955 1419.6299312585656
2009.8269874699254 1549.411238992192
2010.4860449634598 1451.8428256803068
2011.1449437212177 1354.1042399310707
2011.8036837817108 1878.6297543135292
2012.4622651834325 1939.9725030198363
2013.1206879648653 1713.279475264007
2013.7789521644736 1957.3698432328358
2014.4370578207036 1806.310352509848
2015.0950049719922 1654.7669070004808
2015.7527936567585 1762.7121400114447
2016.4104239134067 1574.108654415349
2017.067895780323 2050.2415013007603
2017.725209295886 2022.9285222892006
2018.3823644984514 1995.490240575487
2019.0393614263648 1747.5396744402956
2019.6962001179545 1526.5462417896017
2020.3528806115355 1847.05379681687
2021.0094029454067 1779.1743829070208
2021.6657671578487 1383.2791857342609
2022.321973287133 1599.125955436204
2022.9780213715148 1526.489539963839
2023.6339114492293 1744.4101201734234
2024.2896435585026 1617.172144819327
2024.9452177375442 1581.0762799866043
2025.600634024544 1913.5745232067936
2026.2558924576842 1679.2950628805822
2026.9109930751292 1811.980504812076
2027.565935915025 1861.150823136158
2028.2207210155066 1910.4671227518688
2028.8753484146964 1966.969638303058
2029.529818150695 1989.824495995223
2030.1841302615903 2012.6257081199226
2030.8382847854573 1484.7850531144973
2031.4922817603601 1793.1573636740463
2032.1461212243357 1664.032696428602
2032.7998032154192 1330.419435025553
2033.4533277716218 1543.658225130353
2034.1066949309443 1416.541048085624
2034.7599047313688 1483.7096365432858
2035.4129572108704 1725.8765989623212
2036.0658524074006 1502.506857385507
2036.7185903589016 1702.047657145025
2037.3711711032956 1778.4375784968738
2038.023594678496 1689.4866108601102
2038.675861122394 1481.182007557933
2039.3279704728757 1464.5459669654374
2039.9799227678031 1448.006755342643
2040.6317180450278 1606.1975066715936
2041.2833563423865 1541.633766082691
2041.9348376977014 1847.1508569439404
2042.5861621487784 1851.6637808524597
2043.2373297334088 1649.8614985515392
2043.8883404893695 1735.3313150891966
2044.5391944544208 1645.4599809989159
2045.1898916663158 1877.1999790781108
2045.8404321627804 1703.0413897795693
2046.4908159815368 1528.4691748830478
2047.1410431602853 1670.5684771685792
2047.7911137367173 1524.6622335280322
2048.441027748504 1423.3791794282301
2049.090785233302 1321.9450019388967
2049.7403862287592 1513.3511996844863
2050.389830772503 1457.893647868638
2051.0391189021466 1402.4250486066728
2051.688250655294 1595.395249692086
2052.337226069527 1408.5152129827643
2052.986045182417 1784.2782010393173
2053.634708031521 1179.6375610215832
2054.283214654375 1734.1385893627357
2054.931565088511 1229.0362825691077
2055.579759371436 1363.3664992711415
2056.2277975406523 1649.3093923217668
2056.8756796336384 1502.9184094458808
2057.5234056878617 1356.1377909646123
2058.1709757407752 1420.178171943918
2058.8183898298194 1864.6412636736445
2059.465647992416 1721.1650644456572
2060.1127502659747 1928.7517621578252
2060.759696687888 1830.3661749494026
2061.4064872955405 1731.9767102882809
2062.053122126292 1378.5990591932018
2062.699601217497 1693.496746902222
2063.345924606485 1425.7695130939248
2063.992092330587 1699.6405806881244
2064.638104427102 1438.1389466542691
2065.283960933324 1538.0602969058805
2065.92966188653 1638.0854165698806
2066.5752073239855 1852.4033200781698
2067.2205972829397 1487.1746818444065
2067.86583180062 1633.4006303391827
2068.5109109142522 1544.2582885292506
2069.15583466104 1664.497255125194
2069.8006030781708 1395.3698010517262
2070.445216202821 1391.4562770221746
2071.089674072153 1842.3362427827892
2071.7339767233116 1910.4556009781925
2072.3781241934303 1473.2265396579828
2073.0221165196253 1616.6220920602582
2073.6659537390024 1632.306876521517
2074.3096358886505 1738.3440476470212
2074.953163005637 1476.404743863908
2075.596535127028 1325.1609047146933
2076.2397522898664 1327.154477323207
2076.882814531182 1695.7348335528277
2077.5257218879924 1671.6058178087656
2078.1684743973 1349.2065095261464
2078.8110720960885 1338.5660693750365
2079.453515021336 1566.755013816057
2080.095803209997 1795.167130603954
2080.7379366990135 1697.2586946970746
2081.37991552532 1824.65928939878
2082.0217397258275 1692.0711081797476
2082.6634093374414 1350.9578131155417
2083.3049243970418 1545.257161123322
2083.9462849415067 1806.7522226149335
2084.587491007689 1688.0441407013823
2085.2285426324324 1545.0456380983837
2085.869439852564 1609.8907284710058
2086.510182704902 1449.3817657059005
2087.1507712262483 1627.7441871588076
2087.791205453381 1412.499233024609
2088.4314854230743 1769.6264478299363
2089.0716111720867 1733.9434840951744
2089.7115827371617 1132.6351009584027
2090.351400155023 1277.1643771229049
2090.991063462385 1422.015553869302
2091.6305726959527 1255.7024974900676
2092.2699278924047 1359.5729651790218
2092.9091290884153 1463.712796271001
2093.548176320641 1337.9637592794256
2094.187069625721 1774.4987661791129
2094.8258090402887 1425.199857740515
2095.464394600951 1805.3581916495082
2096.102826344313 1678.2754453811472
2096.741104306955 1691.8866283587345
2097.379228525453 1280.9908660369197
2098.017199036358 1154.0879332927493
2098.6550158762147 1462.980689972514
2099.2926790815527 1772.5368830250914
2099.9301886888825 1598.4519379329895
2100.5675447347076 1672.2838553191527
2101.2047472555114 1777.0378975376348
2101.841796287761 1584.5950673148138
2102.47869186792 1704.9101582516716
2103.1154340324265 1427.6903685240475
2103.752022817709 1624.2080489130217
2104.388458260184 1516.501900457223
2105.024740396251 1462.1882886675103
2105.660869262292 1388.6884757182936
2106.296844894685 1703.135506627526
2106.93266732978 1581.987105509093
2107.5683366039284 1425.8803245524018
2108.2038527534532 1696.0630566249806
2108.8392158146726 1759.363285823391
2109.4744258238843 1568.1572006690478
2110.1094828173755 1541.290209279152
2110.744386831422 1557.1397343210747
2111.3791379022787 1573.0559843283497
2112.01373606619 1892.76217852238
2112.648181359389 1681.2229243058944
2113.28247381809 1678.5725313259422
2113.916613478492 1782.543178598105
2114.550600376786 1598.994004961754
2115.1844345491445 1555.889721092335
2115.818116031729 1431.0807674565472
2116.451644860679 1374.12015292759
2117.085021072133 1316.96939953647
2117.718244702204 1432.918756942085
2118.3513157869984 1451.300348842468
2118.984234362604 1418.3055227389593
2119.617000465092 1490.4112946618848
2120.249614130529 1474.444230646082
2120.8820753949585 1458.454525132647
2121.5143842944162 1394.660716746139
2122.14654086492 1465.8670047634482
2122.7785451424734 1929.2853425108212
2123.4103971630702 1832.404902066532
2124.042096962681 1735.5007898222746
2124.6736445772767 1655.1556086135492
2125.305040042802 1443.7910606234987
2125.936283395191 1627.516031218177
2126.567374670365 1612.3160257653785
2127.198313904233 1450.6579280515368
2127.8291011326855 1568.9108925149944
2128.4597363916037 1687.2248240940564
2129.0902197168507 1574.3193143647738
2129.720551144279 1717.3954430312156
2130.3507307097225 1860.5556204879838
2130.980758449008 1940.2435060546784
2131.6106343979427 1852.8724626117819
2132.2403585923203 1765.3071207250227
2132.8699310679276 1915.9465891088694
2133.499351860526 1654.6754976980944
2134.1286210058715 1551.7984410730257
2134.7577385397053 1683.200765803093
2135.3867044977487 1814.822203776582
2136.0155189157176 2092.4850886180507
2136.644181829308 1805.9299693935973
2137.2726932742025 1569.1963742613184
2137.901053286074 1463.2319720316389
2138.5292619005777 1357.1551930947576
2139.1573191533535 1442.5156108318395
2139.7852250800315 1678.9472391467866
2140.4129797162295 1641.4793838998546
2141.0405830975433 1244.9459556806983
2141.6680352595613 1290.8932841041928
2142.2953362378576 1336.9433360619703
2142.9224860679915 1522.697611188788
2143.549484785508 1487.5137935329642
2144.1763324259373 1558.5820905212618
2144.803029024799 1612.0035653511457
2145.429574617594 1352.2053606619536
2146.0559692398165 1392.6717150120219
2146.682212926942 1433.0874632851967
2147.308305714432 1535.7267068092253
2147.9342476377333 1937.2773835847904
2148.5600387322847 2114.019056988206
2149.185679033506 1665.8212905491025
2149.8111685768017 1522.9525003061553
2150.4365073975678 1270.3570114859535
2151.061695531187 1512.663360309874
2151.686733013021 1779.8295949137869
2152.311619878423 1739.4627055153403
2152.9363561627342 1596.6269900235825
2153.560941901278 1480.3461685905509
2154.1853771293663 1602.2690427557864
2154.809661882293 1624.0882015646885
2155.433796195348 1431.8612410172116
2156.0577801037944 1935.128071379547
2156.681613642895 1738.6235051626186
2157.3052968478896 1178.5007825138246
2157.928829754006 1671.7287640971201
2158.552212396462 1830.721441919055
2159.1754448104566 1673.1858303088895
2159.7985270311783 1352.0072280088414
2160.4214590938027 1011.2274903250573
2161.0442410334927 1059.75258819686
2161.6668728853874 1198.8470792093499
2162.289354684628 1338.2396315249428
2162.911686466332 1695.2671306247626
2163.533868265602 1607.432830349208
2164.1559001175337 1621.1292455910334
2164.7777820572046 1634.7794184591978
2165.399514119681 1638.659415952056
2166.021096340013 1487.9230550855495
2166.6425287532384 1903.8797524699864
2167.263811394385 1495.5837997560554
2167.8849442984574 1881.2395958683119
2168.505927500455 1412.4849966060945
2169.126761035366 1847.5094681563035
2169.7474449381552 1396.2754132460575
2170.367979243778 1090.5627369464326
2170.9883639871823 1848.2588602647775
2171.608599203293 1369.1662496792806
2172.2286849270276 2012.354111122197
2172.8486211932886 2269.006863150443
2173.4684080369625 1510.3536393829322
2174.0880454929265 1282.701299477445
2174.7075335960417 1174.6606380485837
2175.3268723811543 1218.4484062195666
2175.9460618831 1262.3639786288816
2176.565102136701 1637.9094022945515
2177.1839931767627 1616.160579931327
2177.802735038078 1594.3774916038062
2178.421327755432 1354.211740925021
2179.0397713635866 1401.3076864985783
2179.658065897298 1357.7163704489653
2180.276211391305 1566.5116153111073
2180.8942078803357 1494.7728578401914
2181.5120553991 1717.4733060458075
2182.129753982299 1639.6025841324122
2182.7473036646206 1561.5655700162677
2183.3647044807367 1480.0312099769808
2183.9819564653044 1398.3630108741952
2184.599059652968 1602.1475066474045
2185.216014078367 1733.615085292684
2185.832819776113 1762.7293090251671
2186.4494767808137 1791.8117828902934
2187.065985127063 1370.0919739736562
2187.682344849436 1372.786076212837
2188.298555982501 1478.4219255829282
2188.9146185608097 1584.145456722184
2189.530532618901 1748.407474155732
2190.1462981912937 1564.9514701981657
2190.761915312507 1709.1170953351625
2191.377384017036 1633.0124662821468
2191.9927043393654 1750.3836136733476
2192.6078763139667 1923.3019202877153
2193.2228999753006 2096.6136407771783
2193.837775357808 1582.0139530425943
2194.452502495922 1190.891937716203
2195.0670814240602 1609.8982191778166
2195.6815121766285 1289.2921885741414
2196.2957947880186 1254.2166098719865
2196.9099292926057 1219.074589135969
2197.523915724758 1564.1739002476077
2198.137754118825 1597.50198896559
2198.7514445091456 1964.528201584411
2199.3649869300443 1946.769355271521
2199.9783814158327 1929.0507911375303
2200.5916280008096 2159.648249052582
2201.2047267192593 1703.9079890787893
2201.8176776054515 1478.6316994881834
2202.430480693649 1331.946108005087
2203.0431360180955 1635.3592332206154
2203.6556436130195 1334.7238648814941
2204.268003512645 1033.3304497721117
2204.8802157511727 1323.7386684738915
2205.492280362796 1443.0802655924313
2206.1041973816937 1562.805222861158
2206.715966842032 1471.160831011805
2207.3275887779655 1735.812489762417
2207.93906322363 1712.8021356493489
2208.550390213153 1775.3526453229722
2209.1615697806465 1810.9658144932332
2209.7726019602105 1427.5293490190936
2210.3834867859277 1054.5486149627156
2210.9942242918787 1402.4871991685682
2211.6048145121167 1593.840084612853
2212.2152574806914 2381.6731381876216
2212.825553231638 1411.3858135151795
2213.435701798975 2279.191842140181
2214.045703216707 1517.6711917927657
2214.655557518832 1020.2085929240429
2215.2652647393297 1371.2913198542985
2215.874824912169 1513.213889465153
2216.4842380713 1655.6266861108393
2217.09350425067 1216.6761070793768
2217.7026234842033 1646.959308518682
2218.311595805819 1872.9396291152232
2218.9204212494133 1503.9491538572343
2219.52909984888 1990.2704241937276
2220.137631638092 1896.5117575660388
2220.7460166509154 1802.4387494298057
2221.354254921198 1402.6860683879565
2221.9623464827764 1507.3277477210056
2222.5702913694713 1607.8445454226314
2223.178089615096 1901.2248533330935
2223.7857412534486 1492.8258982860527
2224.39324631831 1083.6580943801905
2225.000604843457 1401.837012133687
2225.607816862641 1817.2011513744285
2226.214882409611 1602.025085415162
2226.8218015180973 1694.255090771571
2227.4285742218217 1514.5899674004845
2228.0352005544864 1589.2943469521601
2228.6416805497847 1532.2521024586606
2229.248014241399 1475.1111486141904
2229.8542016629945 1348.3410991422365
2230.460242848223 1560.8077396671556
2231.0661378307304 1368.7199588744975
2231.671886644139 1176.443475008043
2232.277489322065 1055.142234959948
2232.8829458981127 1018.0196243225384
2233.48825640587 1466.7247177581407
2234.0934208789095 1629.987540538908
2234.6984393507955 1793.4936996976871
2235.3033118550793 1765.5898080295606
2235.9080384252975 1440.1303002342097
2236.5126190949723 1385.763816315341
2237.1170538976166 1388.332003888647
2237.721342866729 1420.9029187800393
2238.32548603579 1453.5292993964608
2238.9294834382763 1590.9083182613113
2239.533335107646 1580.4464051328287
2240.1370410773434 1589.0206515103262
2240.740601380803 1512.4572329583762
2241.3440160514474 1472.5180741711315
2241.9472851226783 1754.5546867505968
2242.550408627896 1698.6164703715299
2243.1533866004793 1597.6910955374537
2243.756219073799 1496.6200891624005
2244.3589060812064 1379.9001543699287
2244.961447656049 1326.4957736443357
2245.5638438316564 1437.0923212666075
2246.166094641343 1357.8199053210972
2246.7682001184166 1278.4298073267091
2247.3701602961664 1387.9079158614663
2247.971975207871 1669.7306715479258
2248.5736448867974 1885.2348722189104
2249.175169366197 1579.2468425559064
2249.7765486793123 1611.8746970170992
2250.3777828593684 1660.8285557684362
2250.9788719395783 1708.2566912671023
2251.579815953146 1661.7039234111005
2252.1806149332606 1401.6221181859623
2252.781268913097 1587.6341136904966
2253.381777925817 1681.9712919316469
2253.9821420045737 1776.4275176310246
2254.5823611825035 1741.6356283404134
2255.1824354927303 1608.0416805302655
2255.782364968365 1431.6290405302402
2256.38214964251 1255.0168438399514
2256.9817895482483 1447.9561323329488
2257.5812847186553 1468.596991369431
2258.180635186791 1315.0373247944906
2258.779840985704 1419.9059777755247
2259.37890214843 1503.921488079733
2259.97781870799 1949.6364956386278
2260.5765906973957 1871.478640545924
2261.175218149645 1590.957418068881
2261.773701097718 1799.2791542106656
2262.3720395745895 1335.216176323011
2262.970233613216 1253.0987675735241
2263.568283246548 1287.387041400874
2264.1661885075137 1321.6748675711783
2264.763949429038 1254.3791103323015
2265.3615660440246 1866.7393625838063
2265.959038385374 1298.6405162441768
2266.5563664859637 1829.888512174705
2267.153550378669 1303.6264154077303
2267.7505900963424 1691.2968726697425
2268.3474856718312 1414.0654753712654
2268.9442371379664 1506.9385648822702
2269.5408445275643 1392.485123742874
2270.1373078734377 1405.4243906526399
2270.7336272083758 1418.3948926814164
2271.32980256516 1357.114115177777
2271.925833976562 1547.058671911341
2272.5217214753357 1478.8082381486756
2273.117465094223 1410.3914912033863
2273.7130648659586 1350.2785380419139
2274.308520823257 1579.360850097954
2274.903832998827 1758.051314119092
2275.4990014253563 1291.0054244200574
2276.094026135528 1783.0311012105656
2276.6889071620117 1236.2574935090913
2277.2836445374614 1571.3045573534052
2277.878238294519 1513.7870396891735
2278.472688465812 1418.9414792730092
2279.066995083962 1323.9048982623642
2279.6611581815705 1459.7997909232206
2280.255177791232 1829.5071832772264
2280.8490539455233 1612.7213267227573
2281.442786677013 1851.9544115810852
2282.0363760182554 1953.2510541514798
2282.6298220017943 1520.6227558852809
2283.223124660155 2038.3366149653946
2283.816284025859 1954.7490954664113
2284.4093001314086 1871.0526542532393
2285.002173009292 1410.1296020166121
2285.5949026919952 1657.7219286284912
2286.1874892119777 1408.715524160191
2286.7799326016993 1639.505636906931
2287.3722328936 1292.3213044687423
2287.964390120109 1203.9186761610604
2288.556404313642 1612.846366201823
2289.1482755066027 1923.1052722708541
2289.7400037313873 1539.8075256018317
2290.3315890203703 1326.3435735718572
2290.9230314059205 1374.789376164636
2291.5143309203904 1423.356480196843
2292.1054875961236 1343.897888639688
2292.6965014654506 2181.454725602093
2293.287372560684 1482.8461331120411
2293.878100914131 1413.7758968826615
2294.468686558086 1344.6036787952721
2295.059129524827 1548.095442208522
2295.649429846617 1750.4286429720037
2296.239587555716 1460.584594839768
2296.8296026843636 1406.2200323231614
2297.419475264791 1413.9608612738891
2298.0092053292137 1421.62836310007
2298.598792909839 1864.4163320258917
2299.1882380388597 1462.3462600642124
2299.777540748455 1573.1389669553353
2300.3667010707904 1683.9802131623153
2300.9557190380256 1986.5793526977086
2301.544594682302 1561.4823245615976
2302.1333280357503 1830.5202673276847
2302.721919130485 1549.5075520353028
2303.3103679986198 1944.3881559536858
2303.898674672242 1924.8395056151621
2304.486839183437 1736.4014982337515
2305.0748615642697 1547.8370723208711
2305.6627418468015 1560.7444994009445
2306.2504800630704 1502.7109150660208
2306.8380762451143 1355.6453840385109
2307.425530424949 1562.8256211910457
2308.012842634582 1770.4692146323646
2308.6000129060103 1921.7748621776088
2309.187041271214 1638.8480957534775
2309.773927762164 2008.335171881758
2310.3606724108213 1692.3622265634312
2310.9472752491274 1690.3387266283298
2311.5337363090184 1688.3459388878066
2312.120055622414 1556.4229182309732
2312.706233221221 1451.9946210488956
2313.2922691373424 1697.9308713893083
2313.8781634026564 1239.0293017918982
2314.463916049037 1444.205130547231
2315.049527108342 1852.1254694429856
2315.6349966124235 1879.009542146683
2316.2203245931123 1879.5458341919864
2316.8055110822315 1589.5971340675706
2317.3905561115935 1298.9624230804689
2317.9754597129977 1288.8318344400325
2318.560221918229 1301.0415485826964
2319.1448427590603 1313.3073423791102
2319.729322267256 1276.6934473699635
2320.313660474563 1447.7662328954189
2320.8978574127195 1582.7499477888564
2321.481913113452 1718.169828864665
2322.0658276084705 1248.4025194158355
2322.6496009294806 1372.1356738773607
2323.233233108165 1591.596420087317
2323.8167241762058 1597.186477914798
2324.4000741652617 1614.4700277378406
2324.983283106987 1705.6047210878992
2325.5663510330232 1627.7670719146518
2326.1492779749933 1549.5599892836995
2326.7320639645204 1760.0487886734695
2327.3147090332004 1314.5038803223947
2327.897213212629 1488.4867758090008
2328.4795765343843 1662.5959961415901
2329.0617990300307 1242.7564668634252
2329.643880731124 1455.7926225605504
2330.22582166921 1669.1808815753216
2330.807621875816 1452.7948595142964
2331.3892813824623 1236.1879018108352
2331.9708002206517 1311.9702939843205
2332.5521784218818 1751.4277823253171
2333.133416017634 1743.02926770168
2333.7145130393765 1824.0074610745128
2334.295469518571 1905.196933529424
2334.876285486658 1845.8763079712073
2335.456960975076 1344.2214891223207
2336.037496015242 1873.9336525238891
2336.6178906385667 1422.5778584061104
2337.198144876451 1593.8600957019644
2337.778258760278 1420.7673918547373
2338.3582323214214 957.0285023189683
2338.938065591243 1527.2299818289073
2339.517758601087 2010.893673824166
2340.0973113822965 1866.6012129602907
2340.676723966193 1627.0643741790168
2341.255996384094 1889.4607809565
2341.835128667295 1974.3488771968503
2342.4141208470883 1772.1908654852027
2342.992972954751 1623.3184965546102
2343.5716850215467 1534.807376065351
2344.1502570787306 861.2339558245446
2344.7286891575386 1461.320832087393
2345.3069812892045 2140.6293138737037
2345.885133504944 1879.6013984084857
2346.4631458359618 1510.0852429276388
2347.04101831345 1268.898339631557
2347.6187509685915 1445.7772311497279
2348.196343832553 1392.5721856508187
2348.7737969364935 1540.0449373438212
2349.351110311558 1439.706718764386
2349.9282839888765 1260.6309086820133
2350.5053179995757 1224.7896490043247
2351.0822123747585 1157.4512447936352
2351.658967145526 1175.9074436497087
2352.2355823429643 1194.4634155858416
2352.812057998144 1676.4176921520975
2353.3883941421263 1567.3901769765048
2353.9645908059647 1834.5200500604467
2354.540648020693 1394.6353507019073
2355.116565817336 1091.2900387666211
2355.6923442269126 1306.8419968875976
2356.2679832804224 1522.8603485511248
2356.8434830088518 1740.1912417225226
2357.41884344318 1690.6636374730842
2357.994064614377 1640.959847605592
