#exp_cfg={"servo_angle": 0.0, "laser_lim": 100.0, "servo_angle_to": 18.0, "laser_wup": 0.0, "bt_dev": "EnSpectr-25AE3", "laser_wdn_max": 0.0, "frames": 10.0, "servo_used": 0, "servo_calib_use": 0, "laser_wdn_min": 0.0, "servo_pix_from": 90.0, "cooler_tout": 300.0, "servo_angle_from": 0.0, "servo_calib": "[-1.9174921013161362e-09, 3.9322238269163779e-05, -0.27385609119055809, 653.59552119713567]", "laser_autoctl": 0, "servo_pix_to": 3682.0, "laser_pw": 100.0, "cooler_on": 0, "laser_volt": 4.0, "cooler_autoctl": 0, "cooler_curr": 70.0, "cooler_startup": 10.0, "laser_fixed_pw": 0, "gain": 1.3, "offset": 2.53059635486, "servo_calib_degree": 3.0, "laser_curr": 55.0, "shutter": 8200.0, "servo_calib_step": 1.0, "laser_fixed_curr": 0, "exp": 2000.0, "ccd_volt": 4.7, "bt_addr": "00:06:66:62:5A:E3", "servo_delay": 500.0, "laser_autooff": 1}
#proc_cfg={"flat_auto_wnd": 200.0, "flat_auto_fr": 200.0, "flat_auto_shift": 5.0, "yconv": 1, "flatten": 1, "flatten_strength": 100.0, "xfrom": 300.0, "auto_max_frame": 2000.0, "auto_signal": 48000.0, "flat_auto_tol": 0.1, "autoclip": 1, "xrel_range": 0.0, "flat_auto_to": 4000.0, "intensity_adj": 1.0, "xrel": 7852.0, "rmhot": 1, "flat_auto_slit": 4.999999999999997, "auto_ini_exp": 300.0, "auto_off": 0, "xto": 2860.0, "flat_auto_ref": "", "flat_auto_rank": 1, "autobackg": 0, "xrel_adj": 0.0, "auto_black_lvl": 1, "base_wnd": 100.0, "sub_baseline": 0, "xconv": 2, "auto_max_exp": 1000.0, "auto_total_exp": 10000.0, "auto_exp": 0, "rmripple": 0, "black_lvl": 8284.075, "shutter_clip_adj": 0.0, "auto_bckg": 0, "flat_auto_thr": 0.9, "subbackg": 1}
316.8218498245369 21280.93579899755
317.89969571804795 21143.307387954126
318.977263876126 21137.46615024641
320.05455438786703 21028.616005251584
321.1315673423287 20984.16859394862
322.2083028285215 21029.852575708155
323.2847609354267 20920.83318872548
324.3609417519747 20856.354637273154
325.43684536705587 20847.681159072024
326.5124718695279 20772.7922656437
327.58782134820103 20754.468519682887
328.66289389184385 20906.0462745725
329.7376895891921 20652.114798329705
330.8122085289342 20640.206920558798
331.88645079971866 20774.379072109485
332.9604164901575 20556.63882907221
334.03410568881554 20527.42319491306
335.1075184842266 20773.342872586094
336.18065496487543 20402.903493733516
337.2535152192122 20545.127322127715
338.32609933564163 20539.981626977962
339.39840740253203 20482.013117422153
340.4704395082099 20477.8284977788
341.5421957409617 20319.534490220165
342.6136761890357 20476.286249248213
343.6848809406365 20304.569400976172
344.75581008392874 20232.307965967913
345.82646370703696 20200.719118317436
346.8968418980512 20160.457437113677
347.96694474501055 20293.76987258724
349.0367723359268 20150.477478743614
350.106324758759 20145.685580168356
351.1756021014353 19958.929955202366
352.2446044518383 19954.056926757698
353.31333189781435 20040.0376661879
354.38178452716966 19902.444528066713
355.449962427665 19858.519571072233
356.51786568702846 19821.327852400067
357.58549439294256 19905.234231347786
358.6528486330535 19854.57351205327
359.71992849496564 19658.8172119815
360.7867340662433 19663.701125174142
361.8532654344144 19722.7491013069
362.9195226869597 19779.923428275262
363.9855059113288 19584.329192492
365.05121519492604 19476.85248223387
366.11665062511565 19573.674776245498
367.1818122892273 19508.261958122195
368.2467002745434 19420.381050191343
369.31131466831175 19478.29684606335
370.375655557742 19395.522602105102
371.4397230299983 19456.582435147295
372.5035171722102 19431.895578729796
373.5670380714637 19303.115930915905
374.6302858148101 19407.90248585088
375.6932604892554 19391.583522193614
376.7559621817709 19348.696099294863
377.81839097928605 19193.016318718528
378.8805469686886 19195.10862348464
379.94243023683157 19344.4738635921
381.0040408705263 19197.661830522986
382.0653789565458 19083.058253609048
383.1264445816196 19135.20543724513
384.1872378324406 19086.50413538247
385.2477587956637 19086.89561074647
386.3080075579037 18967.15216054047
387.3679842057336 18856.970061638935
388.4276888256918 18973.224343791466
389.48712150426945 18971.07529944461
390.54628232792857 18874.205482820027
391.6051713830857 18861.450983945193
392.66378875611736 18857.961175858112
393.7221345333637 18852.583036964923
394.7802088011249 18811.40509906751
395.838011645661 18811.40455270862
396.89554315319765 18696.247785795633
397.9528034099112 18669.83509616473
399.00979250194723 18561.472048698233
400.06651051541485 18647.497681663903
401.1229575363741 18686.235053834473
402.17913365085224 18551.29387281811
403.23503894483656 18569.75651877126
404.2906735042761 18550.247673883165
405.3460374150818 18435.819649781715
406.401130763119 18437.19849115653
407.455953634224 18499.612397336306
408.5105061141876 18408.915304469443
409.56478828876243 18258.87808223273
410.6188002436629 18223.975935685754
411.6725420645689 18229.70639571986
412.72601383711117 18342.387415501315
413.77921564689314 18360.91680477073
414.8321475794728 18224.187203718
415.88480972036814 18084.86317054633
416.93720215506437 18117.448846010295
417.9893249690049 17969.406497232892
419.04117824759123 17986.528474401537
420.09276207619223 18015.935338513857
421.144076540133 17981.581200112843
422.1951217247042 17929.463580898468
423.24589771515275 17944.586534758942
424.2964045966928 17919.958088491847
425.34664245449494 17857.982561145778
426.3966113736933 17813.456912459722
427.4463114393875 17799.252676493626
428.49574273662984 17837.440187568514
429.5449053504417 17650.077884854712
430.5937993658026 17861.171146047993
431.6424248676558 17725.691317609726
432.6907819409007 17656.88548278198
433.73887067040596 17716.919958799204
434.7866911409965 17669.15744042011
435.8342434374608 17725.811663942743
436.88152764455117 17556.75782060879
437.9285438469724 17535.103109485215
438.9752921294057 17432.990339539672
440.02177257648145 17501.90809922215
441.06798527279716 17400.649079131348
442.1139303029122 17655.454782323515
443.1596077513459 17515.664160850276
444.2050177025794 17525.815159376754
445.25016024105753 17546.677264503574
446.2950354511886 17477.00549464144
447.33964341733736 17498.804337447782
448.383984223834 17394.8960180145
449.4280579549686 17353.16273794516
450.471864694995 17399.475916685853
451.5154045281306 17370.727259097395
452.5586775385509 17339.89737121406
453.60168381039693 17301.159889342474
454.64442342776783 17488.37449459629
455.6868964747264 17312.650392252337
456.7291030353008 17248.19156331575
457.77104319347563 17341.165018875563
458.8127170332027 17307.504179723364
459.854124638392 17408.730924161468
460.895266092919 17467.61073584394
461.93614148061897 17557.163954839576
462.97675088529104 17567.803064044463
464.01709439069236 17512.894214083255
465.0571720805492 17440.237377609967
466.0969840385442 17473.991161721126
467.1365303483253 17656.756769795073
468.17581109350067 17577.823497706984
469.2148263576437 17505.013344124753
470.2535762242878 17488.263151336185
471.29206077693016 17631.369219042637
472.33028009902773 17695.856957115215
473.3682342740012 17528.052788491637
474.40592338523857 17549.74594073307
475.4433475160804 17536.16255010327
476.4805067498364 17409.189497446212
477.51740116978 17377.8542925779
478.5540308591426 17419.18266251372
479.59039590112116 17430.065883030078
480.6264963788726 17258.75675212409
481.6623323755193 17349.527646674534
482.6979039741436 17294.17582762216
483.7332112577915 17398.756343914978
484.76825430947247 17321.323961976712
485.80303321215797 17189.609593276775
486.837548048783 17126.327106538145
487.8717989022425 17327.69110211418
488.90578585539697 17172.25594586814
489.9395089910686 17266.80183205911
490.97296839203955 17024.328530371287
492.00616414106116 16999.092629600378
493.0390963208429 16993.284953252944
494.0717650140559 16985.419995513108
495.10417030333883 16917.282818362877
496.1363122712901 16983.192828280604
497.16819100046814 16904.890198304463
498.1998065734024 16862.51704790081
499.2311590725767 16904.46155630119
500.26224858044407 16789.86713811021
501.2930751794156 16785.131854775093
502.3236389518679 16850.977807927044
503.35393998014115 16637.417307326254
504.38397834653733 16847.534625774006
505.4137541333221 16792.7606238532
506.4432674227228 16703.862894075188
507.4725182969323 16581.92609670393
508.5015068381035 16680.49890217094
509.53023312835467 16649.696108534015
510.55869724976765 16612.736563801685
511.58689928438434 16426.79988182967
512.6148393142121 16449.943585684574
513.6425174212218 16559.867266721467
514.6699336873462 16528.76020602768
515.6970881944835 16453.995835956168
516.7239810244901 16351.352257102402
517.7506122591931 16435.734123487062
518.7769819803761 16355.291065562958
519.8030902697901 16339.49985248674
520.8289372091476 16418.364531991545
521.8545228801249 16472.213214571824
522.8798473643619 16318.706521913697
523.9049107434621 16316.12996447567
524.9297130989908 16399.681902594457
525.9542545124805 16377.238453853115
526.9785350654201 16221.733113932616
528.0025548392696 16269.801907445979
529.0263139154504 16185.182220206247
530.0498123753423 16310.942323204019
531.073050300296 16249.324890951297
532.0960277716204 16117.851345715424
533.1187448705896 16158.544470899904
534.1412016784416 16112.88439772704
535.1633982763833 16066.776836396548
536.1853347455726 16097.283704217285
537.2070111671401 16055.406218030479
538.2284276221817 16058.342876353034
539.2495841917516 15983.572611727108
540.2704809568677 15951.493177069304
541.2911179985167 15973.022612745617
542.3114953976419 15826.06668940985
543.3316132351592 15707.530493738184
544.3514715919409 15646.033536486098
545.3710705488247 15640.220242659128
546.3904101866156 15709.294432231007
547.4094905860784 15752.965634357792
548.4283118279418 15623.978870523697
549.4468739929034 15596.415756054153
550.4651771616191 15624.49543969247
551.4832214147063 15503.292755653394
552.501006832761 15569.2480536455
553.5185334963226 15452.935942254437
554.5358014859103 15536.201502772605
555.5528108820035 15543.288868463875
556.5695617650363 15429.7546471994
557.5860542154242 15506.274668417853
558.6022883135283 15510.448130879731
559.6182641396881 15424.647692747254
560.6339817741991 15411.701758135696
561.6494412973225 15560.509472883099
562.6646427892883 15566.69734242427
563.6795863302796 15371.042206150893
564.694272000459 15432.466684518095
565.7086998799423 15478.843943334392
566.7228700488104 15391.563554016835
567.7367825871115 15396.823226639044
568.7504375748576 15412.108209721813
569.7638350920224 15384.921064520382
570.7769752185486 15283.774065768439
571.7898580343353 15380.138524185186
572.802483619258 15136.467622361257
573.8148520531431 15400.62354426618
574.8269634157932 15377.54166155158
575.8388177869692 15139.690047854314
576.8504152463938 15104.443741011357
577.8617558737587 15244.277361422432
578.8728397487175 15110.267081518128
579.883666950891 15071.67419732948
580.8942375598654 15119.630470795328
581.9045516551851 15127.328081913147
582.9146093163617 15269.651464535456
583.924410622878 15102.843713088088
584.9339556541727 15004.0885886422
585.9432444896538 15280.459512048395
586.9522772086875 15104.079927384935
587.9610538906127 15088.380838061941
588.9695746147318 15040.774860039746
589.9778394603054 15212.639798308111
590.985848506567 15119.79224818748
591.9936018327098 15120.871376077834
593.0010995178891 14871.674912308164
594.0083416412344 15134.44630253851
595.0153282818283 14919.828955375026
596.0220595187293 14944.987274482864
597.0285354309508 14857.595440577075
598.0347560974806 14900.311428105768
599.0407215972609 14904.369578082482
600.0464320092051 14844.755076020278
601.0518874121954 14753.800974730882
602.0570878850685 14811.037731091306
603.062033506636 14786.93426210913
604.0667243556636 14787.589326974663
605.0711605108936 14659.170276958812
606.0753420510264 14958.667950758074
607.0792690547278 14743.271564808261
608.082941600629 14734.702936758162
609.0863597673306 14717.26910790508
610.0895236333909 14777.776773062884
611.0924332773357 14939.354732557305
612.0950887776617 14808.951221279412
613.0974902128219 14814.911545670524
614.0996376612384 15056.042723890781
615.1015312013005 14957.131965640514
616.1031709113595 14964.993988582259
617.1045568697336 14832.31077743425
618.1056891547069 14898.528425150207
619.1065678445229 14935.234534150139
620.1071930173985 15207.799949903314
621.1075647515099 15055.18956565077
622.1076831250048 15022.884408463473
623.1075482159849 15027.620479636398
624.1071601025305 14958.921691163003
625.1065188626781 14912.15875448756
626.105624574433 15131.411565276541
627.1044773157682 15027.285347249048
628.1030771646128 14868.61287547019
629.1014241988742 15039.077111029419
630.0995184964158 14984.949994407745
631.0973601350688 14869.932873207168
632.0949491926294 15076.554557053543
633.0922857468631 14820.603379328173
634.089369875499 14905.201044185855
635.0862016562278 14906.002458268864
636.0827811667077 14740.860614322108
637.0791084845641 14858.57763073492
638.0751836873878 14644.028826411266
639.0710068527369 14837.530540052652
640.0665780581294 14699.004305331362
641.0618973810506 14576.033595534265
642.0569648989604 14722.738158704069
643.0517806892676 14497.506350224197
644.0463448293649 14628.590513076624
645.040657396592 14536.202454974444
646.0347184682723 14435.251711189372
647.0285281216875 14305.980875288986
648.0220864340772 14297.810590374656
649.0153934826558 14245.296108714054
650.0084493446047 14272.775305489815
651.0012540970674 14212.400942186005
651.9938078171526 14245.958293227526
652.9861105819346 14151.73490680028
653.9781624684565 14219.725000042143
654.9699635537254 14037.337319659264
655.9615139147136 14114.99693034132
656.9528136283589 13964.620362008689
657.9438627715699 14152.662958199706
658.9346614212154 14039.786169800169
659.925209654135 13817.57706042841
660.9155075471263 13903.151785908098
661.9055551769616 14003.4226510432
662.895352620375 14106.93291033035
663.8848999540678 13899.471073131343
664.8741972547068 13737.118405155556
665.863244598926 13799.859626836356
666.8520420633213 13850.6640023244
667.8405897244611 13718.297736884928
668.8288876588758 13614.420709842398
669.8169359430613 13761.171243163422
670.8047346534822 13734.710677118788
671.7922838665672 13582.972990590464
672.7795836587156 13744.670036437154
673.766634106285 13837.069234267605
674.7534352856092 13631.856395262284
675.7399872729766 13504.50255554608
676.7262901446538 13669.675468149198
677.712343976862 13615.279069381515
678.6981488457986 13598.730387099262
679.6837048276229 13495.548412089518
680.6690119984596 13518.60095760726
681.6540704344043 13535.235333236915
682.6388802115107 13512.725688673027
683.6234414058108 13416.048855448893
684.6077540932874 13397.524981271272
685.591818349907 13456.367466307434
686.575634251587 13405.74076479671
687.5592018742263 13300.805355224438
688.5425212936734 13173.125892759059
689.5255925857564 13518.83580117519
690.5084158262707 13295.157388217185
691.4909910909646 13222.482594797251
692.4733184555644 13219.660949300189
693.4553979957618 13346.671614991637
694.4372297872123 13322.129720957973
695.4188139055404 13270.726277317584
696.4001504263324 13124.34728718272
697.3812394251509 13338.444800141504
698.3620809775111 13139.434365137655
699.3426751589104 13136.593461922104
700.3230220448004 13137.807499454444
701.3031217106054 13192.012407025924
702.2829742317172 13474.240620900982
703.2625796834873 13167.374558958352
704.2419381412474 13128.533330506942
705.22104968028 13304.230181157869
706.1999143758458 13226.399471823572
707.178532303169 13224.904559187013
708.1569035374378 13267.205603166789
709.1350281538107 13375.893841697809
710.1129062274158 13424.421675164389
711.0905378333373 13635.044257650443
712.0679230466376 13599.88088831957
713.0450619423427 13905.176428915907
714.0219545954424 14107.46819994927
714.9986010808989 14012.584554712663
715.9750014736292 14385.453180575054
716.9511558485392 14527.251142704607
717.9270642804786 14730.645858197764
718.9027268442787 14891.475074867678
719.8781436147328 14862.290009982255
720.8533146666014 14804.323078075458
721.828240074612 14755.664202025879
722.8029199134635 14675.97741321762
723.7773542578125 14483.505643200255
724.751543182294 14342.492929826063
725.7254867615029 14154.89547963876
726.6991850700015 13816.027736209853
727.6726381823228 13732.83607373114
728.6458461729599 13674.304858702715
729.6188091163858 13540.167971223293
730.5915270870246 13490.006435815234
731.5640001592856 13315.37236941668
732.536228407529 13406.190646698717
733.5082119060917 13361.667779839332
734.4799507292755 13318.767417881749
735.4514449513481 13229.53267118406
736.4226946465496 13395.803859770656
737.3936998890786 13388.043772787956
738.3644607531078 13242.771017155063
739.3349773127793 13153.79185962658
740.3052496421951 13220.615916749617
741.27527781543 13012.505940609937
742.2450619065221 12907.880178680492
743.2146019894826 12836.532532918467
744.183898138288 12851.557870318842
745.1529504268801 12740.056042313463
746.1217589291682 12589.95353241919
747.0903237190341 12516.566973562321
748.058644870318 12521.099725336737
749.0267224568397 12477.043422084524
749.994556552374 12281.078103359567
750.9621472306771 12345.993915945492
751.9294945654583 12274.14459318189
752.8965986304011 12280.02422206215
753.8634594991636 12111.686002057413
754.8300772453586 12256.944378127071
755.7964519425768 12209.676811146997
756.762583664371 12196.945926604434
757.7284724842611 12279.01730473666
758.6941184757416 12045.4560947674
759.6595217122667 12059.64001478275
760.6246822672638 12095.013614582711
761.5896002141235 11954.26611005118
762.5542756262093 12017.845076966536
763.5187085768503 12117.478175000182
764.4828991393406 11997.856061414848
765.4468473869474 11988.27411755549
766.4105533929032 12007.527815188942
767.3740172304078 11962.788898643763
768.3372389726283 12008.780352361457
769.3002186926988 11830.943836464434
770.2629564637282 11838.354390627357
771.2254523587872 11901.95601715211
772.1877064509154 11821.169876514698
773.1497188131179 11684.589569723164
774.1114895183728 11667.536324976161
775.0730186396268 11749.93022758627
776.0343062497905 11703.083872962501
776.9953524217381 11672.682103651565
777.9561572283274 11709.399386097044
778.9167207423689 11723.965949047884
779.8770430366476 11605.54426376475
780.8371241839159 11638.707177899665
781.7969642568951 11586.123669137653
782.7565633282757 11826.310286840995
783.7159214707099 11559.152343534744
784.6750387568281 11561.167253072552
785.6339152592227 11593.35119067428
786.5925510504512 11478.964417215928
787.5509462030477 11496.179670848744
788.5091007895098 11428.095079958486
789.4670148823006 11495.192435752024
790.4246885538596 11556.03047926119
791.3821218765861 11579.847158871027
792.3393149228505 11396.583033303577
793.2962677649975 11560.54512833947
794.2529804753303 11488.969534041737
795.20945312613 11504.144271947935
796.1656857896378 11296.480691691519
797.1216785380675 11408.645455632328
798.0774314435985 11413.386516993463
799.0329445783846 11489.381247965293
799.9882180145414 11395.243234305726
800.9432518241574 11327.991357471208
801.89804607929 11400.305774533426
802.852600851962 11401.118824991649
803.8069162141637 11395.755667420164
804.760992237856 11350.594774618105
805.714828994971 11391.162102306333
806.6684265574077 11392.258174583538
807.6217849970271 11311.032285887362
808.574904385674 11236.937434827143
809.527784795142 11453.160468455326
810.4804262972102 11465.283058931895
811.4328289636178 11277.389993269224
812.3849928660748 11224.392478987807
813.3369180762638 11157.585855409026
814.2886046658241 11303.728028299387
815.2400527063783 11192.98454613718
816.1912622695108 11095.881264617068
817.1422334267718 11242.866327152924
818.0929662496856 11071.351012205721
819.0434608097457 11096.690119918097
819.9937171784059 11062.172643209531
820.9437354271013 11053.888257069962
821.8935156272255 11160.004644873243
822.8430578501484 10982.920880994736
823.7923621672016 10905.969924030707
824.7414286496896 11025.283456986524
825.6902573688876 11075.667535161228
826.6388483960363 10980.297265489738
827.5872018023492 10950.0337624118
828.5353176590033 11012.625556383082
829.4831960371503 10855.803733358862
830.4308370079016 10916.359975737152
831.3782406423525 10869.393899570437
832.3254070115545 11013.074843783039
833.2723361865319 10785.480004027091
834.2190282382799 10773.998235911316
835.1654832377644 10830.086970559934
836.1117012559116 10796.460865060388
837.0576823636256 10951.305783691847
838.003426631778 10694.829580014495
838.9489341312074 10681.19444308714
839.8942049327197 10856.342800716713
840.8392391070975 10820.866232732567
841.7840367250865 10766.42999078438
842.7285978573982 10704.326549016749
843.672922574724 10845.327749858852
844.6170109477152 10682.332806709328
845.560863046996 10711.035497392253
846.5044789431595 10665.918165152136
847.4478587067697 10659.545208780324
848.3910024083561 10824.435671073974
849.333910118421 10650.94689065453
850.2765819074339 10584.885913039096
851.2190178458332 10649.246231367522
852.161218004032 10761.611425960586
853.1031824524016 10742.539852778724
854.0449112612987 10608.549822200841
854.9864045010327 10807.420317441636
855.9276622418947 10584.282360802048
856.8686845541379 10639.227616109472
857.8094715079915 10466.66213208903
858.7500231736467 10665.869314617212
859.690339621271 10598.737574114894
860.6304209209939 10574.74742823202
861.5702671429244 10387.34875205263
862.5098783571284 10557.661873448771
863.4492546336569 10517.070964867387
864.3883960425155 10437.331570038697
865.3273026536863 10379.02443988285
866.2659745371238 10377.463406043094
867.2044117627465 10569.89117984509
868.1426144004472 10382.114458562024
869.0805825200823 10398.317897461244
870.0183161914847 10458.499620273991
870.9558154844526 10557.007050370778
871.8930804687552 10507.248679423104
872.8301112141307 10252.09457257718
873.7669077902865 10430.592384250975
874.7034702669062 10499.222258828904
875.6397987136315 10359.687960142335
876.5758932000863 10472.663236545977
877.5117537958522 10532.565297396828
878.4473805704911 10354.064420291304
879.3827735935283 10364.96504542976
880.3179329344603 10431.975162420218
881.2528586627541 10461.591807292385
882.1875508478479 10548.36823171938
883.1220095591489 10405.524019947141
884.0562348660296 10243.77423872584
884.9902268378391 10472.10300717752
885.9239855438955 10310.471823799166
886.8575110534839 10255.871722321604
887.7908034358588 10419.090659619866
888.7238627602474 10339.961269444368
889.6566890958475 10377.491118823255
890.5892825118208 10236.151634213053
891.5216430773125 10257.01751818558
892.4537708614189 10296.147653518088
893.3856659332196 10281.691727315621
894.3173283617652 10214.053890925285
895.2487582160684 10281.54142270811
896.179955565116 10283.76461982365
897.110920477864 10186.319772615627
898.0416530232451 10189.635642355552
898.9721532701478 10163.462574128916
899.9024212874428 10239.15523426759
900.8324571439662 10141.34649160405
901.7622609085302 10092.422113118926
902.6918326499072 10039.186339255906
903.6211724368477 10178.8549880315
904.5502803380696 10219.542002902057
905.4791564222614 10358.274610989854
906.4078007580792 10087.71120241303
907.3362134141571 10158.549982539287
908.2643944590909 10212.519262147098
909.1923439614493 10127.58875417279
910.1200619897754 10084.322054370761
911.0475486125779 10283.393394482946
911.9748038983344 10211.71624105377
912.9018279155007 10061.530001820294
913.8286207324982 9933.588284773738
914.7551824177117 10179.89682842971
915.6815130395116 10005.498416050501
916.6076126662283 9956.782499908662
917.533481366163 10010.267807931818
918.4591192075914 10102.876012218514
919.3845262587565 10107.035737449718
920.3097025878706 9974.514478137244
921.2346482631237 9840.481668124117
922.1593633526682 9988.987526560233
923.0838479246304 10049.77488525175
924.0081020471061 10074.992226376477
924.9321257881656 9838.044194374472
925.8559192158464 9966.922756398602
926.7794823981512 9872.681010135737
927.7028154030686 9879.246820110715
928.6259182985414 9699.946313354852
929.5487911524906 9997.936279529844
930.4714340328119 9839.591022485107
931.3938470073608 9636.74103385173
932.3160301439748 9756.633060181475
933.2379835104548 9869.965388000866
934.1597071745709 9913.435685453998
935.0812012040769 9756.75670334369
936.002465666681 9860.583528037336
936.9235006300696 9888.493600401383
937.8443061619055 9872.053557892305
938.7648823298077 9791.855402761852
939.6852292013809 9709.980525890142
940.6053468441951 9857.416816838395
941.5252353257874 9705.215094118343
942.4448947136698 9734.018998999529
943.364325075323 9751.70250491363
944.2835264782043 9784.050039015248
945.2024989897309 9790.735702754118
946.1212426773054 9716.173330033082
947.0397576082851 9777.972551421737
947.9580438500125 9877.722171203486
948.8761014697939 9864.971782721845
949.7939305349064 9867.120018291618
950.7115311125999 9691.58184893856
951.6289032700952 9768.99781041443
952.5460470745875 9854.336210475947
953.4629625932339 9816.425581376312
954.3796498931715 9779.141392571742
955.2961090415029 9812.879420262274
956.2123401053068 9797.161039043687
957.1283431516276 9718.655725433722
958.0441182474842 9624.789649688322
958.9596654598663 9869.568814680466
959.8749848557309 9744.826915180265
960.7900765020167 9687.39788855275
961.7049404656209 9592.051041437106
962.6195768134185 9664.20507137137
963.5339856122537 9740.668579465357
964.4481669289453 9755.571819792194
965.3621208302793 9576.470786016736
966.2758473830145 9590.419960221046
967.1893466538822 9786.618987359861
968.1026187095813 9533.922650146533
969.0156636167867 9550.299798623306
969.9284814421426 9638.87417008565
970.8410722522622 9574.097714216901
971.753436113735 9505.254187719718
972.6655730931161 9418.560088284928
973.5774832569368 9582.377799430806
974.4891666716958 9357.407225962877
975.4006234038698 9385.285622135772
976.3118535198955 9427.987019616263
977.2228570861935 9599.648295222618
978.1336341691494 9537.966366509068
979.0441848351202 9300.279402025077
979.9545091504333 9488.128026522969
980.864607181391 9430.23597669689
981.7744789942699 9408.127992025878
982.6841246553086 9347.377178316932
983.5935442307236 9409.722711297163
984.5027377867027 9427.481113924816
985.4117053894024 9351.91877897421
986.3204471049557 9330.251962467202
987.2289629994648 9456.15874457084
988.1372531390007 9548.514716539396
989.0453175896091 9315.619756803297
989.9531564173067 9400.669490766926
990.860769688079 9257.723600694571
991.7681574678918 9326.403398907947
992.6753198226706 9363.152478386453
993.582256818323 9184.225446177214
994.4889685207218 9093.215027856084
995.3954549957143 9461.786646717032
996.301716309119 9410.399459522285
997.2077525267232 9281.846496104326
998.1135637142943 9160.092122126825
999.0191499375615 9346.99592664933
999.924511262232 9296.138694016672
1000.8296477539861 9268.14991854145
1001.7345594784656 9181.867672361706
1002.6392465012996 9179.899737650549
1003.5437088880753 9295.558144822613
1004.4479467043584 9233.559876088904
1005.3519600156869 9004.810046871737
1006.2557488875718 9186.043949864663
1007.1593133854858 9150.97381090295
1008.0626535748888 8973.55985042372
1008.9657695212009 8883.850613645543
1009.8686612898182 9165.820707651164
1010.7713289461135 9071.21302665509
1011.6737725554212 9033.89886508332
1012.5759921830577 8987.544188118318
1013.4779878943027 9071.062631659577
1014.379759754418 9127.56253775228
1015.2813078286254 8982.914428403317
1016.18263218213 8889.411653305473
1017.0837328801026 8831.211370234389
1017.9846099876886 9049.863194245276
1018.8852635700023 8874.116350229826
1019.7856936921362 8700.106792115535
1020.6859004191447 8883.954128866659
1021.5858838160675 8821.073171554379
1022.4856439479063 8798.113483273191
1023.3851808796389 8759.390252926758
1024.2844946762143 8918.641906988025
1025.183585402554 8873.572170036034
1026.082453123554 8656.00442480498
1026.9810979040776 8755.23326227986
1027.8795198089647 8635.144038803397
1028.777718903024 8733.594125904205
1029.6756952510368 8600.326925290665
1030.5734489177648 8639.86249096897
1031.4709799679313 8659.61401141463
1032.3682884662358 8863.849334271383
1033.2653744773506 8539.108120825733
1034.1622380659192 8540.761930667442
1035.058879296559 8639.089982156274
1035.9552982338591 8713.06502039844
1036.8514949423825 8547.580574765332
1037.7474694866614 8551.538445308755
1038.6432219312028 8415.063698377526
1039.5387523404825 8664.885464854064
1040.4340607789582 8479.508746469775
1041.3291473110476 8479.92210955107
1042.2240120011465 8649.267998824162
1043.1186549136273 8626.374618600232
1044.0130761128294 8506.246717523823
1044.9072756630649 8474.516238453723
1045.8012536286205 8609.385981563611
1046.6950100737577 8592.677629171394
1047.588545062701 8621.409701050548
1048.481858659663 8499.748436945705
1049.3749509288118 8599.688816025699
1050.2678219343034 8526.030628208744
1051.1604717402515 8558.23815775354
1052.0529004107575 8455.017257814196
1052.9451080098825 8518.364320815057
1053.8370946016694 8540.167132939248
1054.7288602501267 8576.054837428195
1055.6204050192446 8504.052407756151
1056.511728972977 8587.179564922586
1057.402832175254 8445.829614659797
1058.2937146899785 8367.476497486616
1059.1843765810263 8363.040769908952
1060.0748179122456 8486.769692593758
1060.9650387474576 8371.705819664941
1061.855039150456 8389.6753917991
1062.7448191850071 8356.516525586198
1063.6343789148505 8397.864639640211
1064.5237184037014 8549.331790498549
1065.412837715241 8362.245861618243
1066.3017369131267 8374.354911890541
1067.190416060992 8262.364656438163
1068.0788752224398 8175.777333572778
1068.9671144610438 8238.400474247119
1069.8551338403558 8395.118958305244
1070.7429334239023 8382.931278156859
1071.6305132751695 8210.066428848015
1072.517873457633 8310.672605906835
1073.4050140347335 8169.619515469807
1074.2919350698776 8237.784532956026
1075.1786366264623 8319.569539481354
1076.0651187678395 8254.813847744303
1076.95138155735 8127.217007245027
1077.8374250582929 8135.44926507561
1078.7232493339507 8233.809434094903
1079.608854447577 8176.751066526636
1080.4942404623907 8123.4137039098405
1081.3794074415982 8243.112715925927
1082.2643554483657 8221.215305847943
1083.149084545841 8280.001553683545
1084.033594797138 8159.652596399663
1084.9178862653516 8208.567551905075
1085.8019590135427 8408.62729462304
1086.6858131047484 8181.922872484434
1087.5694486019802 8271.124421534061
1088.4528655682225 8301.845635107566
1089.3360640664287 8508.707606363892
1090.2190441595321 8329.136581443894
1091.1018059104317 8298.967368463354
1091.98434938201 8455.153446411565
1092.866674637111 8438.751150614571
1093.748781738559 8364.116202670888
1094.6306707491512 8137.86650338553
1095.5123417316554 8345.96529236291
1096.3937947488157 8162.4239689434935
1097.2750298633455 8193.322860058091
1098.156047137938 8153.292734938104
1099.0368466352556 8295.105771065904
1099.9174284179317 8250.629699379173
1100.7977925485757 7928.641017479051
1101.6779390897755 8018.066863534223
1102.5578681040806 7972.5083304054515
1103.4375796540226 8031.89769590591
1104.3170738021054 7865.657383261203
1105.1963506108077 7792.307068959673
1106.0754101425773 7849.742466938321
1106.9542524598382 7860.029087564314
1107.8328776249855 7829.035170004283
1108.7112857003904 7663.655160207165
1109.5894767483987 7747.948181829544
1110.4674508313292 7916.842690455322
1111.3452080114657 7692.463472291822
1112.2227483510815 7749.6380451045625
1113.1000719124077 7751.147728745791
1113.9771787576592 7827.569494997893
1114.854068949022 7627.164606815837
1115.7307425486542 7655.043521817832
1116.6071996186893 7800.19363817592
1117.483440221229 7940.478054202504
1118.3594644183577 7659.873131961451
1119.235272272128 7588.8334483521485
1120.1108638445658 7735.923397872879
1120.9862391976712 7858.961136609471
1121.8613983934229 7776.929144029101
1122.7363414937627 7651.300193503167
1123.6110685606182 7625.533207874249
1124.485579655884 7799.917411768385
1125.359874841426 7671.13186587889
1126.2339541790916 7654.232971938218
1127.1078177306936 7893.994821352957
1127.9814655580267 7692.394596008909
1128.854897722851 7693.194591211935
1129.7281142869106 7640.018764560208
1130.6011153119125 7696.294362504001
1131.473900859548 7748.268235134691
1132.3464709914697 7588.290655584044
1133.2188257693178 7574.062025300991
1134.0909652546961 7504.252853249165
1134.96288950919 7456.827458769309
1135.8345985943506 7578.160442884291
1136.7060925717087 7375.583018693952
1137.57737150277 7490.963281667066
1138.4484354490069 7570.066791319172
1139.3192844718778 7425.138833897168
1140.1899186327992 7238.916436295151
1141.060337993178 7490.94679837486
1141.930542614382 7347.765688247893
1142.8005325577597 7318.564408376771
1143.670307884635 7131.765207478956
1144.5398686563003 7428.203500828216
1145.409214934025 7269.543996589603
1146.2783467790541 7185.568063755634
1147.1472642526023 7215.290009161734
1148.0159674158622 7371.302484137239
1148.8844563300026 7155.543761808118
1149.7527310561618 7167.234381381997
1150.6207916554504 7130.669426128389
1151.4886381889592 7006.75454330795
1152.3562707177498 7222.469842973415
1153.2236893028585 7106.002564605648
1154.090894005296 7086.59274104565
1154.9578848860474 7143.726847300801
1155.8246620060709 7154.425921065975
1156.6912254262988 6973.798532970977
1157.5575752076438 7025.1607563150665
1158.42371141098 7163.921186784713
1159.2896340971656 7137.851004635138
1160.1553433270346 7011.961294983931
1161.0208391613887 7167.601933811381
1161.8861216610057 7160.523655262987
1162.75119088664 7181.6356397192485
1163.6160468990201 7054.099166838163
1164.4806897588442 7018.236882592852
1165.3451195267917 7133.280190339805
1166.2093362635114 7127.437622137263
1167.0733400296285 7070.556042419451
1167.9371308857444 6967.062981034139
1168.8007088924278 6986.039266782577
1169.6640741102328 6948.35651383948
1170.5272265996773 6917.999698411026
1171.390166421259 6940.290980740763
1172.252893635452 6997.8229305556615
1173.1154083026995 7154.76438688052
1173.977710483421 7085.480813294336
1174.8398002380145 6799.5069531090485
1175.7016776268483 7081.976552178469
1176.563342710264 7050.969859500758
1177.4247955485826 6859.721117818811
1178.2860362020947 6985.787792180681
1179.147064731069 6893.425334669686
1180.0078811957483 6978.87570544616
1180.8684856563486 6835.642569475754
1181.7288781730604 7008.168747325745
1182.589058806052 7001.181534248733
1183.4490276154593 7084.912799449938
1184.3087846614017 6957.868608969996
1185.1683300039676 6974.492493132837
1186.027663703222 7153.506740937558
1186.8867858192025 6924.5650108054515
1187.7456964119228 6991.758624276129
1188.6043955413716 6984.13864840718
1189.4628832675116 7079.639492960769
1190.3211596502842 7157.242496119185
1191.179224749596 7080.250941825408
1192.0370786253388 6811.139378967435
1192.8947213373758 7062.640280168726
1193.7521529455407 7194.31858837046
1194.6093735096438 6870.438803283918
1195.466383089477 6948.933815290919
1196.3231817447977 7008.885584694437
1197.1797695353398 7097.88037155385
1198.0361465208189 6846.086354555426
1198.8923127609214 6896.761368313499
1199.7482683153048 7034.981754045444
1200.6040132436028 7101.864954046703
1201.459547605431 6922.613259582866
1202.3148714603722 7012.748646759394
1203.1699848679855 7008.18725204831
1204.0248878878065 7091.234423105435
1204.8795805793507 6823.058339352368
1205.7340630020935 7073.568082423492
1206.5883352155033 7034.814967757181
1207.4423972790064 7137.460069639858
1208.2962492520237 6846.931681039328
1209.1498911939307 7001.499503694466
1210.0033231640937 7009.738005445268
1210.8565452218427 6991.600322844306
1211.7095574264913 6767.316555434942
1212.5623598373222 6831.918097740566
1213.4149525135963 6848.676457691368
1214.2673355145507 6947.2918996706085
1215.1195088993936 6788.58159035941
1215.9714727273113 6925.099506069628
1216.8232270574663 7027.128308216852
1217.6747719489904 6672.554751500085
1218.5261074609934 6681.184897921594
1219.3772336525653 6810.356757141116
1220.2281505827668 6904.480482959737
1221.0788583106296 6978.761785364174
1221.9293568951707 6705.109294774668
1222.7796463953746 6615.988234973529
1223.629726870202 6791.769624245759
1224.4795983785934 6892.5109168220315
1225.3292609794553 6711.321404312184
1226.1787147316809 6627.976639329859
1227.0279596941327 6801.289882423963
1227.8769959256424 6632.666669962457
1228.7258234850306 6680.844298611313
1229.5744424310833 6463.19446166044
1230.422852822563 6757.381019496408
1231.2710547182105 6809.034428980682
1232.119048176739 6587.709615847423
1232.9668332568417 6426.150455456625
1233.8144100171812 6704.45850315688
1234.6617785163999 6597.319601307072
1235.508938813111 6412.939029901367
1236.3558909659114 6453.891664962073
1237.2026350333617 6578.211805949124
1238.049171074008 6739.117857596805
1238.8954991463652 6366.300023524887
1239.741619308932 6419.555505429629
1240.587531620169 5395.4784092186665
1241.4332361385277 6632.931916009348
1242.2787329224248 6431.083503155028
1243.1240220302534 6332.584597943996
1243.9691035203869 6337.125481048456
1244.813977451171 6622.754464767359
1245.6586438809263 6438.051156824264
1246.5031028679496 6285.535170471494
1247.3473544705157 6521.473952452973
1248.1913987468706 6356.160185496428
1249.0352357552383 6276.2793317877495
1249.8788655538228 6256.466952665669
1250.7222882007918 6456.095605083453
1251.565503754302 6444.1551435046
1252.4085122724755 6127.658158962458
1253.2513138134182 6417.1483077751645
1254.0939084352049 6325.9926330225735
1254.9362961958905 6249.028152226105
1255.7784771535007 6264.774761055305
1256.6204513660432 6360.629024475649
1257.4622188915 6531.474530587324
1258.3037797878242 6336.840058269367
1259.1451341129468 6174.624665614288
1259.9862819247755 6418.248147366004
1260.8272232811978 6366.146565761199
1261.6679582400666 6547.420173405636
1262.5084868592203 6183.543939996512
1263.34880919647 6328.979627972046
1264.1889253095997 6331.260521192393
1265.0288352563712 6473.620504401184
1265.8685390945266 6239.7833097197545
1266.7080368817751 6393.535823486107
1267.5473286758115 6604.1716252098995
1268.386414534294 6459.288893886979
1269.2252945148703 6212.301579504658
1270.0639686751547 6251.25860000305
1270.9024370727402 6366.620488272037
1271.7406997651997 6281.1639582317675
1272.5787568100714 6170.701357081461
1273.4166082648808 6179.185060033607
1274.2542541871244 6350.724769381079
1275.091694634275 6490.161116541303
1275.9289296637817 6133.661855819499
1276.7659593330663 6414.340813363609
1277.6027836995308 6305.083349547844
1278.4394028205552 6422.22128599705
1279.2758167534867 6226.907722510945
1280.112025555658 6216.764822897697
1280.9480292843746 6350.159097834509
1281.7838279969128 6154.894329499708
1282.6194217505326 6182.418250665409
1283.4548106024686 6105.85362208872
1284.289994609926 6190.892918514028
1285.1249738300921 6222.045885537521
1285.959748320127 6160.1461369420085
1286.7943181371702 6202.278949097344
1287.6286833383328 6179.551390084003
1288.4628439807038 6285.541977221286
1289.2968001213521 6090.426959157617
1290.1305518173194 6214.124041735052
1290.9640991256183 6205.920150030031
1291.7974421032523 6119.478021307231
1292.630580807183 6102.125800937109
1293.463515294361 6190.0127649145525
1294.29624562171 6414.995012943386
1295.12877184613 6251.256208591605
1295.961094024493 6240.722650312164
1296.79321221365 6229.660898924749
1297.6251264704333 6281.3872470992255
1298.4568368516466 6570.799032513304
1299.2883434140658 6291.486347129365
1300.1196462144526 6093.99780643177
1300.9507453095375 6303.723452193542
1301.7816407560313 6358.374432308302
1302.6123326106172 6262.970334543294
1303.4428209299622 6172.380367078042
1304.2731057707024 6517.106777534206
1305.1031871894502 6211.574177891296
1305.933065242798 6291.795315322285
1306.7627399873181 6265.631704881364
1307.5922114795467 6598.908357602823
1308.4214797760123 6676.3485332103855
1309.2505449332057 6305.839447588156
1310.0794070076026 6350.731067383941
1310.9080660556538 6448.7138736396455
1311.736522133786 6520.047194127362
1312.5647752983987 6291.764319728785
1313.3928256058734 6085.1449678675035
1314.2206731125661 6403.642672932615
1315.048317874809 6324.127336592155
1315.8757599489109 6195.625263351447
1316.7029993911547 6237.955784851316
1317.5300362578055 6455.061092227857
1318.356870605101 6175.9690446072
1319.183502489257 6143.271947572343
1320.0099319664623 6384.371241958581
1320.836159092889 6332.847266166162
1321.66218392468 6469.952623016608
1322.4880065179532 6201.705337815974
1323.3136269288134 6383.991945319027
1324.1390452133292 6444.288827388989
1324.9642614275563 6527.1628287576295
1325.7892756275214 6334.238096880434
1326.6140878692295 6247.885184025311
1327.4386982086617 6593.225354033806
1328.2631067017755 6396.765256302957
1329.0873134045069 6320.250512472561
1329.911318372764 6246.8504994278355
1330.735121662441 6357.225769446986
1331.558723329399 6186.873324501144
1332.3821234294774 6120.579222868708
1333.2053220185007 6120.1941524651065
1334.0283191522612 6133.590777736723
1334.851114886529 6237.357784109061
1335.6737092770582 6027.018681562905
1336.4961023795695 6120.77651692466
1337.3182942497697 5948.967325872525
1338.1402849433325 6126.508280510516
1338.962074515921 5902.797069897725
1339.7836630231632 5830.408994746824
1340.6050505206676 6255.724132321228
1341.426237064028 6165.593032999846
1342.2472227088037 5879.568519972172
1343.0680075105338 5876.396314144327
1343.888591524741 5923.389363197571
1344.7089748069138 6000.468841319148
1345.5291574125276 5826.34610348808
1346.3491393970307 5735.946770063098
1347.168920815846 5947.94229556046
1347.9885017243778 6035.047547889631
1348.8078821780036 5760.470349970705
1349.6270622320844 5750.1454541480625
1350.4460419419447 5722.557373551022
1351.2648213629054 5913.1221489007985
1352.0834005502438 5566.013970038018
1352.90177955923 5589.3381627031695
1353.7199584451064 5883.1871567166145
1354.5379372630887 5737.7432549238365
1355.355716068374 5689.491523818049
1356.1732949161305 5642.402316071386
1356.9906738615155 5660.885727229032
1357.8078529596478 5629.276212886787
1358.6248322656375 5774.086136161661
1359.441611834567 5539.105021327373
1360.2581917214866 5651.789884509998
1361.0745719814367 5661.606066171858
1361.890752669433 5479.701601668871
1362.7067338404577 5504.031251393563
1363.5225155494845 5697.681666763264
1364.3380978514506 5712.446596600244
1365.1534808012839 5319.428213967119
1365.9686644538815 5326.148299316939
1366.783648864117 5729.950809809703
1367.5984340868417 5737.257443522011
1368.413020176893 5617.617859254178
1369.2274071890715 5369.651644940403
1370.0415951781652 5679.426187611965
1370.8555841989346 5566.238033233169
1371.6693743061223 5313.31608688829
1372.48296555444 5188.702191365885
1373.2963579985844 5545.763236913125
1374.1095516932255 5551.51477682067
1374.9225466930166 5225.134022914289
1375.7353430525782 5499.055378593376
1376.5479408265164 5353.3082655972685
1377.36034006941 5487.809447785526
1378.1725408358216 5453.124772579625
1378.9845431802805 5225.403064999298
1379.796347157304 5629.231596692034
1380.6079528213813 5516.430663967994
1381.4193602269788 5207.444653921544
1382.230569428546 5232.504075489665
1383.0415804805016 5530.547324577126
1383.852393437246 5480.680522723201
1384.6630083531563 5323.384006558337
1385.4734252825892 5243.754216446582
1386.2836442798798 5253.743201775622
1387.0936653993322 5414.237724857781
1387.9034886952395 5262.708947524397
1388.713114221864 5332.170820458354
1389.5225420334482 5419.3843479251955
1390.331772184214 5255.451943031279
1391.1408047283585 5112.853623146839
1391.9496397200564 5257.530323750079
1392.758277213461 5339.664217447923
1393.5667172627054 5375.349822075394
1394.3749599218918 5181.97601044053
1395.1830052451114 5060.751203839922
1395.9908532864265 5256.075247485522
1396.7985040998774 5353.6268514143485
1397.6059577394808 5106.187345493652
1398.4132142592352 5062.036522749343
1399.2202737131156 5093.739637419907
1400.027136155073 5358.527406910861
1400.8338016390353 5067.005466292659
1401.6402702189134 5004.914008271296
1402.446541948586 5168.381381581681
1403.2526168819204 5179.023092789309
1404.058495072757 4993.496382959464
1404.8641765749107 5106.552830954008
1405.6696614421799 5222.194529341911
1406.4749497283356 5469.953134658518
1407.280041487129 5065.679741247639
1408.084936772295 4936.201708347724
1408.8896356375335 5274.72427893613
1409.6941381365323 5268.603499555337
1410.498444322955 4910.410659088217
1411.3025542504402 5066.247508925409
1412.106467972606 5186.29149024801
1412.9101855430508 5240.256714262161
1413.7137070153458 5008.5992857992915
1414.5170324430437 5139.6268333184935
1415.320161879672 5197.039863384516
1416.1230953787435 5330.490153019643
1416.925832993742 4994.965171440912
1417.7283747781275 4956.848871317636
1418.5307207853439 5263.992229040101
1419.3328710688093 5228.048041915965
1420.134825681922 4980.059667082778
1420.9365846780584 5029.988563066588
1421.7381481105713 5354.869550119982
1422.539516032788 5205.951885036469
1423.3406884980232 5006.394820078095
1424.1416655595604 5035.85073545826
1424.942447270665 5202.485793828115
1425.7430336845828 5294.721849314978
1426.5434248545298 5087.224450834984
1427.3436208337116 5221.24084071378
1428.143621675301 5235.147003245895
1428.9434274324558 5467.477560564717
1429.7430381583108 5127.2439279791615
1430.5424539059713 5130.410751229768
1431.3416747285337 5592.7237449097365
1432.1407006790632 5361.937585046187
1432.9395318106053 5298.461724707338
1433.7381681761835 5147.9837035450355
1434.5366098288014 5347.487699762585
1435.3348568214424 5448.3722640046235
1436.1329092070573 5110.5046730584645
1436.9307670385879 5238.804069717329
1437.7284303689503 5282.899727844904
1438.5258992510335 5517.671528791597
1439.3231737377118 5262.079354074833
1440.1202538818306 5305.615049125418
1440.9171397362225 5264.141686492166
1441.7138313536925 5268.307890097779
1442.5103287870243 5113.529600902016
1443.3066320889775 5081.122232056089
1444.1027413122956 5305.693666000983
1444.8986565096966 5187.9479660359875
1445.694377733882 5126.413668726802
1446.4899050375207 4993.41566504874
1447.2852384732687 5087.09513022028
1448.0803780937622 5262.80390520011
1448.8753239516063 4965.539034547803
1449.6700760993954 4822.314353046134
1450.464634589689 5071.327758418728
1451.2589994750397 5195.588820905005
1452.0531708079689 4928.466868619041
1452.8471486409799 4884.7492563208725
1453.6409330265524 5266.441841174386
1454.4345240171442 5015.938304363215
1455.2279216651987 4984.776629095765
1456.0211260231263 4816.466307889021
1456.8141371433194 5038.23723611837
1457.6069550781594 5110.892609863905
1458.3995798799897 4820.136338420349
1459.1920116011424 4774.459496230232
1459.98425029393 4735.097335655515
1460.7762960106338 4703.174595916241
1461.5681488035225 4835.143864242256
1462.3598087248392 4839.720610973297
1463.1512758268036 5139.506168627327
1463.942550161617 4738.48503682783
1464.7336317814625 4595.262296333981
1465.524520738496 4768.16328238087
1466.3152170848552 4658.64864934953
1467.1057208726506 4692.725724877657
1467.8960321539817 4605.1379451440425
1468.6861509809169 4519.030878178571
1469.4760774055085 4569.0178369698715
1470.265811479785 4590.694018090107
1471.055353255755 4578.186764042723
1471.844702785409 4431.284326582374
1472.6338601207044 4452.001584359181
1473.4228253135934 4597.2779881587685
1474.2115984159936 4357.800315906783
1475.0001794798063 4290.485695311714
1475.7885685569145 4569.633729088103
1476.576765699172 4440.528279973242
1477.3647709584238 4344.2908942507875
1478.1525843864802 4571.293288715159
1478.9402060351367 4510.142971339426
1479.7276359561693 4616.779574257714
1480.514874201328 4335.492008912555
1481.3019208223468 4247.385336060852
1482.0887758709323 4170.895404843596
1482.8754393987747 4541.174111311965
1483.6619114575406 4224.042888342922
1484.4481920988783 4236.86906976207
1485.2342813744108 4392.521204881649
1486.0201793357446 4595.280598752191
1486.8058860344572 4249.534575564603
1487.591401522117 4282.482593841211
1488.3767258502594 4341.08334021402
1489.1618590704056 4369.520607080016
1489.9468012340494 4006.9694936316396
1490.7315523926754 4379.553845916621
1491.5161125977356 4354.451869047245
1492.3004819006637 4354.833375871912
1493.084660352877 4101.290859928547
1493.8686480057622 4308.831309046631
1494.6524449106964 4522.528161934752
1495.4360511190262 4566.323802509971
1496.219466682087 4279.901279036405
1497.0026916511779 4319.415449632854
1497.7857260775945 4323.097036643754
1498.5685700125996 4384.803476580535
1499.3512235074395 4082.0430460494326
1500.133686613337 4077.243335915995
1500.9159593814966 4148.629927478927
1501.698041863101 4583.646114662636
1502.4799341093094 3966.852566083183
1503.2616361712662 3945.134842925539
1504.043148100087 4237.377600877836
1504.8244699468742 4222.362727659716
1505.6056017626997 3925.2046832729293
1506.3865435986281 4047.1735362437566
1507.1672955056893 4249.803667474805
1507.9478575348967 4093.610416469243
1508.7282297372512 4303.456441291116
1509.5084121637192 4120.225722239322
1510.2884048652577 4193.239362819895
1511.0682078927948 4079.2460775244726
1511.8478212972423 4031.3703794136804
1512.6272451294917 3944.102299041812
1513.4064794404076 4156.399609824486
1514.1855242808433 4118.167713087004
1514.9643797016215 4155.070470863744
1515.743045753552 4216.883300129005
1516.5215224874191 4286.7410489399535
1517.2998099539836 3840.038557049616
1518.077908203999 4057.6584176985025
1518.8558172881785 3978.434207872954
1519.633537257234 4176.255210699232
1520.4110681618404 4050.5341623176037
1521.1884100526604 4049.3860384097266
1521.9655629803365 4047.091104066916
1522.7425269954856 4268.0714607419595
1523.5193021487103 4385.273915032961
1524.2958884905856 3958.5324025124455
1525.0722860716687 3962.699284619119
1525.848494942502 3934.2874612950304
1526.624515153595 4096.716532049992
1527.4003467554485 4079.305652132394
1528.175989798534 4148.538079565763
1528.9514443333064 4043.0908116200017
1529.726710410203 4265.612389816684
1530.5017880796331 3968.4082726649444
1531.276677391992 3874.17970665991
1532.0513783976457 4269.5629557276225
1532.825891146953 4047.4500215412495
1533.6002156902414 4049.8019405752884
1534.3743520778207 4024.30784360887
1535.1483003599806 4098.352445526461
1535.9220605869923 4041.427338971036
1536.6956328091019 4032.2780887509166
1537.4690170765407 4007.246872946226
1538.242213439511 4071.6996312325646
1539.015221948208 4047.7057026250413
1539.78804265279 3881.5580101770793
1540.560675603405 3828.8711997843106
1541.3331208501804 4208.90974374908
1542.1053784432224 4152.92223616128
1542.8774484326168 4018.1382865630926
1543.649330868422 3978.3857480052166
1544.4210258006842 3982.1932542562436
1545.1925332794308 3971.125535560272
1545.9638533546604 3973.3854256045843
1546.7349860763552 3857.789167002012
1547.5059314944829 4186.5237035647515
1548.27668965898 4010.697750729415
1549.0472606197673 4002.653967656143
1549.817644426752 3874.142063675429
1550.5878411298072 4075.076290830325
1551.3578507787988 4039.287127869952
1552.1276734235635 3740.36242775515
1552.8973091139233 4045.5073799314296
1553.6667578996767 4077.626843574713
1554.436019830604 3904.086744293608
1555.20509495646 3876.666864399267
1555.9739833269869 3871.148968575281
1556.7426849919011 3856.5230476685333
1557.511200000903 4222.6888349776955
1558.2795284036674 3956.2342962138914
1559.0476702498509 3913.0383484664344
1559.8156255890954 4113.9682636307825
1560.5833944710157 4336.236561436009
1561.3509769452048 3878.23567231399
1562.1183730612447 3925.212252547705
1562.8855828686865 4020.9707860686176
1563.6526064170703 4151.608980136495
1564.4194437559127 4130.4053734199315
1565.1860949347047 3873.8033411846554
1565.9525600029283 4251.678481153886
1566.7188390100328 4363.569952555925
1567.4849320054564 3903.1808427353485
1568.250839038612 3942.731830423357
1569.0165601588997 3944.9054417915563
1569.7820954156887 4150.93688878483
1570.5474448583373 3949.180304304763
1571.31260853618 3943.0367010388277
1572.0775864985299 3871.2321466405797
1572.8423787946813 4104.504904711217
1573.6069854739108 4045.8497447922155
1574.371406585471 4062.2040874303334
1575.1356421785986 4139.651977935773
1575.899692302506 4025.8257426543264
1576.6635570063845 4115.93424456629
1577.4272363394157 4103.003143278882
1578.190730350747 4054.616219191553
1578.9540390895163 4263.31216240486
1579.7171626048384 3893.709587345352
1580.480100945806 3880.9176327217137
1581.2428541614918 4061.875414979257
1582.0054223009538 4181.98755876874
1582.767805413223 4083.0387356759675
1583.5300035473156 4035.0965051867875
1584.292016752228 4352.90987133496
1585.0538450769309 4142.903616581523
1585.8154885703807 3937.1497400354397
1586.5769472815136 3862.160791995556
1587.3382212592405 4062.430170210509
1588.099310552463 4151.542899092726
1588.8602152100484 4055.7780343646323
1589.6209352808564 4068.2694451778007
1590.3814708137234 4014.444389710513
1591.14182185746 4028.265992913718
1591.9019884608679 3865.74052399457
1592.6619706727215 3657.5395118941897
1593.4217685417734 3989.9297817124097
1594.1813821167616 4144.03940881125
1594.9408114464022 3911.751551575953
1595.7000565793933 3807.8741030000842
1596.459117564409 3950.2222912253237
1597.2179944501113 3845.627621858839
1597.9766872851324 3787.9724435098533
1598.735196118092 3949.439262063458
1599.4935209975883 3930.5623282134197
1600.2516619721973 3990.087633954188
1601.0096190904787 3739.443476916547
1601.7673924009723 3804.4803521742383
1602.524981952196 3823.7597623974616
1603.2823877926476 3847.602824792352
1604.0396099708087 3663.613194569938
1604.7966485351371 3616.3528121065124
1605.5535035340745 3767.4766230084797
1606.3101750160404 3958.001155367787
1607.0666630294363 3590.7202839970423
1607.822967622642 3630.2527352149964
1608.5790888440224 3844.1111572053683
1609.3350267419137 3947.7252447539213
1610.0907813646445 3657.2743651935903
1610.8463527605145 3691.5281161173907
1611.601740977805 3840.0868888471095
1612.356946064785 3709.4218859027264
1613.1119680696902 3488.2407266475666
1613.8668070407512 3605.959190714881
1614.6214630261748 3654.114204791723
1615.375936074137 3827.6901680144374
1616.1302262328118 3695.5101070909395
1616.8843335503425 3781.8430593896073
1617.638258074854 3586.2488709599843
1618.391999854457 3701.2421762793383
1619.1455589372363 3788.134567735974
1619.8989353712623 3725.4985608013158
1620.65212920458 3422.650728656435
1621.4051404852235 3593.8914865989077
1622.1579692611976 3585.58096659963
1622.9106155804966 3447.139820623511
1623.663079491087 3600.6103512544514
1624.4153610409248 3722.214951930345
1625.1674602779385 3600.5407874990256
1625.9193772500403 3468.986859629401
1626.6711120051277 3975.517150127226
1627.4226645910676 3604.2375330248556
1628.174035055721 3478.593726184647
1628.9252234469168 3741.5799070591374
1629.676229812474 3606.5049497285145
1630.4270542001905 3889.982384073789
1631.1776966578382 3560.094100258722
1631.9281572331747 3630.8932494418646
1632.678435973945 3808.085772966605
1633.4285329278573 3682.9411200829877
1634.1784481426203 3405.191792897984
1634.9281816659113 3663.956003725923
1635.677733545388 3742.3746786721467
1636.4271038286934 3527.4730989760515
1637.176292563452 3681.1003192131125
1637.9252997972635 3593.8758521287245
1638.674125577716 3612.756972274651
1639.4227699523672 3909.926128019701
1640.171232968767 3373.7317347239964
1640.9195146744423 3556.253443777177
1641.6676151168977 3711.618464547625
1642.4155343436178 3796.9631942057035
1643.1632724020765 3633.051082418323
1643.9108293397167 3518.7408701847758
1644.658205203974 3461.749533157813
1645.4054000422566 4090.26130908875
1646.1524139019566 3564.497387493336
1646.8992468304423 3370.6488310918676
1647.6458988750728 3424.388069902679
1648.3923700831765 3427.833421081659
1649.1386605020743 3496.4151494129605
1649.8847701790564 3729.157071047689
1650.6306991614038 3573.127357140648
1651.3764474963682 3667.0754420613366
1652.1220152311944 3298.050650639554
1652.867402413096 3555.3563953819926
1653.6126090892776 3650.893416223005
1654.3576353069184 3805.051459609843
1655.1024811131829 3537.580881910657
1655.8471465552066 3387.325424596067
1656.5916316801213 3714.8542009426324
1657.3359365350298 3573.9348693176557
1658.0800611670165 3483.2288304876956
1658.824005623148 3605.094614631192
1659.5677699504722 3380.910006245812
1660.3113541960192 3539.704660566958
1661.054758406799 3414.63434884931
1661.7979826297997 3377.015469555505
1662.5410269119966 3340.5825587266254
1663.283891300338 3599.1658595771323
1664.0265758417645 3367.81996372312
1664.7690805831826 3530.5952669855774
1665.5114055714948 3549.9689278558785
1666.2535508535748 3945.7105640365507
1666.9955164762814 3237.3503008268717
1667.7373024864555 3411.0218978737735
1668.478908930916 3659.2143672427947
1669.220335856462 3428.8524493263712
1669.9615833098778 3279.019357396547
1670.7026513379296 3321.6207024230134
1671.44353998736 3467.474682745873
1672.1842493048916 3484.7839695637304
1672.9247793372379 3472.4273633166185
1673.6651301310812 3494.5984926233164
1674.4053017330934 3398.6292900347025
1675.1452941899242 3577.0920585597873
1675.885107548207 3092.981416913551
1676.6247418545518 3176.377137276103
1677.3641971555535 3345.128691102798
1678.1034734977893 3567.79542817131
1678.8425709278108 3369.8324487296836
1679.5814894921605 3631.1926975600786
1680.320229237359 3497.91968415326
1681.0587902098978 3572.2437225942303
1681.7971724562685 3384.4460253144402
1682.5353760229264 3288.5586534640797
1683.2734009563173 3475.871964264132
1684.0112473028657 3335.1822305850465
1684.7489151089794 3539.433274168404
1685.4864044210462 3647.9738349163067
1686.2237152854377 3131.560754091181
1686.960847748498 3680.8591642766305
1687.6978018565642 3214.7231869843686
1688.434577655944 3260.272429758752
1689.1711751929379 3067.3983275513933
1689.9075945138156 3422.3243294981025
1690.6438356648396 3396.4084629284807
1691.3798986922448 3078.71778533429
1692.1157836422499 3232.0128201089947
1692.851490561059 3249.1152732391574
1693.587019494853 3433.6515240000144
1694.3223704897991 3077.6604024085204
1695.0575435920364 3044.364846310632
1695.792538847696 3597.982303989492
1696.527356302886 3192.06179961172
1697.2619960036936 3108.053896124194
1697.9964579961907 3169.5329765358856
1698.730742326432 2985.306366392434
1699.4648490404488 3003.729371648883
1700.1987781842563 3105.002057449408
1700.9325298038548 3342.771458288104
1701.6661039452174 3379.957712881419
1702.3995006543082 3202.3052544475177
1703.1327199770658 3284.4792473775583
1703.865761959416 3092.117210630281
1704.598626647261 3491.5846210303002
1705.3313140864866 3029.336644256028
1706.0638243229587 2948.7100557122567
1706.7961574025303 3302.966565894756
1707.528313371029 3194.4204643917165
1708.260292274268 2971.097281327818
1708.9920941580403 3196.5761858513124
1709.7237190681226 3175.133379347693
1710.4551670502697 3089.0596636875316
1711.18643815022 2927.201945745667
1711.9175324136959 3446.717521708204
1712.6484498863938 3088.4479219362697
1713.379190614005 2982.113701043424
1714.109754642188 2993.8745014433307
1714.8401420165883 2936.8016612073156
1715.570352782839 3550.4980444404164
1716.3003869865497 3027.537254491435
1717.0302446733076 2991.5782028694407
1717.7599258886876 3050.946316211522
1718.4894306782444 3293.924643852611
1719.2187590875183 2940.5212102002697
1719.9479111620203 3278.649025790819
1720.6768869472544 2883.4272729370578
1721.4056864887025 3305.209740039415
1722.1343098318284 3329.0535826476116
1722.8627570220742 3049.924739547212
1723.591028104871 2851.3574057453793
1724.3191231256242 2849.9668667097108
1725.0470421297232 3161.2089572550667
1725.7747851625427 3079.9054897472774
1726.5023522694337 3129.2506008321793
1727.2297434957363 3036.8038094694994
1727.9569588867635 2877.786184832521
1728.6839984878152 3191.4081664734895
1729.4108623441734 2618.9749409417213
1730.1375505011038 3160.4571629399456
1730.8640630038426 2823.6529460806087
1731.5903998976264 2791.45248507284
1732.316561227657 3125.955916008425
1733.0425470391274 2804.3912003360992
1733.7683573772065 2990.625494319659
1734.4939922870508 2995.7550628420313
1735.2194518137949 3019.0632573707976
1735.9447360025606 2940.2212680242087
1736.669844898439 2977.618610959312
1737.3947785465189 2721.8587645901025
1738.1195369918605 2689.1465763361184
1738.8441202795093 2964.179021313531
1739.5685284544943 2876.849816322439
1740.292761561821 2959.1350398593786
1741.0168196464838 2942.58773047023
1741.7407027534518 2906.8010562648897
1742.464410927687 3085.687048664885
1743.187944214118 2876.6430442574606
1743.9113026576688 2892.440765193737
1744.634486303241 2871.5672809165167
1745.3574951957125 2855.475986516726
1746.0803293799509 3060.4475904878846
1746.8029889008048 2844.539534952068
1747.5254738031017 3033.9626006695153
1748.2477841316504 2733.623488047094
1748.969919931249 2798.9638795883416
1749.6918812466665 2941.7735052086928
1750.4136681226646 3024.4889372087523
1751.1352806039777 2862.488491391651
1751.856718735331 2638.9426529411485
1752.5779825614281 2634.8307901997555
1753.2990721269507 2953.51000544603
1754.0199874765676 2966.2161623911684
1754.7407286549314 2664.813174751459
1755.4612957066693 2769.8714229511124
1756.1816886763954 2724.1698959643263
1756.9019076087097 2925.855624124183
1757.6219525481865 2960.1249579706064
1758.3418235393856 2846.1568889255386
1759.061520626854 2843.7879050869738
1759.7810438551096 3113.893923017809
1760.5003932686614 2662.211062563295
1761.2195689119999 3004.560841732097
1761.938570829594 2747.105975182821
1762.657399065898 2860.0908348010653
1763.376053665348 2696.1089370787513
1764.0945346723602 2603.660052830568
1764.812842131334 3027.3436742380104
1765.5309760866512 2736.999672732815
1766.2489365826787 2649.6312739104674
1766.9667236637597 2775.998408561271
1767.684337374223 2563.2042018823754
1768.401777758383 2641.7449406889345
1769.1190448605284 2597.905123933187
1769.836138724937 2535.8311302262523
1770.5530593958665 2797.239911412176
1771.2698069175603 2968.73327533876
1771.9863813342326 2956.9509516557596
1772.702782690094 2789.839795628241
1773.4190110293293 2789.4610335877815
1774.1350663961111 2786.4482955731387
1774.8509488345844 2748.0760541074987
1775.5666583888924 2694.2615293729477
1776.2821951031437 2943.071407008113
1776.9975590214362 2690.811427964104
1777.7127501878585 2843.1163451448365
1778.4277686464684 2826.7839956643716
1779.1426144413108 2913.1698877725307
1779.8572876164162 2896.415809684384
1780.571788215797 2504.100582274053
1781.2861162834415 2709.028166956695
1782.0002718633277 2570.9579160969456
1782.7142549994132 2805.400177548267
1783.4280657356376 2690.415391750014
1784.141704115922 2598.4454042893954
1784.855170184177 2599.783911780899
1785.5684639842839 2777.0866621233827
1786.2815855601148 2314.177590743008
1786.9945349555237 2764.884002552161
1787.707312214343 2512.7052195809197
1788.4199173803918 3028.5403421221736
1789.132350497468 2555.9698554233587
1789.8446116093583 2483.006975779818
1790.556700759822 2523.0505777430258
1791.2686179926077 2710.56254009271
1791.9803633514493 2605.282359154746
1792.6919368800554 2385.5609577168925
1793.4033386221236 2760.4735189430653
1794.1145686213295 2792.868081785479
1794.8256269213307 2921.825284900059
1795.536513565774 2725.049035103269
1796.247228598284 2317.9608988583395
1796.9577720624693 2476.3079632467416
1797.6681440019165 2653.022044617177
1798.3783444602013 2559.445126067355
1799.0883734808776 2742.989746017535
1799.7982311074884 2645.7648192545653
1800.5079173835475 2623.249156231701
1801.2174323525633 2752.379403156447
1801.9267760580187 2652.7858560259356
1802.635948543386 2698.3741433023533
1803.3449498521113 2384.2133611981976
1804.0537800276325 2746.459345800932
1804.7624391133668 2671.152992169783
1805.47092715271 2377.062838568463
1806.1792441890484 2414.25995430001
1806.8873902657433 2823.2237138183523
1807.5953654261448 2606.8785225631045
1808.3031697135812 2502.415906564679
1809.0108031713662 2525.8249312608837
1809.71826584279 2565.017613398887
1810.425557771141 2576.6960641144356
1811.1326789996747 2504.118658152608
1811.839629571632 2431.320231816605
1812.5464095302468 2533.4261320513533
1813.2530189187182 2631.347407259845
1813.959457780249 2594.910170625875
1814.6657261580076 2757.1257728854785
1815.371824095153 2556.9768816760634
1816.0777516348262 2792.9237558972372
1816.78350882015 2159.673909117547
1817.4890956942272 2311.3334201356106
1818.1945123001533 2377.8588995549735
1818.8997586809928 2462.0873828041017
1819.6048348798067 2332.763058866155
1820.3097409396287 2469.836735510694
1821.0144769034796 2724.3892798762777
1821.7190428143622 2665.2122325984515
1822.423438715261 2672.986891923181
1823.1276646491478 2472.3583762382605
1823.8317206589727 2506.6781156139805
1824.5356067876692 2662.750254129956
1825.2393230781581 2528.896925742645
1825.942869573335 2392.426851903868
1826.646246316086 2379.4892833406393
1827.3494533492758 2556.6172720681425
1828.052490715756 2589.195315691471
1828.7553584583547 2517.5229939173305
1829.458056619891 2608.314627254143
1830.1605852431585 2479.526157039184
1830.8629443709433 2315.381161884424
1831.5651340460063 2414.0980074221034
1832.2671543110919 2346.973902962871
1832.9690052089318 2640.0644387721118
1833.6706867822395 2253.4777557458774
1834.3721990737104 2633.435443335864
1835.0735421260233 2519.855216418952
1835.774715981841 2457.266595691781
1836.4757206838058 2766.9842854348517
1837.1765562745459 2439.4197815312887
1837.8772227966747 2239.8348961417264
1838.5777202927839 2481.322294353064
1839.2780488054523 2337.730217303717
1839.9782083772352 2318.7430216209027
1840.6781990506806 2829.9960873163054
1841.378020868313 2445.4915504569617
1842.0776738726418 2512.8842154046215
1842.777158106157 2406.9355945708476
1843.4764736113375 2311.708175054175
1844.1756204306403 2638.444893923914
1844.8745986065078 2469.947985124597
1845.5734081813607 2361.809431263952
1846.2720491976124 2352.4233458199988
1846.970521697649 2399.5090083897835
1847.6688257238511 2433.9908748162825
1848.3669613185684 2389.5744065556487
1849.0649285241452 2191.570879584553
1849.7627273829057 2346.7418688575235
1850.460357937156 2515.750387748313
1851.1578202291857 2140.596889733175
1851.8551143012664 2436.09035187861
1852.5522401956569 2415.9921815888547
1853.2491979545957 2596.1610901870004
1853.9459876203055 2327.311448172483
1854.6426092349902 2218.922956937454
1855.3390628408451 2386.61172113746
1856.0353484800362 2571.134857880637
1856.7314661947203 2503.116714545431
1857.4274160270397 2214.738887495837
1858.123198019115 2373.0118586998574
1858.8188122130487 2159.4015932578377
1859.5142586509319 2287.5507155537284
1860.209537374838 2326.6050009548194
1860.9046484268183 2252.924764459551
1861.599591848917 2653.088321864384
1862.294367683151 2392.7021944966414
1862.988975971528 2357.928301741845
1863.6834167560355 2492.7267068946417
1864.3776900786452 2497.9744033402517
1865.0717959813119 2309.812648106144
1865.7657345059724 2201.6226826458897
1866.4595056945564 2482.469937681895
1867.1531095889586 2454.7196340709133
1867.846546231076 2126.3867454097463
1868.5398156627743 2516.535332835417
1869.2329179259123 2270.0880234587853
1869.9258530623283 2541.023881330282
1870.618621113843 2246.770500978929
1871.3112221222636 2092.379327019365
1872.0036561293764 2249.4701807399806
1872.695923176956 2317.9760983914844
1873.3880233067594 2492.995671355299
1874.0799565605212 2116.3538939427153
1874.7717229799673 2373.4591309111306
1875.4633226068036 2485.5377268668944
1876.1547554827175 2457.5475450461972
1876.8460216493859 2181.3785854536627
1877.5371211484617 2327.2162845145094
1878.2280540215852 2571.4536214066757
1878.9188203103804 2041.477087389219
1879.6094200564548 2206.9694813869814
1880.299853301396 2284.9155670329114
1880.9901200867826 2407.314839164233
1881.6802204541673 2323.8721588012895
1882.3701544450942 2458.858564013898
1883.059922101087 2084.4830702141376
1883.7495234636517 2555.7760078581637
1884.4389585742792 2274.3625894398856
1885.1282274744517 2096.789317988011
1885.8173302056166 2229.255580315504
1886.506266809225 2361.902097987634
1887.195037326701 2061.728955309346
1887.8836417994517 2330.3128353230068
1888.5720802688702 2536.7449822291687
1889.260352776333 2534.1631674598666
1889.9484593632042 2485.9690889882454
1890.63640007082 2170.6950415886763
1891.3241749405151 2229.8579494475316
1892.0117840135954 2433.6698777150687
1892.6992273313572 2257.818973094071
1893.3865049350788 2039.400593308727
1894.0736168660223 2216.07101149877
1894.7605631654333 2392.941266395704
1895.4473438745408 2084.6628077055584
1896.133959034556 2496.3937993942372
1896.820408686679 2421.255076212811
1897.506692872088 2726.9731498536285
1898.192811631945 2241.588466869497
1898.8787650073991 2245.6127547236756
1899.5645530395832 2500.2679916498455
1900.2501757696118 2433.1601540595466
1900.9356332385796 2135.1484715337924
1901.620925487574 2650.0111498028145
1902.3060525576602 2373.839659665052
1902.9910144898859 2334.369855209608
1903.6758113252872 2282.230413863992
1904.3604431048789 2290.1468920938632
1905.0449098696663 2409.298922092192
1905.7292116606295 2269.671953872955
1906.4133485187394 2269.443161656726
1907.0973204849488 2014.1163386429992
1907.7811276001976 2046.4705524759902
1908.4647699053967 2226.316033546447
1909.1482474414588 2178.0976166948535
1909.8315602492694 2129.6794793632403
1910.5147083696957 2534.8944240340147
1911.1976918436012 2216.1207255895065
1911.880510711815 2132.289338931815
1912.5631650151681 2533.5500889621844
1913.2456547944657 2148.320992666766
1913.927980090495 2322.292177501967
1914.6101409440362 2213.193542504475
1915.2921373958416 2301.594643498408
1915.9739694866603 2079.630121266002
1916.655637257214 2559.366334188372
1917.3371407482136 2352.1234487608353
1918.0184800003572 2548.4131624278934
1918.6996550543154 2349.1123622568057
1919.3806659507554 2274.6557326291672
1920.0615127303208 2342.9229463298952
1920.7421954336423 2450.161663941047
1921.4227141013343 2498.885595030263
1922.103068773993 2233.3729313241743
1922.783259492202 2353.6492120831226
1923.4632862965227 2288.921054291898
1924.1431492275078 2239.127976100764
1924.8228483256917 2088.7330526849655
1925.5023836315922 2198.4394965975494
1926.1817551857057 1892.1157248015775
1926.8609630285227 2514.8393813179514
1927.5400072005123 2327.1920764889533
1928.218887742125 2147.759867593265
1928.8976046938005 2156.397461573903
1929.5761580959588 2295.5303998380364
1930.2545479890086 2238.9311740451244
1930.9327744133352 1992.4822212429026
1931.6108374093164 2324.1469381666334
1932.2887370173066 2633.048968246092
1932.9664732776473 2494.175666543046
1933.6440462306673 2354.8928940608284
1934.3214559166754 2157.0801647721532
1934.9987023759659 2538.7825397149904
1935.675785648813 2284.743855643751
1936.3527057754836 1888.8971619517038
1937.029462796223 1950.681521879335
1937.70605675126 2012.6435095047532
1938.3824876808085 2096.6701469492436
1939.058755625072 2181.882287926347
1939.7348606242267 2261.602628147514
1940.4108027184448 2143.945173839956
1941.0865819478713 2366.200472673
1941.7621983526478 2158.4480931485928
1942.4376519728921 2000.9597808981648
1943.1129428487038 2315.7910378100178
1943.7880710201734 2381.696112461018
1944.4630365273733 2334.286219493336
1945.1378394103576 1982.7262009739193
1945.8124797091714 1904.8060663880303
1946.4869574638324 1826.6646146448415
1947.161272714353 2132.2917311777023
1947.8354255007234 2373.7388005656985
1948.5094158629272 2127.492278595283
1949.1832438409183 2309.3371235720656
1949.8569094746435 2371.43824020159
1950.530412804037 2362.8980817337433
1951.2037538690092 2285.466557115718
1951.8769327094578 2230.1962036724935
1952.5499493652678 2223.3552389473593
1953.222803876306 2590.8057294595756
1953.895496282421 2219.083918874355
1954.5680266234522 2337.5385600384516
1955.2403949392155 2293.306080974227
1955.9126012695142 2053.9095219813485
1956.5846456541403 2216.2187954172955
1957.2565281328643 2146.3740926338523
1957.9282487454457 2396.0131961362636
1958.5998075316202 2345.918209973319
1959.27120453112 2114.815624587619
1959.9424397836501 2150.774149437891
1960.613513328908 2395.5833572560655
1961.2844252065697 2563.2771922644497
1961.9551754563017 2127.4411169609602
1962.6257641177453 2091.668331702961
1963.29619123054 1885.6752502401087
1963.966456834296 2061.962793434946
1964.6365609686181 2052.362869796981
1965.306503673086 2265.2468513476497
1965.976284987275 2092.052733083185
1966.645904950734 2059.5938486742125
1967.315363603002 1824.8402277949558
1967.9846609836077 2123.606113179167
1968.6537971320486 1994.110124162958
1969.3227720878222 2267.302936555715
1969.9915858904042 2179.121386586285
1970.660238579252 2174.910340053183
1971.3287301938108 2141.176659217909
1971.997060773514 2043.33708746188
1972.665230357772 1997.0939797626502
1973.3332389859843 2070.8405225810793
1974.0010866975335 1990.2777811268927
1974.6687735317864 2131.8720285523673
1975.3362995280932 2074.157531083404
1976.003664725793 2272.6096358063314
1976.6708691642052 1923.315439414126
1977.3379128826364 2076.862246802832
1978.004795920373 2271.292740635852
1978.6715183166925 2038.477967930903
1979.3380801108524 2386.026876556133
1980.0044813420973 2170.5204407342717
1980.6707220496555 1812.645852553358
1981.3368022727373 2115.6058875063986
1982.0027220505417 2265.273206620298
1982.66848142225 1733.0378676048272
1983.3340804270283 1873.9023169109128
1983.999519104027 2186.5351367213566
1984.6647974923835 2210.8268249872244
1985.329915631215 2328.5598117106388
1985.99487355963 2086.5019043311963
1986.6596713167146 2279.6574724597663
1987.3243089415428 1997.6295254113422
1987.9887864731754 2356.2371094504947
1988.6531039506553 2002.0575759443789
1989.3172614130071 2044.1634053749065
1989.9812588992481 2086.3741060897073
1990.645096448372 1788.7817347501154
1991.3087740993633 2109.361628845615
1991.9722918911848 2031.238111094054
1992.635649862792 2148.780816465972
1993.2988480531185 2177.2325843506724
1993.9618865010852 2092.9905716492453
1994.6247652455968 2008.6709873442135
1995.287484325545 2038.356284902115
1995.9500437798033 1982.549914150983
1996.6124436472292 2023.6820985799636
1997.2746839666706 2308.23199303438
1997.936764776954 2051.0880684121257
1998.598686116895 1925.4757037860957
1999.2604480252903 2504.270511376161
1999.9220505409212 2409.5652001500375
2000.5834937025593 1938.2183224616408
2001.2447775489582 2118.245365260792
2001.9059021188514 2205.743788253745
2002.5668674509616 1979.7729786932002
2003.2276735839987 2092.7380387949424
2003.8883205566508 2432.9033416883685
2004.5488084075987 2006.782993815506
2005.2091371755014 2049.5182301362447
2005.8693068990033 1920.6387124388343
2006.5293176167397 2199.715931597187
2007.1891693673224 1865.8679130236483
2007.848862189354 1805.4610667930272
2008.5083961214223 1970.4680422127858
2009.1677712020955 1938.4186666811281
2009.8269874699254 1931.4081536606257
2010.4860449634598 1878.631225124994
2011.1449437212177 1825.8266961975728
2011.8036837817108 2346.8295297267523
2012.4622651834325 2187.9790039033255
2013.1206879648653 2067.539274787251
2013.7789521644736 1901.6409171521743
2014.4370578207036 2184.7849240377623
2015.0950049719922 1957.989724944792
2015.7527936567585 2266.784430159537
2016.4104239134067 1932.0984299683998
2017.067895780323 2394.9922649154014
2017.725209295886 2426.42187017129
2018.3823644984514 2457.8799401777787
2019.0393614263648 2133.0217301325256
2019.6962001179545 1985.9376628221842
2020.3528806115355 2347.537097018391
2021.0094029454067 2203.550690725705
2021.6657671578487 1897.9477494410512
2022.321973287133 2019.3399684288186
2022.9780213715148 2025.5016933144393
2023.6339114492293 2078.9924092465685
2024.2896435585026 1983.4393010294323
2024.9452177375442 2169.618738786931
2025.600634024544 2287.5246815348646
2026.2558924576842 2195.330286850848
2026.9109930751292 2317.006885192979
2027.565935915025 1861.6079128532201
2028.2207210155066 2204.5064584468955
2028.8753484146964 2435.4526697018473
2029.529818150695 2387.210883647268
2030.1841302615903 2338.658904746782
2030.8382847854573 1980.6236904534703
2031.4922817603601 2169.3660959744234
2032.1461212243357 2125.063177943007
2032.7998032154192 1708.6472168152613
2033.4533277716218 1927.767578935247
2034.1066949309443 1879.0160434727582
2034.7599047313688 1911.3846051396165
2035.4129572108704 2082.3526799543392
2036.0658524074006 2009.032682258577
2036.7185903589016 1984.1178014933535
2037.3711711032956 2136.84829172886
2038.023594678496 1972.0366297424298
2038.675861122394 2011.563174562397
2039.3279704728757 2309.1565286911527
2039.9799227678031 1928.6449625095647
2040.6317180450278 1926.626015943076
2041.2833563423865 1971.3006947988913
2041.9348376977014 2344.080494185572
2042.5861621487784 2173.311846797117
2043.2373297334088 2055.478355352619
2043.8883404893695 2094.524691268735
2044.5391944544208 2108.8776627584657
2045.1898916663158 2295.195872924177
2045.8404321627804 2379.8004085664934
2046.4908159815368 1850.809166935532
2047.1410431602853 1915.8125015774701
2047.7911137367173 1789.0967426891536
2048.441027748504 1800.0885091160112
2049.090785233302 1811.0238069766679
2049.7403862287592 1964.4855610687187
2050.389830772503 1920.4633049683853
2051.0391189021466 1876.4538083548985
2051.688250655294 2116.889424260885
2052.337226069527 1832.4669564824612
2052.986045182417 2273.7997099143026
2053.634708031521 2213.5826232720115
2054.283214654375 2153.4186312382367
2054.931565088511 1894.6548163920197
2055.579759371436 1866.9466005161958
2056.2277975406523 2082.100129075373
2056.8756796336384 2211.441380167001
2057.5234056878617 1744.2398147007457
2058.1709757407752 1880.927117815325
2058.8183898298194 2214.5413445773147
2059.465647992416 2102.8614256053634
2060.1127502659747 2262.9129399147573
2060.759696687888 1803.0816312346785
2061.4064872955405 2141.0078836051434
2062.053122126292 1855.7008443142263
2062.699601217497 2103.2442731058736
2063.345924606485 1801.0428930456583
2063.992092330587 1950.2555435133643
2064.638104427102 1789.8495194535717
2065.283960933324 2341.193679552945
2065.92966188653 2001.4438359866867
2066.5752073239855 1902.8780571223845
2067.2205972829397 1804.23991904543
2067.86583180062 2128.017818419068
2068.5109109142522 1902.567455688717
2069.15583466104 2040.047391813429
2069.8006030781708 1711.875694560877
2070.445216202821 1910.9135857468586
2071.089674072153 2122.6557497979798
2071.7339767233116 2236.517951559723
2072.3781241934303 2156.546519953842
2073.0221165196253 1972.6709752786574
2073.6659537390024 1923.4429132804357
2074.3096358886505 1964.5085699048536
2074.953163005637 1899.3652877946206
2075.596535127028 1678.59554226699
2076.2397522898664 1886.8837071686164
2076.882814531182 1939.649867560917
2077.5257218879924 1948.9201882309615
2078.1684743973 1885.9247696552561
2078.8110720960885 1784.94604864667
2079.453515021336 1932.4382502935282
2080.095803209997 2080.0490315020184
2080.7379366990135 2004.13807024888
2081.37991552532 2025.8694897003857
2082.0217397258275 2174.1918822895195
2082.6634093374414 2087.220735595896
2083.3049243970418 2000.2422468911016
2083.9462849415067 2093.710695856332
2084.587491007689 2082.490103081849
2085.2285426324324 2044.859757291742
2085.869439852564 1942.5787305068618
2086.510182704902 1856.373817832146
2087.1507712262483 1840.6326753650087
2087.791205453381 1677.7014713474157
2088.4314854230743 2179.9806484400438
2089.0716111720867 2108.6615206076226
2089.7115827371617 1725.999651741664
2090.351400155023 1725.1644580445457
2090.991063462385 1724.4154099078555
2091.6305726959527 1674.8522754854553
2092.2699278924047 1759.3337918933473
2092.9091290884153 1844.059677755645
2093.548176320641 1653.301685000152
2094.187069625721 1740.4908139226966
2094.8258090402887 1827.870726988015
2095.464394600951 2072.507323207492
2096.102826344313 1878.8353839527015
2096.741104306955 2186.3454834023564
2097.379228525453 1831.2732160320088
2098.017199036358 1634.3431841729926
2098.6550158762147 2120.55865974692
2099.2926790815527 2112.258523708469
2099.9301886888825 2184.2255418085124
2100.5675447347076 2037.5653519385883
2101.2047472555114 2244.504231779199
2101.841796287761 1950.6525432262606
2102.47869186792 2108.131558401317
2103.1154340324265 1656.7850852719378
2103.752022817709 1858.3075450355595
2104.388458260184 1784.1811379724797
2105.024740396251 1918.40890602539
2105.660869262292 1844.2292862075003
2106.296844894685 1880.9664299704666
2106.93266732978 1917.8341006318126
2107.5683366039284 1748.962165119062
2108.2038527534532 1983.58691184735
2108.8392158146726 2065.242507146785
2109.4744258238843 1793.9281363316481
2110.1094828173755 1952.6029207053016
2110.744386831422 2317.6891113065703
2111.3791379022787 2050.5716551068776
2112.01373606619 1995.3209985240665
2112.648181359389 2035.4480180038458
2113.28247381809 2009.0425035384985
2113.916613478492 2033.4142936620785
2114.550600376786 2051.6740348107805
2115.1844345491445 1773.3310869737845
2115.818116031729 1859.2396936852613
2116.451644860679 1963.4909412825095
2117.085021072133 1733.8119204739792
2117.718244702204 1785.4808733528218
2118.3513157869984 1785.8576265917786
2118.984234362604 1798.3755713132698
2119.617000465092 1769.248134370396
2120.249614130529 2060.812869644604
2120.8820753949585 1814.9264891564958
2121.5143842944162 1771.047615956751
2122.14654086492 1781.2183734042887
2122.7785451424734 2112.256163525087
2123.4103971630702 2042.638026233565
2124.042096962681 1973.0827335644233
2124.6736445772767 2074.3152648080404
2125.305040042802 1835.1212770069983
2125.936283395191 1967.4472353739184
2126.567374670365 1899.4551075391562
2127.198313904233 1803.8462709493801
2127.8291011326855 1768.609498202732
2128.4597363916037 1733.088831034597
2129.0902197168507 1978.287307630102
2129.720551144279 2116.0803468681256
2130.3507307097225 2253.9195648444984
2130.980758449008 2146.970499390299
2131.6106343979427 2240.487280932782
2132.2403585923203 2333.9933929093017
2132.8699310679276 2254.0456345566104
2133.499351860526 2145.2625821341626
2134.1286210058715 1983.9129708122334
2134.7577385397053 2090.5410924408325
2135.3867044977487 2197.380573386531
2136.0155189157176 2307.608783362871
2136.644181829308 2235.3188978187236
2137.2726932742025 1864.8267449016785
2137.901053286074 1760.9809551315648
2138.5292619005777 1657.0390106351392
2139.1573191533535 1725.07507167529
2139.7852250800315 2086.2427821070123
2140.4129797162295 2000.066909991092
2141.0405830975433 1756.2971388239712
2141.6680352595613 1717.618420173739
2142.2953362378576 1678.8851368965475
2142.9224860679915 1736.1086055826843
2143.549484785508 1823.8004694822412
2144.1763324259373 1798.9923049891738
2144.803029024799 1774.0849063340113
2145.429574617594 1752.8477924437861
2146.0559692398165 2043.6825286638505
2146.682212926942 1825.4702997267984
2147.308305714432 1881.3441579414132
2147.9342476377333 2199.167223856656
2148.5600387322847 2167.3661204084087
2149.185679033506 2028.613766670433
2149.8111685768017 1787.8769930519363
2150.4365073975678 1657.8935029213656
2151.061695531187 1761.4271582436927
2151.686733013021 2162.965315560762
2152.311619878423 2170.307259302253
2152.9363561627342 1753.9795052821544
2153.560941901278 1672.4546053357033
2154.1853771293663 1875.3559844044187
2154.809661882293 1852.4677704696503
2155.433796195348 1726.542278256762
2156.0577801037944 2203.623100303951
2156.681613642895 2089.522306533876
2157.3052968478896 1640.1460729271032
2157.928829754006 2066.636561929546
2158.552212396462 2251.5309418286665
2159.1754448104566 2060.7110657894964
2159.7985270311783 1621.2087327175846
2160.4214590938027 1414.7071179372726
2161.0442410334927 1435.1551383697513
2161.6668728853874 1575.861672635738
2162.289354684628 1716.886089592741
2162.911686466332 1768.9146276359363
2163.533868265602 2107.1997451261504
2164.1559001175337 2306.021873314592
2164.7777820572046 2204.13593610723
2165.399514119681 2087.7314071603564
2166.021096340013 1786.6363415172436
2166.6425287532384 2139.119512736438
2167.263811394385 2177.3835956803587
2167.8849442984574 2215.895213178825
2168.505927500455 1795.7337852970788
2169.126761035366 2150.2638432829253
2169.7474449381552 1813.1219001007034
2170.367979243778 1412.4207676014216
2170.9883639871823 2052.6061703524406
2171.608599203293 1610.5425758931644
2172.2286849270276 2250.1174834621115
2172.8486211932886 2439.9745039676022
2173.4684080369625 2034.6673228682325
2174.0880454929265 1593.9509084900596
2174.7075335960417 1556.3071837965913
2175.3268723811543 1593.9580819275047
2175.9460618831 1631.7268493939189
2176.565102136701 1819.4619541534273
2177.1839931767627 1775.3805587641739
2177.802735038078 1731.208163202236
2178.421327755432 1716.2015562589918
2179.0397713635866 1694.4573972262351
2179.658065897298 1908.8318073870626
2180.276211391305 1897.8123790584093
2180.8942078803357 1774.2862888195802
2181.5120553991 1927.6552887743524
2182.129753982299 1862.757153354262
2182.7473036646206 1797.7227615542756
2183.3647044807367 1994.6539432370914
2183.9819564653044 1672.7459984844238
2184.599059652968 1875.5185427231056
2185.216014078367 1974.9517051753264
2185.832819776113 2027.9922481270664
2186.4494767808137 2081.042657827523
2187.065985127063 1858.596326938347
2187.682344849436 1768.2858103935407
2188.298555982501 1742.061864531699
2188.9146185608097 1715.6822249177228
2189.530532618901 2101.442108283068
2190.1462981912937 1954.9733733651817
2190.761915312507 2060.013177382619
2191.377384017036 1869.837890202861
2191.9927043393654 1847.0462397176984
2192.6078763139667 2095.775578775362
2193.2228999753006 1484.7021293676385
2193.837775357808 1695.3704378707457
2194.452502495922 1639.6279395987094
2195.0670814240602 1767.3200972380005
2195.6815121766285 1471.5546584247525
2196.2957947880186 1484.7028516649489
2196.9099292926057 1497.8827548330516
2197.523915724758 1854.2719077964496
2198.137754118825 1787.3985651348298
2198.7514445091456 2218.0386378062785
2199.3649869300443 2242.6582881691174
2199.9783814158327 2267.42962699524
2200.5916280008096 2257.7521851866245
2201.2047267192593 2177.4670340641346
2201.8176776054515 1830.754964803499
2202.430480693649 1712.2882841397793
2203.0431360180955 2103.7808953390268
2203.6556436130195 2212.351409679878
2204.268003512645 2077.3337757565364
2204.8802157511727 1942.038855249574
2205.492280362796 2174.1113296745007
2206.1041973816937 1834.3016411773885
2206.715966842032 1933.739732130359
2207.3275887779655 1987.0326313211615
2207.93906322363 1835.0086315723097
2208.550390213153 2163.739215902603
2209.1615697806465 2037.708060423255
2209.7726019602105 1774.3362398767229
2210.3834867859277 1401.5959887399908
2210.9942242918787 1633.9442490903452
2211.6048145121167 1702.5034747241837
2212.2152574806914 2654.3167147492036
2212.825553231638 1643.1447793713949
2213.435701798975 2670.907564623966
2214.045703216707 1929.4383308818658
2214.655557518832 1334.5462427776165
2215.2652647393297 1586.670780365458
2215.874824912169 1243.4604133240707
2216.4842380713 1372.0631254729249
2217.09350425067 1501.0791761200737
2217.7026234842033 2015.7619287733153
2218.311595805819 2216.535104865412
2218.9204212494133 1856.5268286247858
2219.52909984888 2208.8751786023918
2220.137631638092 1478.5354758750811
2220.7460166509154 2190.5285739199076
2221.354254921198 1577.5037366406236
2221.9623464827764 1884.6698488397906
2222.5702913694713 1946.7504238772028
2223.178089615096 1795.4302555860263
2223.7857412534486 1643.82877404098
2224.39324631831 1403.3422965711104
2225.000604843457 1540.1395821214523
2225.607816862641 1654.0221565175955
2226.214882409611 1767.9977095221657
2226.8218015180973 2052.572258719222
2227.4285742218217 1734.3043762484504
2228.0352005544864 1853.9996197511605
2228.6416805497847 1504.6290780953593
2229.248014241399 1621.3116873503848
2229.8542016629945 1536.651834304702
2230.460242848223 1953.7004880025283
2231.0661378307304 1768.369227788688
2231.671886644139 1582.8685450037829
2232.277489322065 1608.5578789023882
2232.8829458981127 1472.933585906479
2233.48825640587 1782.2811227332102
2234.0934208789095 1897.7135342552756
2234.6984393507955 2013.3304485381832
2235.3033118550793 1912.6976184301352
2235.9080384252975 1734.6749527613397
2236.5126190949723 1546.2307635900177
2237.1170538976166 1640.9697579218227
2237.721342866729 1503.4022424935556
2238.32548603579 1643.6549286258273
2238.9294834382763 1807.5497510511134
2239.533335107646 1869.0807288281298
2240.1370410773434 1704.7895694346964
2240.740601380803 1635.6567688520238
2241.3440160514474 1886.7147163454197
2241.9472851226783 2104.3904082495205
2242.550408627896 1772.0814660104916
2243.1533866004793 2224.271368611969
2243.756219073799 1890.0941027850865
2244.3589060812064 1756.014410322372
2244.961447656049 1680.795598033502
2245.5638438316564 1714.8570355755426
2246.166094641343 1879.2225640288511
2246.7682001184166 1540.4374582952394
2247.3701602961664 1644.2450414908587
2247.971975207871 1832.8387609482015
2248.5736448867974 2112.3690873089167
2249.175169366197 1754.5586895923032
2249.7765486793123 1910.8418929804461
2250.3777828593684 1900.4698028908865
2250.9788719395783 1803.51818066847
2251.579815953146 1944.9343468831455
2252.1806149332606 1626.8357664743226
2252.781268913097 1648.737344358918
2253.381777925817 1492.8548651118676
2253.9821420045737 2018.496688365818
2254.5823611825035 1904.572860302098
2255.1824354927303 1869.8779147823902
2255.782364968365 1700.3827601007536
2256.38214964251 1530.7059969395143
2256.9817895482483 1632.3462919888611
2257.5812847186553 1669.643882599564
2258.180635186791 1591.3695873247218
2258.779840985704 1651.3605437753376
2259.37890214843 1699.4573843376565
2259.97781870799 1832.0223374081372
2260.5765906973957 1964.8393718116872
2261.175218149645 1969.615328296204
2261.773701097718 2078.5838431586494
2262.3720395745895 1699.4132826352493
2262.970233613216 1446.6341975971889
2263.568283246548 1661.25141127165
2264.1661885075137 1538.2330406777357
2264.763949429038 1706.1166964444178
2265.3615660440246 2024.4248662294226
2265.959038385374 2066.835362060904
2266.5563664859637 2109.3588542764587
2267.153550378669 1777.959672143072
2267.7505900963424 1700.3097031240645
2268.3474856718312 1622.6442388696983
2268.9442371379664 1715.721354239625
2269.5408445275643 1737.3329854230694
2270.1373078734377 1717.0220076136115
2270.7336272083758 1696.6722831185168
2271.32980256516 1655.5926079201963
2271.925833976562 1684.8959399875996
2272.5217214753357 1995.0161494273373
2273.117465094223 1679.0592028204276
2273.7130648659586 1822.1517491425795
2274.308520823257 1633.103507791487
2274.903832998827 1984.3756594410595
2275.4990014253563 1759.631840588659
2276.094026135528 1687.2200382095027
2276.6889071620117 1614.6149961108645
2277.2836445374614 1900.5148585950046
2277.878238294519 1826.2448319219704
2278.472688465812 1737.0606045949214
2279.066995083962 1647.6832238465845
2279.6611581815705 1718.6773189594878
2280.255177791232 2076.162417978684
2280.8490539455233 1849.47577813934
2281.442786677013 2125.44445919315
2282.0363760182554 2029.3757420356214
2282.6298220017943 1687.1633285157282
2283.223124660155 2094.3473228815537
2283.816284025859 2143.504516887767
2284.4093001314086 2192.8615016320773
2285.002173009292 1571.1622416810324
2285.5949026919952 1829.9092304918206
2286.1874892119777 1879.0714963680025
2286.7799326016993 1887.444282070523
2287.3722328936 1389.641386741609
2287.964390120109 1345.3840983246657
2288.556404313642 1937.0985325431625
2289.1482755066027 2112.0988695239985
2289.7400037313873 1943.4583548432397
2290.3315890203703 1731.8899480487162
2290.9230314059205 2003.4006306807642
2291.5143309203904 1745.765238428771
2292.1054875961236 1745.7098325670438
2292.6965014654506 2176.579275140426
2293.287372560684 1699.9332016998555
2293.878100914131 1644.5817744158044
2294.468686558086 1589.1650945706865
2295.059129524827 1815.195278735276
2295.649429846617 2118.139826780558
2296.239587555716 2043.0898713445627
2296.8296026843636 1967.7755683600146
2297.419475264791 2255.5691731283705
2298.0092053292137 2149.690526389261
2298.598792909839 2043.4904994810247
2299.1882380388597 1776.0618027586156
2299.777540748455 2288.466158477002
2300.3667010707904 2123.1824554068153
2300.9557190380256 2264.0020797517473
2301.544594682302 1981.1164343362427
2302.1333280357503 2177.3015350527003
2302.721919130485 1960.7561413890246
2303.3103679986198 2328.552606132485
2303.898674672242 2169.2879129386847
2304.486839183437 1663.8092519701572
2305.0748615642697 1631.5291267869572
2305.6627418468015 1675.1814476729887
2306.2504800630704 1686.7353919752763
2306.8380762451143 1929.6259782422196
2307.425530424949 1909.9880926546116
2308.012842634582 1890.2902553937652
2308.6000129060103 2208.8760029747414
2309.187041271214 1910.0306085233296
2309.773927762164 2257.0612247410654
2310.3606724108213 1978.837145885634
2310.9472752491274 1544.2908927736403
2311.5337363090184 1833.5029303855554
2312.120055622414 1839.0536908302379
2312.706233221221 1640.0622522510548
2313.2922691373424 1335.6923059381343
2313.8781634026564 1523.531571700835
2314.463916049037 1711.806411733874
2315.049527108342 2172.6713169104355
2315.6349966124235 2348.112361125678
2316.2203245931123 2006.339264200443
2316.8055110822315 1513.5582372749986
2317.3905561115935 1784.540653651537
2317.9754597129977 1649.2540587885803
2318.560221918229 1627.9253594825425
2319.1448427590603 1606.5837261234878
2319.729322267256 1684.831853889084
2320.313660474563 1577.2475944823605
2320.8978574127195 1843.0102872595326
2321.481913113452 2109.568192177043
2322.0658276084705 1630.3345980134552
2322.6496009294806 1732.8887584326628
2323.233233108165 1807.3002038973802
2323.8167241762058 1836.6505686798762
2324.4000741652617 2063.983993242765
2324.983283106987 2085.14422987116
2325.5663510330232 2133.0720994701196
2326.1492779749933 1896.294985951949
2326.7320639645204 2188.019295230598
2327.3147090332004 2387.2084183538173
2327.897213212629 2586.4478804215732
2328.4795765343843 1883.745835832832
2329.0617990300307 1475.8739909938085
2329.643880731124 1674.6807906643287
2330.22582166921 1873.8321203470678
2330.807621875816 1642.3565765243497
2331.3892813824623 1410.652146861035
2331.9708002206517 1562.9436976325972
2332.5521784218818 1740.2559652868033
2333.133416017634 1918.004255682706
2333.7145130393765 1664.7495093246948
2334.295469518571 2015.8047841185726
2334.876285486658 2079.405710797334
2335.456960975076 2152.5685546957493
2336.037496015242 2225.9322216237074
2336.6178906385667 1607.268846696011
2337.198144876451 1919.26059393428
2337.778258760278 1984.9843053210182
2338.3582323214214 1988.1720396415815
2338.938065591243 1991.3172645620139
2339.517758601087 1974.6126540701396
2340.0973113822965 1950.8996796593442
2340.676723966193 1864.9695445624616
2341.255996384094 1882.4191111175721
2341.835128667295 2115.9467318325537
2342.4141208470883 1868.9472474596591
2342.992972954751 1950.526030802202
2343.5716850215467 1921.2926618080546
2344.1502570787306 1360.902042596966
2344.7286891575386 1483.766780865021
2345.3069812892045 2103.983726325124
2345.885133504944 2142.196968179051
2346.4631458359618 1696.2578997577232
2347.04101831345 1420.347232836096
2347.6187509685915 1597.3205533076225
2348.196343832553 1638.4100087122358
2348.7737969364935 1827.925470659398
2349.351110311558 1498.95649197989
2349.9282839888765 1576.8468765256268
2350.5053179995757 1502.7496980933533
2351.0822123747585 1321.848102912643
2351.658967145526 1460.4342907142259
2352.2355823429643 1599.338873005239
2352.812057998144 1925.4796660438078
2353.3883941421263 1823.7224922340752
2353.9645908059647 1918.7877939765663
2354.540648020693 1838.0966614082845
2355.116565817336 1937.905102525542
2355.6923442269126 2037.9557154526326
2356.2679832804224 1937.7594214960584
2356.8434830088518 1800.1654481546598
2357.41884344318 1743.620453570717
2357.994064614377 2057.1443132649106
