#exp_cfg={"servo_angle": 0.0, "laser_lim": 100.0, "servo_angle_to": 18.0, "laser_wup": 0.0, "bt_dev": "EnSpectr-25AE3", "laser_wdn_max": 0.0, "frames": 10.0, "servo_used": 0, "servo_calib_use": 0, "laser_wdn_min": 0.0, "servo_pix_from": 90.0, "cooler_tout": 300.0, "servo_angle_from": 0.0, "servo_calib": "[-1.9174921013161362e-09, 3.9322238269163779e-05, -0.27385609119055809, 653.59552119713567]", "laser_autoctl": 0, "servo_pix_to": 3682.0, "laser_pw": 100.0, "cooler_on": 0, "laser_volt": 4.0, "cooler_autoctl": 0, "cooler_curr": 70.0, "cooler_startup": 10.0, "laser_fixed_pw": 0, "gain": 1.3, "offset": 2.53059635486, "servo_calib_degree": 3.0, "laser_curr": 55.0, "shutter": 8200.0, "servo_calib_step": 1.0, "laser_fixed_curr": 0, "exp": 2000.0, "ccd_volt": 4.7, "bt_addr": "00:06:66:62:5A:E3", "servo_delay": 500.0, "laser_autooff": 1}
#proc_cfg={"flat_auto_wnd": 200.0, "flat_auto_fr": 200.0, "flat_auto_shift": 5.0, "yconv": 1, "flatten": 1, "flatten_strength": 100.0, "xfrom": 300.0, "auto_max_frame": 2000.0, "auto_signal": 48000.0, "flat_auto_tol": 0.1, "autoclip": 1, "xrel_range": 0.0, "flat_auto_to": 4000.0, "intensity_adj": 1.0, "xrel": 7852.0, "rmhot": 1, "flat_auto_slit": 4.999999999999997, "auto_ini_exp": 300.0, "auto_off": 0, "xto": 2860.0, "flat_auto_ref": "", "flat_auto_rank": 1, "autobackg": 0, "xrel_adj": 0.0, "auto_black_lvl": 1, "base_wnd": 100.0, "sub_baseline": 0, "xconv": 2, "auto_max_exp": 1000.0, "auto_total_exp": 10000.0, "auto_exp": 0, "rmripple": 0, "black_lvl": 8285.25, "shutter_clip_adj": 0.0, "auto_bckg": 0, "flat_auto_thr": 0.9, "subbackg": 1}
316.8218498245369 9219.68387260043
317.89969571804795 9148.417597565156
318.977263876126 9231.75982724463
320.05455438786703 9079.697321698626
321.1315673423287 9093.775361718559
322.2083028285215 9206.702265552138
323.2847609354267 9095.753164745618
324.3609417519747 9073.822586331004
325.43684536705587 9002.406210273835
326.5124718695279 9109.20854053225
327.58782134820103 8974.248925352204
328.66289389184385 9088.126926029903
329.7376895891921 8958.611022679848
330.8122085289342 8963.735432687665
331.88645079971866 8953.533207785904
332.9604164901575 8899.891196214161
334.03410568881554 8874.410956269076
335.1075184842266 9012.570474005477
336.18065496487543 8811.610804389737
337.2535152192122 8877.065619618044
338.32609933564163 8887.613754355534
339.39840740253203 8913.465458720368
340.4704395082099 8791.965774073336
341.5421957409617 8756.104528130778
342.6136761890357 8853.945733962195
343.6848809406365 8701.161197209545
344.75581008392874 8676.640590319385
345.82646370703696 8648.945785156646
346.8968418980512 8683.327770181859
347.96694474501055 8730.486382783618
349.0367723359268 8607.982555181925
350.106324758759 8621.743303819976
351.1756021014353 8522.01900257771
352.2446044518383 8524.501953675026
353.31333189781435 8572.195016207477
354.38178452716966 8502.097051811903
355.449962427665 8552.345256698482
356.51786568702846 8503.723508283103
357.58549439294256 8561.173261488391
358.6528486330535 8578.93034524647
359.71992849496564 8492.834594913254
360.7867340662433 8576.218348452296
361.8532654344144 8533.912617866676
362.9195226869597 8552.541871851296
363.9855059113288 8486.106643657105
365.05121519492604 8365.041871337098
366.11665062511565 8467.837327565769
367.1818122892273 8428.592788392903
368.2467002745434 8428.483427368432
369.31131466831175 8386.153648783926
370.375655557742 8376.260334424074
371.4397230299983 8346.534472743992
372.5035171722102 8272.034218693081
373.5670380714637 8285.986713931805
374.6302858148101 8415.350009822236
375.6932604892554 8364.16173381553
376.7559621817709 8362.77672983587
377.81839097928605 8234.284178628952
378.8805469686886 8265.713044156673
379.94243023683157 8280.692452439931
381.0040408705263 8232.929623853204
382.0653789565458 8114.469561801519
383.1264445816196 8165.4917133638155
384.1872378324406 8116.328778815245
385.2477587956637 8169.724578981625
386.3080075579037 8163.20567159356
387.3679842057336 8012.7146041979595
388.4276888256918 8129.0741660054555
389.48712150426945 8081.124874106984
390.54628232792857 8122.7270069319475
391.6051713830857 8055.823599207875
392.66378875611736 8133.880980630629
393.7221345333637 7980.994970742102
394.7802088011249 8034.276857339124
395.838011645661 8119.281758403316
396.89554315319765 8090.161237646318
397.9528034099112 7938.561036152814
399.00979250194723 7989.970694742692
400.06651051541485 8036.45828452041
401.1229575363741 8172.614280565174
402.17913365085224 7926.226355758978
403.23503894483656 8069.28293303773
404.2906735042761 8018.375429874906
405.3460374150818 7885.70001139581
406.401130763119 7999.567878756144
407.455953634224 8061.503383110088
408.5105061141876 7919.077906993431
409.56478828876243 7893.38924651682
410.6188002436629 7921.8044043365135
411.6725420645689 7924.082392622942
412.72601383711117 7923.853677306889
413.77921564689314 8056.698564302923
414.8321475794728 7892.174818301608
415.88480972036814 7880.39337683423
416.93720215506437 7931.447622028524
417.9893249690049 7871.375461324586
419.04117824759123 7853.140295499188
420.09276207619223 7818.374779589521
421.144076540133 7837.466040398818
422.1951217247042 7814.904004156035
423.24589771515275 7893.761476052469
424.2964045966928 7843.3705064679425
425.34664245449494 7880.5006916328175
426.3966113736933 7790.690772126369
427.4463114393875 7732.484308045501
428.49574273662984 7755.477297216019
429.5449053504417 7671.503759945032
430.5937993658026 7796.814109775211
431.6424248676558 7727.263567728864
432.6907819409007 7669.910344101365
433.73887067040596 7771.825825799516
434.7866911409965 7776.050174023527
435.8342434374608 7660.622677711469
436.88152764455117 7698.018016191561
437.9285438469724 7689.753195732148
438.9752921294057 7640.912164171798
440.02177257648145 7651.744372214518
441.06798527279716 7616.501699867741
442.1139303029122 7783.285074727508
443.1596077513459 7820.866575734006
444.2050177025794 7658.744514540555
445.25016024105753 7687.86060107756
446.2950354511886 7610.885145492121
447.33964341733736 7714.8352514310845
448.383984223834 7658.543975620758
449.4280579549686 7609.327816830894
450.471864694995 7649.298688487174
451.5154045281306 7725.571243780981
452.5586775385509 7697.39318441367
453.60168381039693 7669.29242411339
454.64442342776783 7792.3510333587255
455.6868964747264 7734.113933322925
456.7291030353008 7671.5866648283845
457.77104319347563 7837.1213126524235
458.8127170332027 7714.246410705518
459.854124638392 7764.998188802447
460.895266092919 7806.403549205305
461.93614148061897 7818.509836049452
462.97675088529104 7865.720706093087
464.01709439069236 7873.7004783161365
465.0571720805492 7806.234508600361
466.0969840385442 7867.752691664527
467.1365303483253 7985.576812142036
468.17581109350067 7904.857512807599
469.2148263576437 7866.461534812608
470.2535762242878 7947.655323647074
471.29206077693016 7995.954407882213
472.33028009902773 8070.175331748293
473.3682342740012 7934.621566370677
474.40592338523857 7897.53218399567
475.4433475160804 7911.194130972277
476.4805067498364 7907.505155637553
477.51740116978 7819.232094873287
478.5540308591426 7874.389183097643
479.59039590112116 7950.447654629561
480.6264963788726 7793.054277824504
481.6623323755193 7735.084028171206
482.6979039741436 7785.80680735588
483.7332112577915 7793.9375285111455
484.76825430947247 7875.179364871963
485.80303321215797 7758.294483388386
486.837548048783 7786.501674441805
487.8717989022425 7793.452824497506
488.90578585539697 7843.1296332441
489.9395089910686 7876.379337762328
490.97296839203955 7788.717003723397
492.00616414106116 7613.669140052174
493.0390963208429 7735.4093977168595
494.0717650140559 7752.76504677085
495.10417030333883 7682.569546606175
496.1363122712901 7772.565499562634
497.16819100046814 7681.816586556849
498.1998065734024 7613.351565454318
499.2311590725767 7696.913796808003
500.26224858044407 7661.686663347214
501.2930751794156 7627.732565477422
502.3236389518679 7675.142273475976
503.35393998014115 7631.367085778767
504.38397834653733 7638.947721278008
505.4137541333221 7680.9592396395265
506.4432674227228 7610.717662926474
507.4725182969323 7585.63614478684
508.5015068381035 7551.925996863851
509.53023312835467 7598.04188309541
510.55869724976765 7495.422498923863
511.58689928438434 7488.560302737186
512.6148393142121 7462.003267955728
513.6425174212218 7597.239669436414
514.6699336873462 7523.498356506176
515.6970881944835 7576.338381397395
516.7239810244901 7500.608453443722
517.7506122591931 7585.494658168444
518.7769819803761 7548.884780210246
519.8030902697901 7645.541819610808
520.8289372091476 7554.173769661589
521.8545228801249 7778.764278757599
522.8798473643619 7636.440579553679
523.9049107434621 7649.830665193744
524.9297130989908 7743.1424361081345
525.9542545124805 7678.682178049118
526.9785350654201 7732.405016920537
528.0025548392696 7686.5894831744545
529.0263139154504 7647.772537351256
530.0498123753423 7744.763867587406
531.073050300296 7738.695482730419
532.0960277716204 7562.967415641669
533.1187448705896 7612.488977088241
534.1412016784416 7642.12315164407
535.1633982763833 7594.912702079496
536.1853347455726 7560.427989509541
537.2070111671401 7595.564504735621
538.2284276221817 7472.716464197486
539.2495841917516 7401.895410529776
540.2704809568677 7353.973277012308
541.2911179985167 7412.38926562216
542.3114953976419 7373.5626882686
543.3316132351592 7319.38813057964
544.3514715919409 7281.427278846619
545.3710705488247 7316.96270739869
546.3904101866156 7221.5854786252185
547.4094905860784 7228.865238651391
548.4283118279418 7257.8551034394695
549.4468739929034 7242.7788747398445
550.4651771616191 7209.163865967901
551.4832214147063 7101.536337006888
552.501006832761 7205.7777180646135
553.5185334963226 7134.526534437418
554.5358014859103 7223.727257648211
555.5528108820035 7176.445757382261
556.5695617650363 7148.9619143674545
557.5860542154242 7153.748612799454
558.6022883135283 7145.877996943406
559.6182641396881 7091.049731809313
560.6339817741991 7154.2863159587505
561.6494412973225 7197.861662784914
562.6646427892883 7217.453976432024
563.6795863302796 7093.123062063113
564.694272000459 7152.19427778006
565.7086998799423 7206.10899971272
566.7228700488104 7096.913995107097
567.7367825871115 7056.345909592977
568.7504375748576 7071.481418187783
569.7638350920224 7067.574806410305
570.7769752185486 7029.518851104423
571.7898580343353 7051.167674390652
572.802483619258 6918.871072512462
573.8148520531431 7132.029296963372
574.8269634157932 7024.990951678187
575.8388177869692 6899.548027779385
576.8504152463938 6961.94408310512
577.8617558737587 7010.277251504289
578.8728397487175 6882.907394422681
579.883666950891 6862.055654124881
580.8942375598654 6977.118000605908
581.9045516551851 7008.065478188444
582.9146093163617 7066.990933777784
583.924410622878 6888.201078426771
584.9339556541727 6908.801551750445
585.9432444896538 7024.488874143875
586.9522772086875 7005.837887190266
587.9610538906127 7051.372268102404
588.9695746147318 7037.928085264571
589.9778394603054 7031.4603573243585
590.985848506567 6987.9718476962735
591.9936018327098 6980.263253677802
593.0010995178891 6731.0013876159455
594.0083416412344 6971.755546066369
595.0153282818283 6851.293261269459
596.0220595187293 6913.516919478041
597.0285354309508 6860.556491865621
598.0347560974806 6901.026401819184
599.0407215972609 6883.630900794466
600.0464320092051 6865.663583386445
601.0518874121954 6892.544417457108
602.0570878850685 6822.677518242306
603.062033506636 6934.468987885171
604.0667243556636 6873.705932887094
605.0711605108936 6808.06687484891
606.0753420510264 7053.790156585713
607.0792690547278 6885.62934120721
608.082941600629 6816.9360067453135
609.0863597673306 6906.982213887904
610.0895236333909 6859.884049555498
611.0924332773357 7065.843123459024
612.0950887776617 6915.1526237650705
613.0974902128219 6906.215249470239
614.0996376612384 6990.210198559728
615.1015312013005 7088.049605765302
616.1031709113595 7112.960921634741
617.1045568697336 7043.602700374597
618.1056891547069 7048.097184090654
619.1065678445229 7080.072140895727
620.1071930173985 7232.864516516878
621.1075647515099 7224.706095618339
622.1076831250048 7120.062330166524
623.1075482159849 7167.331117976969
624.1071601025305 7132.518327568605
625.1065188626781 7093.914840378689
626.105624574433 7213.588604883982
627.1044773157682 7218.119889832191
628.1030771646128 7101.237251679209
629.1014241988742 7112.544607131454
630.0995184964158 7177.005234665172
631.0973601350688 7131.010064863096
632.0949491926294 7338.234168284277
633.0922857468631 7048.5959632582435
634.089369875499 7236.302199228138
635.0862016562278 7229.886682278289
636.0827811667077 6982.318950556682
637.0791084845641 7111.852794460805
638.0751836873878 7025.092297472412
639.0710068527369 7153.440648173941
640.0665780581294 7048.288476018007
641.0618973810506 7017.911283395739
642.0569648989604 7133.4864306246145
643.0517806892676 6951.82064063758
644.0463448293649 7112.39669771898
645.040657396592 7018.865211633255
646.0347184682723 6912.826039892015
647.0285281216875 6948.5169612736445
648.0220864340772 6889.756714163375
649.0153934826558 6890.923820166228
650.0084493446047 6874.689830549278
651.0012540970674 6941.2421625836
651.9938078171526 6824.663192525751
652.9861105819346 6797.183259312093
653.9781624684565 6904.1734256577665
654.9699635537254 6720.173100752659
655.9615139147136 6847.371494905214
656.9528136283589 6715.0015467463945
657.9438627715699 6888.405958135976
658.9346614212154 6884.572391366224
659.925209654135 6688.206253696837
660.9155075471263 6656.855772222423
661.9055551769616 6761.96134091238
662.895352620375 6910.556158554954
663.8848999540678 6829.126105577566
664.8741972547068 6674.0819780093225
665.863244598926 6617.190178463966
666.8520420633213 6682.102878034086
667.8405897244611 6611.087728632066
668.8288876588758 6550.899836633209
669.8169359430613 6644.665358120382
670.8047346534822 6672.484156660728
671.7922838665672 6552.892847914401
672.7795836587156 6675.698420551484
673.766634106285 6849.550265151966
674.7534352856092 6559.967477317575
675.7399872729766 6590.652342566906
676.7262901446538 6592.367428016294
677.712343976862 6607.965171191596
678.6981488457986 6627.440496568348
679.6837048276229 6485.555067753588
680.6690119984596 6578.042706229059
681.6540704344043 6524.517340387171
682.6388802115107 6570.814164817968
683.6234414058108 6567.029447714612
684.6077540932874 6538.587634124233
685.591818349907 6536.8428453541765
686.575634251587 6545.552089603908
687.5592018742263 6525.628950090182
688.5425212936734 6385.550420502962
689.5255925857564 6561.469050366817
690.5084158262707 6505.922278779223
691.4909910909646 6440.675181469089
692.4733184555644 6443.5897618155705
693.4553979957618 6516.673303896318
694.4372297872123 6565.257927979328
695.4188139055404 6519.594540558604
696.4001504263324 6391.146043560422
697.3812394251509 6557.066222775921
698.3620809775111 6403.769815237343
699.3426751589104 6459.486581723
700.3230220448004 6468.355281896975
701.3031217106054 6530.4968272620445
702.2829742317172 6754.562193507809
703.2625796834873 6516.5812673762175
704.2419381412474 6471.561752830752
705.22104968028 6632.611345140649
706.1999143758458 6542.223350319118
707.178532303169 6621.872210507298
708.1569035374378 6637.876116123082
709.1350281538107 6685.952653038173
710.1129062274158 6739.354523227058
711.0905378333373 6865.886953860159
712.0679230466376 6898.16712794261
713.0450619423427 7082.438951904529
714.0219545954424 7230.620094437657
714.9986010808989 7120.917416250626
715.9750014736292 7318.197953798369
716.9511558485392 7511.9746213010485
717.9270642804786 7627.149508484939
718.9027268442787 7680.1248231748905
719.8781436147328 7653.072189646821
720.8533146666014 7644.61035712836
721.828240074612 7694.090270490929
722.8029199134635 7584.451249381124
723.7773542578125 7515.132884674114
724.751543182294 7406.802307156395
725.7254867615029 7430.985869055932
726.6991850700015 7141.507834116877
727.6726381823228 7163.1578526538
728.6458461729599 7123.224238606272
729.6188091163858 6983.997720720928
730.5915270870246 6961.891142603165
731.5640001592856 6913.068996623842
732.536228407529 6889.259227424052
733.5082119060917 6946.038207110114
734.4799507292755 6894.976012396139
735.4514449513481 6843.687216361107
736.4226946465496 6938.451351840229
737.3936998890786 7020.489610117952
738.3644607531078 6762.166653755429
739.3349773127793 6816.43694046766
740.3052496421951 6887.41101517077
741.27527781543 6687.862342636565
742.2450619065221 6587.945511297528
743.2146019894826 6603.538692267888
744.183898138288 6570.525975301491
745.1529504268801 6521.588926249335
746.1217589291682 6346.361452596834
747.0903237190341 6424.220215540194
748.058644870318 6351.353485129648
749.0267224568397 6280.282645806442
749.994556552374 6214.134580260003
750.9621472306771 6262.698063811015
751.9294945654583 6231.708391410711
752.8965986304011 6264.851227678524
753.8634594991636 6163.809445744977
754.8300772453586 6249.150836031501
755.7964519425768 6235.368440339293
756.762583664371 6289.229265735585
757.7284724842611 6297.698463862182
758.6941184757416 6178.56673327502
759.6595217122667 6127.948123375296
760.6246822672638 6181.47190663158
761.5896002141235 6013.75199522665
762.5542756262093 6161.122010355073
763.5187085768503 6219.864472579133
764.4828991393406 6138.620907973865
765.4468473869474 6134.809498088409
766.4105533929032 6217.28914621767
767.3740172304078 6048.056907783592
768.3372389726283 6279.539949230578
769.3002186926988 6106.462885021544
770.2629564637282 6160.504186385122
771.2254523587872 6090.355634359457
772.1877064509154 6125.54294314814
773.1497188131179 5933.664503140781
774.1114895183728 5997.74909143699
775.0730186396268 6024.345421990458
776.0343062497905 6006.033660060377
776.9953524217381 5949.7113083806125
777.9561572283274 6054.4580830847
778.9167207423689 6018.973456034743
779.8770430366476 6000.422020240123
780.8371241839159 5964.746758793426
781.7969642568951 5996.821992093945
782.7565633282757 6152.719156618769
783.7159214707099 5961.310300412378
784.6750387568281 6070.685844208034
785.6339152592227 5905.226260301629
786.5925510504512 5937.745447786047
787.5509462030477 6044.320286046312
788.5091007895098 5944.537725483284
789.4670148823006 5910.920612247616
790.4246885538596 5920.282465209646
791.3821218765861 5990.244296343055
792.3393149228505 5845.077054473183
793.2962677649975 5987.140594356182
794.2529804753303 5931.315169263489
795.20945312613 5994.060519070408
796.1656857896378 5877.181466751119
797.1216785380675 5736.291840286977
798.0774314435985 5889.059680022186
799.0329445783846 6025.9409762147125
799.9882180145414 5920.5826961172
800.9432518241574 5854.416060851301
801.89804607929 5963.52465361639
802.852600851962 5967.26455383508
803.8069162141637 5877.63392260354
804.760992237856 5924.82819529651
805.714828994971 5987.679186037993
806.6684265574077 6071.322994274566
807.6217849970271 5903.656493840958
808.574904385674 5884.594017774461
809.527784795142 6029.480173440698
810.4804262972102 6135.165310790551
811.4328289636178 5951.514715128492
812.3849928660748 5851.1729262210265
813.3369180762638 5837.019250310555
814.2886046658241 5998.044414698618
815.2400527063783 5819.17052509045
816.1912622695108 5892.9039328808185
817.1422334267718 5959.5303754536335
818.0929662496856 5857.986197363241
819.0434608097457 5748.0275801355565
819.9937171784059 5851.220035926728
820.9437354271013 5850.585961654329
821.8935156272255 5980.243361381165
822.8430578501484 5805.602923496481
823.7923621672016 5690.786755223312
824.7414286496896 5790.5896528850535
825.6902573688876 5825.498055560076
826.6388483960363 5766.913989367341
827.5872018023492 5756.828363206618
828.5353176590033 5828.144015719402
829.4831960371503 5751.954148860428
830.4308370079016 5676.702012644188
831.3782406423525 5753.780166953142
832.3254070115545 5807.282767850579
833.2723361865319 5680.614861986176
834.2190282382799 5603.6519227396075
835.1654832377644 5701.5893572550085
836.1117012559116 5677.24168542995
837.0576823636256 5843.607409147142
838.003426631778 5652.432483206465
838.9489341312074 5604.34735039195
839.8942049327197 5802.043670236067
840.8392391070975 5763.327777517552
841.7840367250865 5725.70668449534
842.7285978573982 5644.464416903919
843.672922574724 5753.064713833569
844.6170109477152 5711.75163347146
845.560863046996 5686.448322006158
846.5044789431595 5694.56759726428
847.4478587067697 5606.095036718876
848.3910024083561 5855.857502202513
849.333910118421 5714.008645538688
850.2765819074339 5600.421763865865
851.2190178458332 5755.053722276444
852.161218004032 5849.5309172729
853.1031824524016 5740.5495448213105
854.0449112612987 5717.479127379507
854.9864045010327 5765.32317313505
855.9276622418947 5710.437980921245
856.8686845541379 5643.01716051802
857.8094715079915 5678.716150322355
858.7500231736467 5810.990847122456
859.690339621271 5698.3332105041345
860.6304209209939 5701.278101771283
861.5702671429244 5597.83601443731
862.5098783571284 5693.08969892502
863.4492546336569 5646.134449227805
864.3883960425155 5615.722615800273
865.3273026536863 5574.683341893786
866.2659745371238 5506.235016535473
867.2044117627465 5661.789772919296
868.1426144004472 5448.162063813905
869.0805825200823 5589.409482687579
870.0183161914847 5584.942329990749
870.9558154844526 5647.660206602116
871.8930804687552 5619.525863234064
872.8301112141307 5462.49605016428
873.7669077902865 5556.410989168825
874.7034702669062 5711.352811079837
875.6397987136315 5574.30005404303
876.5758932000863 5579.06498370066
877.5117537958522 5633.697717212257
878.4473805704911 5517.1497225863295
879.3827735935283 5515.0115699319895
880.3179329344603 5688.361122964751
881.2528586627541 5696.467864264565
882.1875508478479 5724.759249938155
883.1220095591489 5639.496126957874
884.0562348660296 5587.811979611806
884.9902268378391 5721.834107641443
885.9239855438955 5637.466408907274
886.8575110534839 5544.369097412275
887.7908034358588 5652.09738960391
888.7238627602474 5616.0087810841305
889.6566890958475 5650.536437401968
890.5892825118208 5505.4172932567435
891.5216430773125 5622.462821301744
892.4537708614189 5634.7702680897255
893.3856659332196 5486.175488498654
894.3173283617652 5507.808080991494
895.2487582160684 5669.756343128819
896.179955565116 5523.196547269077
897.110920477864 5489.761189635879
898.0416530232451 5502.350023814355
898.9721532701478 5459.247005205355
899.9024212874428 5590.70863391853
900.8324571439662 5436.602105351003
901.7622609085302 5475.254914265401
902.6918326499072 5377.022851051112
903.6211724368477 5574.79557201025
904.5502803380696 5615.340790793109
905.4791564222614 5648.904654261221
906.4078007580792 5483.648300022243
907.3362134141571 5442.295634821651
908.2643944590909 5615.343102847236
909.1923439614493 5481.15563229592
910.1200619897754 5540.249626217613
911.0475486125779 5667.521915346142
911.9748038983344 5546.885390508997
912.9018279155007 5484.297850010685
913.8286207324982 5392.352999965003
914.7551824177117 5505.085796237843
915.6815130395116 5417.661602362305
916.6076126662283 5413.319929348163
917.533481366163 5442.210852788558
918.4591192075914 5501.717295225299
919.3845262587565 5506.494462203412
920.3097025878706 5387.047807591867
921.2346482631237 5399.436915016993
922.1593633526682 5432.987593508463
923.0838479246304 5508.904334167481
924.0081020471061 5611.466884123924
924.9321257881656 5325.076940709612
925.8559192158464 5404.649597404671
926.7794823981512 5369.717455943597
927.7028154030686 5311.311615982106
928.6259182985414 5245.325817858977
929.5487911524906 5465.3193354637915
930.4714340328119 5479.3074670128935
931.3938470073608 5276.913910387638
932.3160301439748 5317.675766521161
933.2379835104548 5371.675474875302
934.1597071745709 5502.907141115965
935.0812012040769 5387.848913415719
936.002465666681 5501.464852976773
936.9235006300696 5507.552907654823
937.8443061619055 5454.437072123634
938.7648823298077 5279.219623897124
939.6852292013809 5333.519455635495
940.6053468441951 5473.322377625263
941.5252353257874 5230.01673117812
942.4448947136698 5313.409333258821
943.364325075323 5361.075859904203
944.2835264782043 5407.856160339375
945.2024989897309 5364.093046761591
946.1212426773054 5372.951959483937
947.0397576082851 5433.247437691318
947.9580438500125 5473.209821282698
948.8761014697939 5541.885270407503
949.7939305349064 5566.579764806052
950.7115311125999 5423.27336369074
951.6289032700952 5405.279336445912
952.5460470745875 5508.219924322801
953.4629625932339 5362.3787137279305
954.3796498931715 5469.346277282093
955.2961090415029 5519.858915173818
956.2123401053068 5474.380789799493
957.1283431516276 5460.136096894286
958.0441182474842 5384.386870918575
958.9596654598663 5545.380770276841
959.8749848557309 5470.673554773244
960.7900765020167 5353.167857624265
961.7049404656209 5333.011948329664
962.6195768134185 5395.608145500178
963.5339856122537 5411.193779662436
964.4481669289453 5439.662512960588
965.3621208302793 5379.310902439145
966.2758473830145 5368.465732364583
967.1893466538822 5529.151858656793
968.1026187095813 5317.853314988834
969.0156636167867 5350.392007395183
969.9284814421426 5451.421463438118
970.8410722522622 5411.387846972208
971.753436113735 5350.198000909386
972.6655730931161 5278.827862227777
973.5774832569368 5409.117242184236
974.4891666716958 5321.682487545813
975.4006234038698 5245.019776701422
976.3118535198955 5271.485297913283
977.2228570861935 5418.7981497053715
978.1336341691494 5411.525638556078
979.0441848351202 5198.857478353402
979.9545091504333 5439.468342919703
980.864607181391 5354.694213299237
981.7744789942699 5365.373489625841
982.6841246553086 5318.44554114149
983.5935442307236 5368.932583074248
984.5027377867027 5462.477163122473
985.4117053894024 5412.409420626077
986.3204471049557 5321.7387793642765
987.2289629994648 5374.6187896155625
988.1372531390007 5493.020332695397
989.0453175896091 5343.402850359098
989.9531564173067 5417.646425987999
990.860769688079 5305.9023504242605
991.7681574678918 5334.123658473977
992.6753198226706 5420.002234279149
993.582256818323 5389.305578157107
994.4889685207218 5298.893497196383
995.3954549957143 5564.50235642864
996.301716309119 5490.110140145278
997.2077525267232 5351.72438300009
998.1135637142943 5346.120968845532
999.0191499375615 5486.195291546147
999.924511262232 5524.63711870285
1000.8296477539861 5486.608230150371
1001.7345594784656 5362.624802561038
1002.6392465012996 5348.246541162234
1003.5437088880753 5482.587138184144
1004.4479467043584 5394.625238924206
1005.3519600156869 5278.582523887177
1006.2557488875718 5394.0243372030545
1007.1593133854858 5354.169735364871
1008.0626535748888 5282.642681736029
1008.9657695212009 5195.947715370488
1009.8686612898182 5522.443898197294
1010.7713289461135 5419.474740856886
1011.6737725554212 5295.320954437248
1012.5759921830577 5259.202111944904
1013.4779878943027 5337.290133382658
1014.379759754418 5440.408237461163
1015.2813078286254 5250.185128805926
1016.18263218213 5207.771861760107
1017.0837328801026 5218.329804434141
1017.9846099876886 5413.955125271831
1018.8852635700023 5274.881162772417
1019.7856936921362 5202.659958387108
1020.6859004191447 5454.361685217328
1021.5858838160675 5236.285338793307
1022.4856439479063 5152.553231918888
1023.3851808796389 5180.053651117115
1024.2844946762143 5324.779406646232
1025.183585402554 5371.200317080633
1026.082453123554 5121.204022405263
1026.9810979040776 5251.143563151861
1027.8795198089647 5103.5180256844305
1028.777718903024 5179.991079879468
1029.6756952510368 5161.920531500271
1030.5734489177648 5213.19401231847
1031.4709799679313 5163.259608797882
1032.3682884662358 5416.29393579115
1033.2653744773506 5058.42632331187
1034.1622380659192 5151.403574970511
1035.058879296559 5232.672509879876
1035.9552982338591 5307.512228695694
1036.8514949423825 5170.664462990991
1037.7474694866614 5181.7698869034475
1038.6432219312028 5123.443100517228
1039.5387523404825 5334.089756046985
1040.4340607789582 5103.5414829355395
1041.3291473110476 5103.657044573219
1042.2240120011465 5192.15100413998
1043.1186549136273 5236.3164102187275
1044.0130761128294 5127.3350982038155
1044.9072756630649 5119.88987993279
1045.8012536286205 5235.740851252112
1046.6950100737577 5155.387320001904
1047.588545062701 5168.809756580279
1048.481858659663 5204.834396074547
1049.3749509288118 5266.577243704316
1050.2678219343034 5194.848408129756
1051.1604717402515 5209.111498925768
1052.0529004107575 5155.832627120532
1052.9451080098825 5229.752437138448
1053.8370946016694 5258.373372251252
1054.7288602501267 5200.837524416356
1055.6204050192446 5251.155892851759
1056.511728972977 5259.415600144559
1057.402832175254 5317.5323299496595
1058.2937146899785 5148.791879045051
1059.1843765810263 5237.246303474346
1060.0748179122456 5338.320004555104
1060.9650387474576 5252.424706708029
1061.855039150456 5278.397341369411
1062.7448191850071 5248.654629110751
1063.6343789148505 5320.923973274936
1064.5237184037014 5415.57727126474
1065.412837715241 5289.437536915997
1066.3017369131267 5257.381435171485
1067.190416060992 5249.380617905951
1068.0788752224398 5131.782445407736
1068.9671144610438 5113.901769024002
1069.8551338403558 5218.8218976063035
1070.7429334239023 5262.963851218653
1071.6305132751695 5136.65171637918
1072.517873457633 5239.444084308301
1073.4050140347335 5105.069230631324
1074.2919350698776 5155.2915845729685
1075.1786366264623 5229.085101967745
1076.0651187678395 5155.448327844686
1076.95138155735 5076.81621899791
1077.8374250582929 5101.314137861351
1078.7232493339507 5247.411075420371
1079.608854447577 5123.154800925242
1080.4942404623907 5106.877179198184
1081.3794074415982 5183.220138101474
1082.2643554483657 5194.288804980945
1083.149084545841 5170.3907184028885
1084.033594797138 5122.723384206954
1084.9178862653516 5159.522259186326
1085.8019590135427 5316.924821016475
1086.6858131047484 5123.131062390965
1087.5694486019802 5273.172287845973
1088.4528655682225 5270.723925220073
1089.3360640664287 5440.900048614067
1090.2190441595321 5422.646805167575
1091.1018059104317 5317.400138694874
1091.98434938201 5412.988788914289
1092.866674637111 5551.62285421865
1093.748781738559 5439.576977569647
1094.6306707491512 5218.34865892209
1095.5123417316554 5448.316480934637
1096.3937947488157 5314.543988461472
1097.2750298633455 5280.894398159445
1098.156047137938 5287.918765236652
1099.0368466352556 5290.581999271936
1099.9174284179317 5477.091451694355
1100.7977925485757 5138.464140803115
1101.6779390897755 5202.016202749981
1102.5578681040806 5210.058444035726
1103.4375796540226 5185.020610481924
1104.3170738021054 5122.370991858884
1105.1963506108077 5032.3585969106625
1106.0754101425773 5037.970453897027
1106.9542524598382 5107.545165525304
1107.8328776249855 4983.4238138223145
1108.7112857003904 4897.8993258795845
1109.5894767483987 4973.927945060826
1110.4674508313292 5075.464463652219
1111.3452080114657 4916.265539506785
1112.2227483510815 5045.14340090151
1113.1000719124077 4982.173360428709
1113.9771787576592 5047.158281775081
1114.854068949022 4935.8392950077405
1115.7307425486542 5026.67070291506
1116.6071996186893 5064.7230444925335
1117.483440221229 5156.854350955387
1118.3594644183577 4868.999134507928
1119.235272272128 4922.070877854383
1120.1108638445658 5090.140714437134
1120.9862391976712 5218.296771747136
1121.8613983934229 5048.701456927337
1122.7363414937627 5043.411748030606
1123.6110685606182 5006.099260520213
1124.485579655884 5166.528423324107
1125.359874841426 5007.029613178982
1126.2339541790916 4985.365874106949
1127.1078177306936 5294.946074173529
1127.9814655580267 4988.8621169346225
1128.854897722851 5066.88726620333
1129.7281142869106 4939.363847410676
1130.6011153119125 5031.115297639268
1131.473900859548 5179.4892000239
1132.3464709914697 4992.448230125049
1133.2188257693178 5013.685941575298
1134.0909652546961 4946.670654433699
1134.96288950919 4863.432386314821
1135.8345985943506 5075.416980142936
1136.7060925717087 4815.578776519396
1137.57737150277 4963.252297359855
1138.4484354490069 5073.286531410632
1139.3192844718778 4880.800537304716
1140.1899186327992 4679.335901192249
1141.060337993178 4950.693456880407
1141.930542614382 4839.000930707001
1142.8005325577597 4884.970909649963
1143.670307884635 4775.270855310182
1144.5398686563003 5000.7879517814345
1145.409214934025 4901.941785447076
1146.2783467790541 4779.913467798111
1147.1472642526023 4842.85259828074
1148.0159674158622 4919.60802161811
1148.8844563300026 4749.586909421029
1149.7527310561618 4701.556306340643
1150.6207916554504 4750.45628232562
1151.4886381889592 4694.098636946406
1152.3562707177498 4896.688933991522
1153.2236893028585 4743.899091961769
1154.090894005296 4669.578747209506
1154.9578848860474 4726.175836399336
1155.8246620060709 4737.253442886067
1156.6912254262988 4608.0341190678755
1157.5575752076438 4638.993329712135
1158.42371141098 4804.516805202698
1159.2896340971656 4826.036501909342
1160.1553433270346 4673.567000356938
1161.0208391613887 4749.192024263541
1161.8861216610057 4825.2207806407405
1162.75119088664 4750.106333175876
1163.6160468990201 4695.673275045285
1164.4806897588442 4635.831660197604
1165.3451195267917 4897.14488372461
1166.2093362635114 4823.966772112675
1167.0733400296285 4708.190161147123
1167.9371308857444 4709.320124308074
1168.8007088924278 4680.200150740069
1169.6640741102328 4787.585962631294
1170.5272265996773 4702.470385062249
1171.390166421259 4628.646906296051
1172.252893635452 4774.943524994103
1173.1154083026995 4921.514950274124
1173.977710483421 4827.511674388292
1174.8398002380145 4702.945256097035
1175.7016776268483 4781.809973226536
1176.563342710264 4818.657645754339
1177.4247955485826 4667.1466319527335
1178.2860362020947 4868.614436862509
1179.147064731069 4613.782134679423
1180.0078811957483 4885.302685755048
1180.8684856563486 4798.010773602304
1181.7288781730604 4750.450286016697
1182.589058806052 4776.383244921295
1183.4490276154593 4948.531204651472
1184.3087846614017 4809.14036060983
1185.1683300039676 4889.011280342796
1186.027663703222 5005.357108573254
1186.8867858192025 4880.526506633532
1187.7456964119228 4878.936333856245
1188.6043955413716 4886.311645782832
1189.4628832675116 5002.678190745448
1190.3211596502842 5091.6464592862185
1191.179224749596 5023.076944410841
1192.0370786253388 4841.201579529035
1192.8947213373758 5160.26003749309
1193.7521529455407 5100.219130458059
1194.6093735096438 4811.644823574052
1195.466383089477 4947.441619954499
1196.3231817447977 4898.370407392156
1197.1797695353398 5087.360113462002
1198.0361465208189 4788.993951124021
1198.8923127609214 4798.776657059171
1199.7482683153048 4934.135326061731
1200.6040132436028 4996.899444274668
1201.459547605431 4867.674017973111
1202.3148714603722 4949.489368166236
1203.1699848679855 4997.903723887904
1204.0248878878065 5048.850627074693
1204.8795805793507 4780.9832317722485
1205.7340630020935 4893.172948562567
1206.5883352155033 4995.445068600311
1207.4423972790064 5004.764062758051
1208.2962492520237 4785.7339513696015
1209.1498911939307 4885.240344820742
1210.0033231640937 4908.156770028789
1210.8565452218427 4915.7637421695
1211.7095574264913 4667.629829921644
1212.5623598373222 4832.594001460485
1213.4149525135963 4811.662052965812
1214.2673355145507 4774.021985927595
1215.1195088993936 4701.666636125327
1215.9714727273113 4773.988000719942
1216.8232270574663 4897.52708637302
1217.6747719489904 4622.970115341594
1218.5261074609934 4587.18413235868
1219.3772336525653 4751.136219561664
1220.2281505827668 4765.244049264321
1221.0788583106296 4945.192910297972
1221.9293568951707 4608.209833032239
1222.7796463953746 4473.789182185461
1223.629726870202 4672.954613090158
1224.4795983785934 4735.688836211288
1225.3292609794553 4649.066171849603
1226.1787147316809 4583.045005607334
1227.0279596941327 4658.672518082962
1227.8769959256424 4536.360228949326
1228.7258234850306 4704.757250630684
1229.5744424310833 4496.1463769798775
1230.422852822563 4729.215709534003
1231.2710547182105 4851.620669613081
1232.119048176739 4645.2663011636605
1232.9668332568417 4364.243777429949
1233.8144100171812 4618.103138182512
1234.6617785163999 4627.779283387534
1235.508938813111 4395.771487731853
1236.3558909659114 4534.81712545562
1237.2026350333617 4658.249054637292
1238.049171074008 4640.897746729891
1238.8954991463652 4499.070000699687
1239.741619308932 4505.494793233773
1240.587531620169 4547.727170023863
1241.4332361385277 4588.871698242852
1242.2787329224248 4427.200421837157
1243.1240220302534 4402.19723069468
1243.9691035203869 4387.973720067655
1244.813977451171 4604.212920584285
1245.6586438809263 4497.146490137489
1246.5031028679496 4291.132111404769
1247.3473544705157 4594.234916073683
1248.1913987468706 4547.477069461887
1249.0352357552383 4304.803799625215
1249.8788655538228 4453.562051173323
1250.7222882007918 4534.053877883689
1251.565503754302 4577.213885343578
1252.4085122724755 4293.7054506339655
1253.2513138134182 4591.661562468302
1254.0939084352049 4521.346809700538
1254.9362961958905 4442.569486647169
1255.7784771535007 4485.859536277719
1256.6204513660432 4510.709896217273
1257.4622188915 4704.297326726284
1258.3037797878242 4479.333813259154
1259.1451341129468 4406.318601049896
1259.9862819247755 4589.48735421222
1260.8272232811978 4546.615619113991
1261.6679582400666 4788.120049882347
1262.5084868592203 4433.953388382341
1263.34880919647 4456.475580130707
1264.1889253095997 4515.665604190294
1265.0288352563712 4661.425719720684
1265.8685390945266 4499.470950906303
1266.7080368817751 4654.898131615972
1267.5473286758115 4728.131006613818
1268.386414534294 4696.485588162013
1269.2252945148703 4454.117099612173
1270.0639686751547 4521.105457973913
1270.9024370727402 4517.056658515768
1271.7406997651997 4520.349232076407
1272.5787568100714 4452.736149096292
1273.4166082648808 4431.597442248053
1274.2542541871244 4565.285517601398
1275.091694634275 4768.991455869195
1275.9289296637817 4374.26993150555
1276.7659593330663 4504.2396721128625
1277.6027836995308 4522.044755449282
1278.4394028205552 4649.009631258942
1279.2758167534867 4506.237918411276
1280.112025555658 4525.021767487238
1280.9480292843746 4555.421660287934
1281.7838279969128 4371.1380160914105
1282.6194217505326 4482.108135928614
1283.4548106024686 4271.618757497918
1284.289994609926 4365.190946625714
1285.1249738300921 4510.179591801151
1285.959748320127 4439.327578603099
1286.7943181371702 4456.341470123266
1287.6286833383328 4387.88457226576
1288.4628439807038 4477.410500449923
1289.2968001213521 4453.4442431230145
1290.1305518173194 4539.729040517218
1290.9640991256183 4563.771243293127
1291.7974421032523 4409.91696759472
1292.630580807183 4393.905590828668
1293.463515294361 4512.201693143909
1294.29624562171 4635.609721772812
1295.12877184613 4488.477353954658
1295.961094024493 4480.269631269712
1296.79321221365 4543.680229430742
1297.6251264704333 4568.138326810198
1298.4568368516466 4788.654609978514
1299.2883434140658 4620.164647047827
1300.1196462144526 4403.271487226639
1300.9507453095375 4676.936094049464
1301.7816407560313 4641.608677549042
1302.6123326106172 4545.565403681934
1303.4428209299622 4452.836656413184
1304.2731057707024 4748.085702108778
1305.1031871894502 4613.940852928886
1305.933065242798 4645.23456243642
1306.7627399873181 4578.07382481054
1307.5922114795467 4925.823282582414
1308.4214797760123 5085.375569407041
1309.2505449332057 4604.776168146014
1310.0794070076026 4660.7796647812775
1310.9080660556538 4782.987710104802
1311.736522133786 4842.974852275128
1312.5647752983987 4614.932213507725
1313.3928256058734 4501.638542207555
1314.2206731125661 4728.8897985928015
1315.048317874809 4738.333903604695
1315.8757599489109 4657.580091979593
1316.7029993911547 4583.782539663689
1317.5300362578055 4792.100804590594
1318.356870605101 4612.803472195666
1319.183502489257 4626.942091847843
1320.0099319664623 4771.7317689017345
1320.836159092889 4806.500018290551
1321.66218392468 4852.1081208248015
1322.4880065179532 4599.183080694111
1323.3136269288134 4772.405794529648
1324.1390452133292 4904.893409541245
1324.9642614275563 4945.11704052835
1325.7892756275214 4722.190904902363
1326.6140878692295 4730.655846045011
1327.4386982086617 5172.560450532858
1328.2631067017755 4826.8244749343085
1329.0873134045069 4828.2188388178165
1329.911318372764 4713.284254299082
1330.735121662441 4846.614328831665
1331.558723329399 4665.524146941496
1332.3821234294774 4725.333470307297
1333.2053220185007 4698.981071403062
1334.0283191522612 4656.643021686358
1334.851114886529 4685.6131355996695
1335.6737092770582 4508.732418359157
1336.4961023795695 4612.31921754939
1337.3182942497697 4486.305148533774
1338.1402849433325 4515.141046407856
1338.962074515921 4447.84988623592
1339.7836630231632 4371.8001758456785
1340.6050505206676 4843.965852453242
1341.426237064028 4703.191001993903
1342.2472227088037 4438.2404744754385
1343.0680075105338 4429.809285817895
1343.888591524741 4443.083637097002
1344.7089748069138 4596.16231725369
1345.5291574125276 4411.625702476595
1346.3491393970307 4301.465820102974
1347.168920815846 4544.01526835975
1347.9885017243778 4550.590033434246
1348.8078821780036 4314.400017658273
1349.6270622320844 4408.597636654113
1350.4460419419447 4371.710207836567
1351.2648213629054 4409.733590328723
1352.0834005502438 4187.6964943172525
1352.90177955923 4282.008844361813
1353.7199584451064 4412.023326974066
1354.5379372630887 4372.5514505474
1355.355716068374 4258.385813355796
1356.1732949161305 4215.866858518634
1356.9906738615155 4317.437192195824
1357.8078529596478 4324.983263656172
1358.6248322656375 4358.396679085332
1359.441611834567 4215.010940794374
1360.2581917214866 4329.548550051477
1361.0745719814367 4189.135289483061
1361.890752669433 4157.4702234889355
1362.7067338404577 4057.6606664811466
1363.5225155494845 4311.679758465819
1364.3380978514506 4372.707232859107
1365.1534808012839 4011.272963067745
1365.9686644538815 3943.836157104916
1366.783648864117 4286.101316005876
1367.5984340868417 4281.633799320327
1368.413020176893 4203.292228358931
1369.2274071890715 3931.9759649384405
1370.0415951781652 4284.827729860821
1370.8555841989346 4123.937879246823
1371.6693743061223 3900.970734505012
1372.48296555444 3903.792626799085
1373.2963579985844 4140.309799184741
1374.1095516932255 4120.236515513392
1374.9225466930166 3850.1040147033773
1375.7353430525782 4043.237750674011
1376.5479408265164 3939.885175114866
1377.36034006941 4018.5548489160587
1378.1725408358216 4115.517346262377
1378.9845431802805 3816.955920812778
1379.796347157304 4287.350913383283
1380.6079528213813 4182.849116654055
1381.4193602269788 3911.0987519675227
1382.230569428546 3792.8293716304893
1383.0415804805016 4118.441344496505
1383.852393437246 4101.011332780092
1384.6630083531563 4015.381078123776
1385.4734252825892 3844.2020951091463
1386.2836442798798 4032.9190415031817
1387.0936653993322 3988.368010200217
1387.9034886952395 3946.9224092873724
1388.713114221864 3996.865256277362
1389.5225420334482 4118.9664139608
1390.331772184214 3926.929198512897
1391.1408047283585 3754.0626740344414
1391.9496397200564 3967.715247691742
1392.758277213461 3965.6508383505816
1393.5667172627054 4193.491531470887
1394.3749599218918 3818.72980557434
1395.1830052451114 3684.5645411963865
1395.9908532864265 3905.870946845487
1396.7985040998774 4054.307511050259
1397.6059577394808 3813.4406118262814
1398.4132142592352 3822.928269924495
1399.2202737131156 3828.7193657953453
1400.027136155073 3979.2579723681447
1400.8338016390353 3797.570788661074
1401.6402702189134 3814.421300236737
1402.446541948586 3917.400587881646
1403.2526168819204 3790.7844649808453
1404.058495072757 3714.855945732328
1404.8641765749107 3839.1860077511933
1405.6696614421799 3844.127232138149
1406.4749497283356 4303.038882076552
1407.280041487129 3749.2351146917076
1408.084936772295 3717.3291724120254
1408.8896356375335 4080.405835682885
1409.6941381365323 4049.124141336661
1410.498444322955 3775.23045696213
1411.3025542504402 3884.5215658806133
1412.106467972606 3953.515691009858
1412.9101855430508 3989.796676402326
1413.7137070153458 3651.3528741709206
1414.5170324430437 3937.827821075573
1415.320161879672 4057.3873567648234
1416.1230953787435 4242.113266688809
1416.925832993742 3906.6845697217877
1417.7283747781275 3787.526417296785
1418.5307207853439 4109.148248017777
1419.3328710688093 4042.9090255954447
1420.134825681922 3733.548036596967
1420.9365846780584 3763.511712103789
1421.7381481105713 4145.429213790755
1422.539516032788 4005.830446234838
1423.3406884980232 3863.358507677806
1424.1416655595604 3818.0949566254594
1424.942447270665 3999.5256422651523
1425.7430336845828 4092.09691563644
1426.5434248545298 3852.0163847777667
1427.3436208337116 4092.0255446444085
1428.143621675301 4024.725369992854
1428.9434274324558 4209.858649662952
1429.7430381583108 3911.4829162062933
1430.5424539059713 3990.8262046672126
1431.3416747285337 4427.196899577121
1432.1407006790632 4160.278557036623
1432.9395318106053 4118.0303229080055
1433.7381681761835 3912.7353810162813
1434.5366098288014 4221.55231351666
1435.3348568214424 4238.258361857682
1436.1329092070573 3998.718729980695
1436.9307670385879 4059.1631665584055
1437.7284303689503 4210.336853399499
1438.5258992510335 4330.090755124923
1439.3231737377118 4250.980188125299
1440.1202538818306 4121.293949635915
1440.9171397362225 4205.959153201475
1441.7138313536925 4198.124456623292
1442.5103287870243 4075.765337857911
1443.3066320889775 3976.535095513914
1444.1027413122956 4294.71801057429
1444.8986565096966 4092.3462550833333
1445.694377733882 4128.152559025068
1446.4899050375207 3962.6251190211296
1447.2852384732687 4046.7183905142992
1448.0803780937622 4085.9618880838816
1448.8753239516063 3936.558443884711
1449.6700760993954 3786.7450765541907
1450.464634589689 3924.9925942561654
1451.2589994750397 4272.495107418227
1452.0531708079689 3862.856306154759
1452.8471486409799 3747.394104250059
1453.6409330265524 4113.835941400441
1454.4345240171442 3771.2255168356496
1455.2279216651987 3844.9985033903417
1456.0211260231263 3772.5074427134396
1456.8141371433194 3928.6735008567366
1457.6069550781594 4101.3389411311955
1458.3995798799897 3657.316275396337
1459.1920116011424 3711.155248944286
1459.98425029393 3561.8040203284663
1460.7762960106338 3698.716716586054
1461.5681488035225 3672.9150288259866
1462.3598087248392 3799.4806089334124
1463.1512758268036 3923.8209567630743
1463.942550161617 3691.5837510454307
1464.7336317814625 3513.835421674978
1465.524520738496 3723.9478157223675
1466.3152170848552 3582.7813121126696
1467.1057208726506 3766.9128805776418
1467.8960321539817 3567.032993723272
1468.6861509809169 3489.6495414655037
1469.4760774055085 3502.1684367705107
1470.265811479785 3689.6520214137354
1471.055353255755 3437.623254844031
1471.844702785409 3421.547609749603
1472.6338601207044 3465.282920915329
1473.4228253135934 3652.3469560086364
1474.2115984159936 3375.9696119161986
1475.0001794798063 3261.659162525223
1475.7885685569145 3568.929833120043
1476.576765699172 3402.0481751503603
1477.3647709584238 3297.984510003577
1478.1525843864802 3655.6133165549895
1478.9402060351367 3572.026748286872
1479.7276359561693 3504.053809388982
1480.514874201328 3251.0564252906815
1481.3019208223468 3213.175150386943
1482.0887758709323 3162.1729166083383
1482.8754393987747 3478.173976823352
1483.6619114575406 3187.1332309043255
1484.4481920988783 3198.242017788937
1485.2342813744108 3328.4614631008217
1486.0201793357446 3543.6401835972356
1486.8058860344572 3156.3557263595826
1487.591401522117 3179.119523949589
1488.3767258502594 3204.352860260518
1489.1618590704056 3276.574383108016
1489.9468012340494 2923.3883666956285
1490.7315523926754 3300.6017463191797
1491.5161125977356 3300.382546230257
1492.3004819006637 3346.542310765881
1493.084660352877 3106.6819279568804
1493.8686480057622 3206.3130336795557
1494.6524449106964 3444.4201451291287
1495.4360511190262 3511.4691679032053
1496.219466682087 3293.118992320086
1497.0026916511779 3226.891037974846
1497.7857260775945 3341.1576182776043
1498.5685700125996 3429.8214203169073
1499.3512235074395 3120.5235625747664
1500.133686613337 3098.3904805009333
1500.9159593814966 3313.0230797320996
1501.698041863101 3597.5836735627627
1502.4799341093094 3028.7275470985423
1503.2616361712662 3045.358686678943
1504.043148100087 3289.4022710040467
1504.8244699468742 3410.727063233474
1505.6056017626997 3114.627168075494
1506.3865435986281 3035.709748047063
1507.1672955056893 3342.279958487931
1507.9478575348967 3140.444007338102
1508.7282297372512 3297.297586608131
1509.5084121637192 3212.899298860514
1510.2884048652577 3225.676497430294
1511.0682078927948 3176.3257559737845
1511.8478212972423 3170.2383883338284
1512.6272451294917 3119.4529262098945
1513.4064794404076 3276.6362687981973
1514.1855242808433 3256.238883773228
1514.9643797016215 3166.3379619528955
1515.743045753552 3303.189138876508
1516.5215224874191 3216.3012358977007
1517.2998099539836 2998.6093358221506
1518.077908203999 3092.1492652382103
1518.8558172881785 3099.4924286570895
1519.633537257234 3296.11278865812
1520.4110681618404 3283.8715448442395
1521.1884100526604 3201.5125555222057
1521.9655629803365 3144.757762445223
1522.7425269954856 3327.0961860361667
1523.5193021487103 3481.519738967151
1524.2958884905856 3092.073342122506
1525.0722860716687 3104.180222115065
1525.848494942502 3046.3069509997167
1526.624515153595 3200.7384739702466
1527.4003467554485 3128.0168120576136
1528.175989798534 3254.3860344049444
1528.9514443333064 3233.2344073103045
1529.726710410203 3359.16350388402
1530.5017880796331 3013.917114563094
1531.276677391992 3043.6047739740916
1532.0513783976457 3366.292012999345
1532.825891146953 3138.6978630565177
1533.6002156902414 3219.5761374213707
1534.3743520778207 3071.2503998841953
1535.1483003599806 3177.516790303932
1535.9220605869923 3232.020487711966
1536.6956328091019 3257.6361859115486
1537.4690170765407 3158.33362983839
1538.242213439511 3280.416200637571
1539.015221948208 3118.646502156659
1539.78804265279 3052.947864468848
1540.560675603405 3020.0778556337737
1541.3331208501804 3322.954439889317
1542.1053784432224 3296.1843274280955
1542.8774484326168 3153.32924398546
1543.649330868422 3152.9043081703785
1544.4210258006842 3140.5866679357073
1545.1925332794308 3113.3514967970787
1545.9638533546604 3029.414079932895
1546.7349860763552 3005.5818597510993
1547.5059314944829 3468.089816811731
1548.27668965898 3196.4008941202164
1549.0472606197673 3175.0347472655085
1549.817644426752 2928.3818927258444
1550.5878411298072 3241.462125548488
1551.3578507787988 3232.5534400454153
1552.1276734235635 3003.3568246330715
1552.8973091139233 3074.784004766169
1553.6667578996767 3217.586465749116
1554.436019830604 3002.8675889766973
1555.20509495646 2974.002011632444
1555.9739833269869 2964.5478221898875
1556.7426849919011 3082.680081378449
1557.511200000903 3347.6292295096455
1558.2795284036674 3220.599525203673
1559.0476702498509 2975.3765688802846
1559.8156255890954 3224.568751563599
1560.5833944710157 3431.0275934812935
1561.3509769452048 3029.540407530593
1562.1183730612447 3103.167457048407
1562.8855828686865 3095.1251942366735
1563.6526064170703 3489.1474016672473
1564.4194437559127 3352.510435680335
1565.1860949347047 3100.183399403434
1565.9525600029283 3428.6776561062834
1566.7188390100328 3477.0343199457043
1567.4849320054564 2985.0301177177607
1568.250839038612 3126.8809721346183
1569.0165601588997 3238.005835298543
1569.7820954156887 3293.9123351052053
1570.5474448583373 3164.0894743753734
1571.31260853618 3180.5188799570124
1572.0775864985299 3039.3419847533123
1572.8423787946813 3275.871189252016
1573.6069854739108 3139.9092448287906
1574.371406585471 3183.2144189181813
1575.1356421785986 3406.9730676370664
1575.899692302506 3126.9713807100206
1576.6635570063845 3272.9461502769072
1577.4272363394157 3190.9458164006346
1578.190730350747 3138.7556894884256
1578.9540390895163 3355.9636793767377
1579.7171626048384 2989.724908541143
1580.480100945806 3043.5290578633812
1581.2428541614918 3177.929203225259
1582.0054223009538 3292.607249769747
1582.767805413223 3178.535327039151
1583.5300035473156 3128.6159121974456
1584.292016752228 3424.256405473667
1585.0538450769309 3349.1214026439966
1585.8154885703807 3022.448880731582
1586.5769472815136 3076.6199098915404
1587.3382212592405 3208.251086514373
1588.099310552463 3334.2116055102983
1588.8602152100484 3178.857488115875
1589.6209352808564 3334.591241309895
1590.3814708137234 3144.2586271890405
1591.14182185746 3183.15165917967
1591.9019884608679 3050.342046182539
1592.6619706727215 2875.85324378958
1593.4217685417734 3143.1830038185826
1594.1813821167616 3326.430185927243
1594.9408114464022 3012.5059033252155
1595.7000565793933 3075.7286581254216
1596.459117564409 3088.8419343429105
1597.2179944501113 2959.919364443812
1597.9766872851324 2992.2795925594905
1598.735196118092 3200.174497095643
1599.4935209975883 3103.9120452708166
1600.2516619721973 3320.509480084027
1601.0096190904787 2929.9873602435755
1601.7673924009723 3011.574245596734
1602.524981952196 2933.8043583042163
1603.2823877926476 2895.044390721054
1604.0396099708087 2894.673338682594
1604.7966485351371 2782.235771764771
1605.5535035340745 2865.4651911360897
1606.3101750160404 3131.442686868177
1607.0666630294363 2748.2985880105607
1607.822967622642 2770.6350650361246
1608.5790888440224 2956.6134623087514
1609.3350267419137 3116.590008059013
1610.0907813646445 2977.57838300059
1610.8463527605145 2892.4602119228725
1611.601740977805 3058.808358032701
1612.356946064785 2945.969691297294
1613.1119680696902 2751.3362162984313
1613.8668070407512 2745.5370871230634
1614.6214630261748 2905.3213404040707
1615.375936074137 3127.5790825142544
1616.1302262328118 2840.9105578087
1616.8843335503425 2923.62737404578
1617.638258074854 2839.866879922948
1618.391999854457 2951.990980292294
1619.1455589372363 2993.7068342950715
1619.8989353712623 2968.43594976405
1620.65212920458 2690.1404005780755
1621.4051404852235 2836.7874219206637
1622.1579692611976 2825.9421534185494
1622.9106155804966 2815.4678483178077
1623.663079491087 2777.6473930072443
1624.4153610409248 2959.8208778943913
1625.1674602779385 2821.1375493400615
1625.9193772500403 2731.380934169627
1626.6711120051277 3168.903963900751
1627.4226645910676 2880.944065595087
1628.174035055721 2666.059410652357
1628.9252234469168 2851.298536305668
1629.676229812474 2779.520541156033
1630.4270542001905 2984.5324147644365
1631.1776966578382 2857.8443098034727
1631.9281572331747 2807.2787445922686
1632.678435973945 3031.502954739023
1633.4285329278573 2864.972785969349
1634.1784481426203 2647.886738518243
1634.9281816659113 2829.765613756918
1635.677733545388 3024.1674143774335
1636.4271038286934 2750.0445905289375
1637.176292563452 2967.9546246823948
1637.9252997972635 2775.5771771649434
1638.674125577716 2847.7840406667265
1639.4227699523672 3146.9677859081767
1640.171232968767 2610.0102012764773
1640.9195146744423 2828.1157934975895
1641.6676151168977 3023.2689936802917
1642.4155343436178 3095.5834748157013
1643.1632724020765 2842.9937396844066
1643.9108293397167 2774.909097863877
1644.658205203974 2780.8286924958734
1645.4054000422566 3264.892929561471
1646.1524139019566 2788.4127958880827
1646.8992468304423 2588.736614245562
1647.6458988750728 2649.0809686253774
1648.3923700831765 2770.9834246212254
1649.1386605020743 2719.059806051954
1649.8847701790564 2976.2667702678373
1650.6306991614038 2815.6117350482846
1651.3764474963682 2906.243048023579
1652.1220152311944 2492.9659173233754
1652.867402413096 2875.058831580244
1653.6126090892776 2855.4766821975363
1654.3576353069184 3048.4778114132414
1655.1024811131829 2846.3249500410725
1655.8471465552066 2746.876248971637
1656.5916316801213 2957.383607499533
1657.3359365350298 2805.852949045209
1658.0800611670165 2701.6616042109463
1658.824005623148 2912.733263897043
1659.5677699504722 2689.0370330650394
1660.3113541960192 2884.753922624531
1661.054758406799 2734.927880241069
1661.7979826297997 2605.723711278007
1662.5410269119966 2652.7495758291743
1663.283891300338 2842.1143660396942
1664.0265758417645 2643.0227380254964
1664.7690805831826 2864.306940350343
1665.5114055714948 2899.9316659146625
1666.2535508535748 3102.479562315037
1666.9955164762814 2557.704679790708
1667.7373024864555 2805.961401924126
1668.478908930916 2881.2337856425497
1669.220335856462 2700.7467215202614
1669.9615833098778 2672.6670436471377
1670.7026513379296 2517.9146214931407
1671.44353998736 2825.4864496833316
1672.1842493048916 2853.0397674882233
1672.9247793372379 2595.090673299338
1673.6651301310812 2719.9327043015273
1674.4053017330934 2661.7889356822807
1675.1452941899242 2903.107697359469
1675.885107548207 2338.903186313904
1676.6247418545518 2422.950271820398
1677.3641971555535 2583.0620115843403
1678.1034734977893 2790.6651877437025
1678.8425709278108 2716.2489329515065
1679.5814894921605 2739.237286080404
1680.320229237359 2757.049445372601
1681.0587902098978 2838.7884664714165
1681.7971724562685 2654.838975563796
1682.5353760229264 2472.7572571838646
1683.2734009563173 2870.087306859097
1684.0112473028657 2612.8772822407973
1684.7489151089794 2734.3747364281458
1685.4864044210462 2801.928147672868
1686.2237152854377 2271.900680097861
1686.960847748498 2835.0089321791593
1687.6978018565642 2455.059703416761
1688.434577655944 2449.9484224623848
1689.1711751929379 2431.135408765111
1689.9075945138156 2730.300376888227
1690.6438356648396 2547.5220657062478
1691.3798986922448 2234.889745486277
1692.1157836422499 2542.509472818313
1692.851490561059 2524.8334217658658
1693.587019494853 2565.2492835446146
1694.3223704897991 2300.620333991159
1695.0575435920364 2269.805516827803
1695.792538847696 2770.4486560420382
1696.527356302886 2487.5954451063108
1697.2619960036936 2294.3454225772825
1697.9964579961907 2353.965663843104
1698.730742326432 2003.9685813215638
1699.4648490404488 2188.0451134082423
1700.1987781842563 2360.6475459108265
1700.9325298038548 2680.0709902286303
1701.6661039452174 2680.9311079094555
1702.3995006543082 2483.028246832199
1703.1327199770658 2588.2179244784465
1703.865761959416 2302.0385768407436
1704.598626647261 2659.718755889017
1705.3313140864866 2250.5102414782295
1706.0638243229587 2328.316670585118
1706.7961574025303 2513.1998577570366
1707.528313371029 2375.9271789596323
1708.260292274268 2267.8669729853873
1708.9920941580403 2477.285340568931
1709.7237190681226 2457.5609087038883
1710.4551670502697 2448.0012700074867
1711.18643815022 2089.5494941164984
1711.9175324136959 2641.194608997303
1712.6484498863938 2421.0811167401216
1713.379190614005 2215.664628306613
1714.109754642188 2232.8214056959164
1714.8401420165883 2265.03921580175
1715.570352782839 2357.317308225188
1716.3003869865497 2449.853508646639
1717.0302446733076 2151.912094356186
1717.7599258886876 2394.672503038203
1718.4894306782444 2692.290312708733
1719.2187590875183 2118.7903524438516
1719.9479111620203 2487.613455254189
1720.6768869472544 2188.228922214172
1721.4056864887025 2600.4302833869506
1722.1343098318284 2535.9823865675644
1722.8627570220742 2293.666790633524
1723.591028104871 2143.245214609652
1724.3191231256242 2045.0957639860048
1725.0470421297232 2312.104293159975
1725.7747851625427 2373.1699123408844
1726.5023522694337 2344.5262738576776
1727.2297434957363 2320.954492128544
1727.9569588867635 2170.6226712756006
1728.6839984878152 2410.7467935211616
1729.4108623441734 2415.8286105148695
1730.1375505011038 2421.150173750154
1730.8640630038426 2183.50846348058
1731.5903998976264 2168.8714706062988
1732.316561227657 2254.4147839322723
1733.0425470391274 2101.6236404457836
1733.7683573772065 2318.886020151917
1734.4939922870508 2202.4077456341147
1735.2194518137949 2306.928097539369
1735.9447360025606 2298.1023384820887
1736.669844898439 2260.1201504871888
1737.3947785465189 2088.355973020853
1738.1195369918605 1978.7105082094781
1738.8441202795093 2236.3546257561193
1739.5685284544943 2278.5239501383608
1740.292761561821 2360.4099689904674
1741.0168196464838 2285.286149098661
1741.7407027534518 2178.6040705594082
1742.464410927687 2226.69603090867
1743.187944214118 2217.3653912251107
1743.9113026576688 2226.567549800485
1744.634486303241 2164.468750199654
1745.3574951957125 2179.3244964169585
1746.0803293799509 2456.815085018733
1746.8029889008048 2239.56628540255
1747.5254738031017 2341.2511053349917
1748.2477841316504 2064.148920544288
1748.969919931249 2150.4523279515156
1749.6918812466665 2142.5524638435536
1750.4136681226646 2419.5814712475467
1751.1352806039777 2125.9757394815692
1751.856718735331 1932.690042686736
1752.5779825614281 1915.3799876062894
1753.2990721269507 2239.4692787834265
1754.0199874765676 2231.1212067392853
1754.7407286549314 1970.1993982337226
1755.4612957066693 2162.677455051754
1756.1816886763954 1977.3673049293297
1756.9019076087097 2142.448755171329
1757.6219525481865 2231.668356095005
1758.3418235393856 2170.464303115546
1759.061520626854 2195.1385769021067
1759.7810438551096 2363.0765919956025
1760.5003932686614 2064.6968256612186
1761.2195689119999 2427.950232388773
1761.938570829594 2280.060199505976
1762.657399065898 2168.2639529377416
1763.376053665348 2028.9919701839856
1764.0945346723602 1875.5490615493334
1764.812842131334 1915.5492391651696
1765.5309760866512 1955.74494315648
1766.2489365826787 1951.9943678101258
1766.9667236637597 2177.088350003679
1767.684337374223 1901.3182442080572
1768.401777758383 1951.507253707994
1769.1190448605284 1955.9830491839384
1769.836138724937 1796.5540955996798
1770.5530593958665 2120.569064055057
1771.2698069175603 2346.870815136087
1771.9863813342326 2225.500154280301
1772.702782690094 2068.745354789554
1773.4190110293293 2263.5778113370216
1774.1350663961111 2135.7139869669268
1774.8509488345844 1957.1695228474969
1775.5666583888924 2076.029143319415
1776.2821951031437 2345.97714860101
1776.9975590214362 2002.9536099655168
1777.7127501878585 2269.2020221446755
1778.4277686464684 2136.340640952588
1779.1426144413108 2331.9683786049764
1779.8572876164162 2336.372239775006
1780.571788215797 1951.5697627096258
1781.2861162834415 2081.2291331044044
1782.0002718633277 2068.017635828778
1782.7142549994132 2223.0533094730604
1783.4280657356376 2217.1206955098546
1784.141704115922 1975.4920793238398
1784.855170184177 2078.040891230572
1785.5684639842839 2150.720938748923
1786.2815855601148 1733.4476229993973
1786.9945349555237 2154.612029204205
1787.707312214343 1972.421218770344
1788.4199173803918 1956.6107861279656
1789.132350497468 1940.9432526348028
1789.8446116093583 2002.9586221619259
1790.556700759822 1910.0042014327428
1791.2686179926077 1963.3893316077083
1791.9803633514493 2093.502283052588
1792.6919368800554 1864.2371648931767
1793.4033386221236 2147.1370118413506
1794.1145686213295 2199.303799931848
1794.8256269213307 2323.541173639262
1795.536513565774 2170.3644977804734
1796.247228598284 1879.9387973121677
1796.9577720624693 2024.6991531292
1797.6681440019165 2081.8215254401107
1798.3783444602013 2026.3280491003784
1799.0883734808776 2129.5149315842027
1799.7982311074884 2016.907115275571
1800.5079173835475 2136.5212238272884
1801.2174323525633 2204.2039202048377
1801.9267760580187 1992.7250421946355
1802.635948543386 2113.897719559279
1803.3449498521113 1855.5941190760852
1804.0537800276325 2071.0538614738152
1804.7624391133668 1993.6750291428586
1805.47092715271 1811.0042646858212
1806.1792441890484 1860.2677355774927
1806.8873902657433 2177.6013802621987
1807.5953654261448 2000.6494228352356
1808.3031697135812 1943.104273708268
1809.0108031713662 1957.7988024311132
1809.71826584279 1948.3443471989153
1810.425557771141 1992.9162074950068
1811.1326789996747 1960.8021169255426
1811.839629571632 1928.5435231397144
1812.5464095302468 1900.3171515292524
1813.2530189187182 1959.5761508916075
1813.959457780249 2015.4930766239809
1814.6657261580076 2094.8102564766114
1815.371824095153 2033.877015317131
1816.0777516348262 1858.4498551863749
1816.78350882015 1682.9163966743806
1817.4890956942272 1688.787936727073
1818.1945123001533 1929.8951604540518
1818.8997586809928 2006.3371770464305
1819.6048348798067 1844.0804345516342
1820.3097409396287 1974.1822770382792
1821.0144769034796 2025.9273921875374
1821.7190428143622 2077.6162969438133
1822.423438715261 2200.163018682132
1823.1276646491478 1896.9250598080848
1823.8317206589727 1948.716882180563
1824.5356067876692 2023.1482643592565
1825.2393230781581 2069.8328276474217
1825.942869573335 1814.7434231167856
1826.646246316086 1851.286066324538
1827.3494533492758 2061.933930894585
1828.052490715756 1972.4273425804208
1828.7553584583547 2018.3829780789324
1829.458056619891 2183.931574988702
1830.1605852431585 2015.433872908598
1830.8629443709433 1825.0069398616604
1831.5651340460063 1958.0613443704835
1832.2671543110919 1841.8268497020902
1832.9690052089318 2101.751277644767
1833.6706867822395 1778.9725503368493
1834.3721990737104 2074.138536928159
1835.0735421260233 2069.9697466392126
1835.774715981841 1976.4637057262207
1836.4757206838058 2269.489416686007
1837.1765562745459 1917.4179918785703
1837.8772227966747 1858.8350651257065
1838.5777202927839 1905.3229116987518
1839.2780488054523 1857.7087378838398
1839.9782083772352 1809.279655346017
1840.6781990506806 1852.8963789366444
1841.378020868313 1896.5179136218408
1842.0776738726418 1973.9203046161251
1842.777158106157 1865.2603927071177
1843.4764736113375 1873.9153664235885
1844.1756204306403 2057.425473351385
1844.8745986065078 2012.492076934105
1845.5734081813607 1786.553085773559
1846.2720491976124 1879.5037358725167
1846.970521697649 1729.5868160584716
1847.6688257238511 1934.0400817119098
1848.3669613185684 1957.4328409967475
1849.0649285241452 1744.2696825108062
1849.7627273829057 1990.356622598171
1850.460357937156 1876.942508871592
1851.1578202291857 1703.6810544824534
1851.8551143012664 2006.2078827331763
1852.5522401956569 1853.5754176973041
1853.2491979545957 2201.594974620989
1853.9459876203055 1834.4500252635603
1854.6426092349902 1806.8364956000416
1855.3390628408451 1833.7536628666974
1856.0353484800362 2195.626119959769
1856.7314661947203 2031.4923351907182
1857.4274160270397 1756.572914427278
1858.123198019115 1865.192617477641
1858.8188122130487 1685.7968954504177
1859.5142586509319 1959.0796740719136
1860.209537374838 1874.7949628156434
1860.9046484268183 1822.4537590496407
1861.599591848917 2171.0736252153074
1862.294367683151 1984.1721990035799
1862.988975971528 1803.0449322894262
1863.6834167560355 1920.0460865815216
1864.3776900786452 2082.4706121122
1865.0717959813119 1855.6803610365466
1865.7657345059724 1734.085058778807
1866.4595056945564 1936.0571622590846
1867.1531095889586 2056.323641969763
1867.846546231076 1748.6391732627733
1868.5398156627743 1751.4342463063742
1869.2329179259123 1754.255918058351
1869.9258530623283 2061.546151335929
1870.618621113843 1780.9198055692232
1871.3112221222636 1697.2368342454247
1872.0036561293764 1772.338117707893
1872.695923176956 1940.6835318847247
1873.3880233067594 2103.1060358501545
1874.0799565605212 1699.762226151251
1874.7717229799673 1905.4515541197834
1875.4633226068036 2175.8580313652665
1876.1547554827175 1970.2623508710246
1876.8460216493859 1920.648569066164
1877.5371211484617 1853.2774812310722
1878.2280540215852 1764.996232842114
1878.9188203103804 1676.54625272109
1879.6094200564548 1839.9810039381512
1880.299853301396 1760.7176462342854
1880.9901200867826 2131.153776322145
1881.6802204541673 1946.2810861210753
1882.3701544450942 1954.8133844093777
1883.059922101087 1685.8931382127569
1883.7495234636517 1736.904373874841
1884.4389585742792 1787.9572004535494
1885.1282274744517 1692.0334081015044
1885.8173302056166 1755.1284779150767
1886.506266809225 1818.3105113701517
1887.195037326701 1654.3718931998858
1887.8836417994517 1802.0542404617368
1888.5720802688702 2139.5386085385658
1889.260352776333 2083.8689641191
1889.9484593632042 2141.887998484188
1890.63640007082 1827.2373717390633
1891.3241749405151 1805.400713387884
1892.0117840135954 1946.0270418474975
1892.6992273313572 1804.806526874804
1893.3865049350788 1745.1595554049904
1894.0736168660223 2224.3947053723796
1894.7605631654333 1947.8423710727068
1895.4473438745408 2061.006100801224
1896.133959034556 2174.2202888088486
1896.820408686679 1956.3037159300688
1897.506692872088 2195.833293337635
1898.192811631945 1927.871105678361
1898.8787650073991 1821.428273820328
1899.5645530395832 1998.9367562065454
1900.2501757696118 2018.3841607191316
1900.9356332385796 1791.6225289309273
1901.620925487574 2152.995952221615
1902.3060525576602 1906.319313878514
1902.9910144898859 1963.577259965361
1903.6758113252872 1624.6607515072428
1904.3604431048789 1865.7822577258908
1905.0449098696663 1938.9084643315018
1905.7292116606295 1744.9410839262903
1906.4133485187394 1854.6275567244752
1907.0973204849488 1540.341050565278
1907.7811276001976 1736.002340428709
1908.4647699053967 1837.656896244457
1909.1482474414588 1822.0640826341628
1909.8315602492694 1806.3523359294868
1910.5147083696957 2087.252751218893
1911.1976918436012 1815.9167805384127
1911.880510711815 1765.8173856567369
1912.5631650151681 1790.158986278444
1913.2456547944657 1814.487150646965
1913.927980090495 1817.6139539233213
1914.6101409440362 1882.5786149384573
1915.2921373958416 1983.6715514259508
1915.9739694866603 1841.878890003861
1916.655637257214 2086.512204009696
1917.3371407482136 1948.3303974720525
1918.0184800003572 2123.011860319255
1918.6996550543154 2049.4697465862946
1919.3806659507554 1835.6677574165242
1920.0615127303208 1877.668234923607
1920.7421954336423 2097.0124003979586
1921.4227141013343 2074.9223895146356
1922.103068773993 1932.8394383930274
1922.783259492202 1982.2560058783704
1923.4632862965227 1766.5302476855181
1924.1431492275078 1809.54510081484
1924.8228483256917 1629.0358706165937
1925.5023836315922 1851.259179966633
1926.1817551857057 1996.8864922362507
1926.8609630285227 2142.8241395824207
1927.5400072005123 1944.5759186852101
1928.218887742125 1940.7215011395394
1928.8976046938005 1651.2964082697185
1929.5761580959588 1990.5614125577235
1930.2545479890086 1866.9786639320282
1930.9327744133352 1721.5943869012385
1931.6108374093164 1913.68858155395
1932.2887370173066 1719.5505940022717
1932.9664732776473 2116.2327533001294
1933.6440462306673 1888.245613978812
1934.3214559166754 1769.3196772584076
1934.9987023759659 2137.365012063984
1935.675785648813 2050.5568704662232
1936.3527057754836 1457.2508269664108
1937.029462796223 1564.1401236928634
1937.70605675126 1671.2940393612541
1938.3824876808085 1738.7731246724852
1939.058755625072 1917.8589968043502
1939.7348606242267 1695.0549324967026
1940.4108027184448 1781.0034548816577
1941.0865819478713 2040.1080780947782
1941.7621983526478 1748.750142117978
1942.4376519728921 1656.881137268684
1943.1129428487038 1850.5113851547642
1943.7880710201734 1901.5052843762303
1944.4630365273733 1973.6961440607586
1945.1378394103576 1550.5773810400055
1945.8124797091714 1595.4729274276665
1946.4869574638324 1640.4018112124027
1947.161272714353 1700.8045941048397
1947.8354255007234 1784.4533603601744
1948.5094158629272 1808.2989681634856
1949.1832438409183 1912.466096497133
1949.8569094746435 2049.735489674332
1950.530412804037 2075.7960616005003
1951.2037538690092 1947.6692771812693
1951.8769327094578 1794.0473718945618
1952.5499493652678 1759.627381073987
1953.222803876306 1980.8325598521365
1953.895496282421 1878.2197826637396
1954.5680266234522 2015.908641770525
1955.2403949392155 1932.477810179525
1955.9126012695142 1603.1330946519304
1956.5846456541403 1787.5997994572317
1957.2565281328643 1744.817653251101
1957.9282487454457 2023.4968077985243
1958.5998075316202 1938.910231271615
1959.27120453112 1752.5099546707024
1959.9424397836501 1849.8775468414406
1960.613513328908 2015.0539426941027
1961.2844252065697 2184.404334686437
1961.9551754563017 1708.0269143497092
1962.6257641177453 1672.929434171209
1963.29619123054 1600.3448321333326
1963.966456834296 1711.5293302255723
1964.6365609686181 1635.7755918464027
1965.306503673086 1663.2819515791525
1965.976284987275 1690.774713337813
1966.645904950734 1779.3702921549223
1967.315363603002 1513.9091022672133
1967.9846609836077 1755.3129315933973
1968.6537971320486 1715.5035183182063
1969.3227720878222 1877.0249276066872
1969.9915858904042 1786.7449585531274
1970.660238579252 1949.3851246332615
1971.3287301938108 1774.2131185573483
1971.997060773514 1713.7725709808387
1972.665230357772 1675.2434000133446
1973.3332389859843 1751.7259724024116
1974.0010866975335 1537.1056966376348
1974.6687735317864 1839.9927279322335
1975.3362995280932 1830.671901144394
1976.003664725793 1881.866096292916
1976.6708691642052 1592.9330154012816
1977.3379128826364 1670.6318471586906
1978.004795920373 1918.5793168728992
1978.6715183166925 2059.1497870259595
1979.3380801108524 1902.3298434852484
1980.0044813420973 1745.3804480346614
1980.6707220496555 1550.9072518680664
1981.3368022727373 1755.7949543504906
1982.0027220505417 1906.1681460380019
1982.66848142225 1457.6527415383775
1983.3340804270283 1512.1281964745228
1983.999519104027 1711.1224137940048
1984.6647974923835 1868.393575875703
1985.329915631215 1932.5458112180472
1985.99487355963 1657.9278903102113
1986.6596713167146 2018.7513886432196
1987.3243089415428 1729.4406319553425
1987.9887864731754 2132.1756263322713
1988.6531039506553 1581.0497208083132
1989.3172614130071 2263.0524253471226
1989.9812588992481 1667.671602829872
1990.645096448372 1399.0446942425438
1991.3087740993633 1764.8365708684905
1991.9722918911848 1766.4620077986679
1992.635649862792 1778.2554530530554
1993.2988480531185 1754.567559376892
1993.9618865010852 1685.661966756085
1994.6247652455968 1616.6917564584144
1995.287484325545 1719.2881784675167
1995.9500437798033 1583.579828235107
1996.6124436472292 1688.5605982885568
1997.2746839666706 1691.1020754369679
1997.936764776954 1693.6651686620103
1998.598686116895 1598.3619280539183
1999.2604480252903 1731.0427695702645
1999.9220505409212 1863.964512830841
2000.5834937025593 1611.015865876597
2001.2447775489582 1746.4540983327493
2001.9059021188514 1878.9287770398744
2002.5668674509616 1546.4821702196436
2003.2276735839987 1736.4998665875141
2003.8883205566508 2012.3935622660651
2004.5488084075987 1731.6777467148124
2005.2091371755014 1661.5217788123282
2005.8693068990033 1442.3383010715286
2006.5293176167397 1548.609853630091
2007.1891693673224 1655.202272182316
2007.848862189354 1544.786804374898
2008.5083961214223 1702.242907954073
2009.1677712020955 1662.6065226037922
2009.8269874699254 1511.590567587171
2010.4860449634598 1553.1364583233824
2011.1449437212177 1594.8828113746408
2011.8036837817108 1902.3280092451437
2012.4622651834325 1754.3479050823091
2013.1206879648653 1828.2537912973753
2013.7789521644736 1597.420368067752
2014.4370578207036 1883.2539782300657
2015.0950049719922 1679.6967691150753
2015.7527936567585 1989.1301997866642
2016.4104239134067 1548.4118179146758
2017.067895780323 1547.4531135582522
2017.725209295886 1546.445894118337
2018.3823644984514 1939.9849140774736
2019.0393614263648 1827.915512719775
2019.6962001179545 1679.3554201130326
2020.3528806115355 2029.8903726876633
2021.0094029454067 1848.1457394885394
2021.6657671578487 1577.295701320256
2022.321973287133 1703.582065318768
2022.9780213715148 1528.280153344855
2023.6339114492293 1754.7846348724302
2024.2896435585026 1695.246691935749
2024.9452177375442 1735.6815397834503
2025.600634024544 1913.2208343663267
2026.2558924576842 1841.9827296914912
2026.9109930751292 1923.031214094374
2027.565935915025 1976.7268045577953
2028.2207210155066 2030.5825051111672
2028.8753484146964 2095.9855062994975
2029.529818150695 1492.9000921682914
2030.1841302615903 2048.2608246400605
2030.8382847854573 1565.2600513952195
2031.4922817603601 1829.990302573111
2032.1461212243357 1743.629295022592
2032.7998032154192 1456.164109569366
2033.4533277716218 1634.4071686883658
2034.1066949309443 1540.335813731588
2034.7599047313688 1603.2098336662411
2035.4129572108704 1808.0530106675383
2036.0658524074006 1651.9263830309246
2036.7185903589016 1751.2837852781145
2037.3711711032956 1825.5075307852392
2038.023594678496 1767.5117488663823
2038.675861122394 1718.4246204009846
2039.3279704728757 1927.1897473020247
2039.9799227678031 1549.5480884400586
2040.6317180450278 1569.23498380771
2041.2833563423865 1619.0026161875062
2041.9348376977014 2106.969153099889
2042.5861621487784 1919.207961267965
2043.2373297334088 2023.991717720214
2043.8883404893695 1770.6700994174946
2044.5391944544208 1849.4824294060295
2045.1898916663158 1885.7761348542347
2045.8404321627804 2056.200693836194
2046.4908159815368 1590.7960534678962
2047.1410431602853 1681.4032534949733
2047.7911137367173 1606.1169591461774
2048.441027748504 1563.1886469187555
2049.090785233302 1520.1604952742161
2049.7403862287592 1550.023514331084
2050.389830772503 1492.3367778950692
2051.0391189021466 1434.6378684466165
2051.688250655294 1765.8894719324733
2052.337226069527 1675.84224404747
2052.986045182417 1911.0947844953087
2053.634708031521 1824.693827325232
2054.283214654375 1738.2780175793785
2054.931565088511 1427.2497423961772
2055.579759371436 1455.5986443781144
2056.2277975406523 1836.5571248797496
2056.8756796336384 1599.253215596908
2057.5234056878617 1878.0693183064807
2058.1709757407752 1640.6009771741853
2058.8183898298194 2012.6466441095047
2059.465647992416 1882.797002197792
2060.1127502659747 1901.1867844747765
2060.759696687888 1858.8901203902983
2061.4064872955405 1816.6020177596558
2062.053122126292 1929.092944894854
2062.699601217497 1783.2546784777655
2063.345924606485 1637.45991728125
2063.992092330587 1774.1391087844881
2064.638104427102 1684.0260408316287
2065.283960933324 1944.6914737235209
2065.92966188653 1712.673716291924
2066.5752073239855 1626.4831551511093
2067.2205972829397 1540.229068910647
2067.86583180062 1795.6549699963566
2068.5109109142522 1616.7023399395619
2069.15583466104 1606.0704401111825
2069.8006030781708 1430.2998662093391
2070.445216202821 1702.1266048111484
2071.089674072153 1880.7178767886176
2071.7339767233116 1899.8179036560891
2072.3781241934303 1856.2001937942157
2073.0221165196253 1822.8532815936123
2073.6659537390024 1547.419709689634
2074.3096358886505 1788.247721738017
2074.953163005637 1774.4512382417784
2075.596535127028 1409.4482101650538
2076.2397522898664 1551.1642291801008
2076.882814531182 1606.0051743848117
2077.5257218879924 1777.8353295942106
2078.1684743973 1400.446283316814
2078.8110720960885 1489.690736335868
2079.453515021336 1659.9747210392015
2080.095803209997 1830.4115480403252
2080.7379366990135 1717.5760027664473
2081.37991552532 1855.339576304974
2082.0217397258275 1887.3398219934068
2082.6634093374414 1777.1925685460349
2083.3049243970418 1667.0005492557648
2083.9462849415067 1831.735676408532
2084.587491007689 1673.8222394849956
2085.2285426324324 1730.5434757446576
2085.869439852564 1707.7273965684878
2086.510182704902 1571.5896087343513
2087.1507712262483 1750.058760749712
2087.791205453381 1793.839452446257
2088.4314854230743 1837.6534675328614
2089.0716111720867 1663.9388226070744
2089.7115827371617 1445.8213996821648
2090.351400155023 1466.82930780214
2090.991063462385 1487.9490842481316
2091.6305726959527 1413.7002193191952
2092.2699278924047 1500.828955117036
2092.9091290884153 1588.1975826891257
2093.548176320641 1484.7807165339439
2094.187069625721 1391.091540874505
2094.8258090402887 1297.1962199173922
2095.464394600951 1735.8192012796123
2096.102826344313 1601.6193430712772
2096.741104306955 1779.6040220353175
2097.379228525453 1400.558343627932
2098.017199036358 1689.3829708445246
2098.6550158762147 1500.8991104437243
2099.2926790815527 1786.3086345630782
2099.9301886888825 1629.9562557065651
2100.5675447347076 1641.1524344601294
2101.2047472555114 1665.382338296633
2101.841796287761 1573.5416904942617
2102.47869186792 1717.5693270083807
2103.1154340324265 1446.3007192892646
2103.752022817709 1699.9007765730505
2104.388458260184 1539.9133738876994
2105.024740396251 1727.483919220705
2105.660869262292 1521.8861262753594
2106.296844894685 1910.5209554741093
2106.93266732978 1674.8451850883266
2107.5683366039284 1441.0478714525211
2108.2038527534532 1660.916050682135
2108.8392158146726 1803.3656476037163
2109.4744258238843 1543.734818753604
2110.1094828173755 1658.7839605529655
2110.744386831422 2013.8532957599655
2111.3791379022787 1722.2148514585465
2112.01373606619 1968.450021581582
2112.648181359389 1830.7770725226376
2113.28247381809 1627.3191303570397
2113.916613478492 1841.5527325831747
2114.550600376786 1841.3704285357562
2115.1844345491445 1623.5470074983784
2115.818116031729 1575.46060338902
2116.451644860679 1670.8893061481824
2117.085021072133 1426.2898413250898
2117.718244702204 1570.4086396654543
2118.3513157869984 1522.9598421941687
2118.984234362604 1413.0148345910584
2119.617000465092 1629.4760789821298
2120.249614130529 1601.9872053028025
2120.8820753949585 1574.45772777621
2121.5143842944162 1507.0805068835245
2122.14654086492 1627.483861999741
2122.7785451424734 1853.935382120412
2123.4103971630702 1542.3373873894102
2124.042096962681 1877.9498972591523
2124.6736445772767 1930.9667085181293
2125.305040042802 1453.2641728970427
2125.936283395191 1666.677187843564
2126.567374670365 1692.38532843072
2127.198313904233 1612.6384112791027
2127.8291011326855 1553.6121062359746
2128.4597363916037 1494.27768359642
2129.0902197168507 1642.2916158043213
2129.720551144279 1855.0989186189095
2130.3507307097225 2068.083846139645
2130.980758449008 2048.230569999748
2131.6106343979427 1975.8830449373822
2132.2403585923203 1903.3517715314676
2132.8699310679276 2010.38188970887
2133.499351860526 1735.4223041752443
2134.1286210058715 1613.8469568163268
2134.7577385397053 1749.0305870359334
2135.3867044977487 1884.440441220795
2136.0155189157176 1916.894258616848
2136.644181829308 1982.071971608543
2137.2726932742025 1595.1000089627687
2137.901053286074 1560.6396847654153
2138.5292619005777 1526.1891753968014
2139.1573191533535 1545.1163959536675
2139.7852250800315 1669.7329412524086
2140.4129797162295 1890.2586979980308
2141.0405830975433 1475.0628455582148
2141.6680352595613 1490.3364048591684
2142.2953362378576 1505.6561860613824
2142.9224860679915 1553.8673420321848
2143.549484785508 1570.5629091693006
2144.1763324259373 1648.0411937741096
2144.803029024799 1615.3889213189082
2145.429574617594 1717.0220089400743
2146.0559692398165 1833.9438877529617
2146.682212926942 1555.877034326833
2147.308305714432 1656.0563129926377
2147.9342476377333 1788.0603860431372
2148.5600387322847 2052.5198146629414
2149.185679033506 1694.6895045799251
2149.8111685768017 1624.4667400679903
2150.4365073975678 1397.4504914544125
2151.061695531187 1463.7481221269757
2151.686733013021 1843.2830179894177
2152.311619878423 1655.9232592702406
2152.9363561627342 1460.516164253329
2153.560941901278 1485.0512736072378
2154.1853771293663 1751.9087428578146
2154.809661882293 1654.473293941172
2155.433796195348 2116.694111256616
2156.0577801037944 2000.2488087067359
2156.681613642895 1883.487033913299
2157.3052968478896 1566.5111269485103
2157.928829754006 1727.9201449931966
2158.552212396462 1750.4935063868925
2159.1754448104566 1701.0947301277588
2159.7985270311783 1408.279623914977
2160.4214590938027 1175.8468560423096
2161.0442410334927 1278.6954042625687
2161.6668728853874 1649.1538100507485
2162.289354684628 1504.5677684102213
2162.911686466332 1575.8097987996111
2163.533868265602 1834.9270375169945
2164.1559001175337 2065.9175829958212
2164.7777820572046 1835.4152152694883
2165.399514119681 1646.0225819852378
2166.021096340013 1555.054882352258
2166.6425287532384 1899.55242982237
2167.263811394385 1396.255059095466
2167.8849442984574 1966.7810152903203
2168.505927500455 1502.0272020336038
2169.126761035366 1745.2587316131685
2169.7474449381552 1573.6051886298649
2170.367979243778 1747.1416676434103
2170.9883639871823 1921.2210273999958
2171.608599203293 1586.5915480265587
2172.2286849270276 2273.4441257436674
2172.8486211932886 2117.2435249818986
2173.4684080369625 1633.778484574528
2174.0880454929265 1375.9380689035033
2174.7075335960417 1460.8697478797244
2175.3268723811543 1826.4016916552514
2175.9460618831 1342.7088347815138
2176.565102136701 1717.03175714438
2177.1839931767627 1746.5031371960536
2177.802735038078 1776.0774892463542
2178.421327755432 1496.2162498766397
2179.0397713635866 1334.2217029636736
2179.658065897298 1550.8059315270234
2180.276211391305 1762.5108759965503
2180.8942078803357 1606.7161996167695
2181.5120553991 1816.1498019698433
2182.129753982299 1739.0594182415211
2182.7473036646206 1661.8049534748466
2183.3647044807367 1662.3656121028039
2183.9819564653044 1504.2183738822023
2184.599059652968 1801.0871895573491
2185.216014078367 1680.567816735823
2185.832819776113 1826.4337727232528
2186.4494767808137 1443.893933256137
2187.065985127063 1559.1365391561908
2187.682344849436 1526.7902814349438
2188.298555982501 1641.3773841102125
2188.9146185608097 1756.0572058373268
2189.530532618901 1773.7682428832443
2190.1462981912937 1727.625203049888
2190.761915312507 1786.2177247400286
2191.377384017036 1567.2051680891032
2191.9927043393654 1756.7511230778994
2192.6078763139667 1928.3113517232111
2193.2228999753006 2100.2624488272195
2193.837775357808 1759.2789742577497
2194.452502495922 1694.7069857153213
2195.0670814240602 1629.9959953162956
2195.6815121766285 1417.7350599452961
2196.2957947880186 1303.865409513813
2196.9099292926057 1189.7704275762158
2197.523915724758 1741.1467939556387
2198.137754118825 1434.5829030553537
2198.7514445091456 2185.9917829003116
2199.3649869300443 1359.1528655638626
2199.9783814158327 2138.5974169538486
2200.5916280008096 2114.929799204304
2201.2047267192593 1912.5873233014136
2201.8176776054515 1596.049456841189
2202.430480693649 1574.4790603186873
2203.0431360180955 1829.5447008121603
2203.6556436130195 1540.9979870547181
2204.268003512645 1251.7323472840733
2204.8802157511727 1528.4863967436672
2205.492280362796 1628.5520666239206
2206.1041973816937 1728.9493931223594
2206.715966842032 1643.157371512954
2207.3275887779655 1680.592762550526
2207.93906322363 1661.7271575762074
2208.550390213153 1836.8250086940618
2209.1615697806465 1830.2297687789664
2209.7726019602105 1500.3986792221674
2210.3834867859277 1389.9535074289545
2210.9942242918787 1622.2952811789262
2211.6048145121167 1624.4547752657913
2212.2152574806914 2338.812428532966
2212.825553231638 1528.2704468528248
2213.435701798975 2356.527130351588
2214.045703216707 1681.3916993751604
2214.655557518832 1358.2715093158854
2215.2652647393297 1529.6084034985706
2215.874824912169 1624.8627799189424
2216.4842380713 1720.517963629404
2217.09350425067 1520.6395278790274
2217.7026234842033 1871.5436571391335
2218.311595805819 1932.370794160022
2218.9204212494133 1701.9575613470793
2219.52909984888 2004.0965550794906
2220.137631638092 1333.642397965842
2220.7460166509154 2071.274719321415
2221.354254921198 1465.3049819809598
2221.9623464827764 1691.9959715703667
2222.5702913694713 1673.4529885461966
2223.178089615096 1622.5283179641478
2223.7857412534486 1571.5093029422685
2224.39324631831 1284.8590437137561
2225.000604843457 1561.4065028037217
2225.607816862641 1628.4077668316258
2226.214882409611 1695.4255872749702
2226.8218015180973 1900.4562668306876
2227.4285742218217 1677.5397362169692
2228.0352005544864 1730.6347979871437
2228.6416805497847 1371.061235473795
2229.248014241399 1499.2628709909545
2229.8542016629945 1552.2330472682347
2230.460242848223 1766.2612576991542
2231.0661378307304 1571.3899999945945
2231.671886644139 1376.3324670109714
2232.277489322065 1438.2132793640942
2232.8829458981127 1158.5575321629458
2233.48825640587 1688.8166022940052
2234.0934208789095 2238.6996949719337
2234.6984393507955 1887.6964436101844
2235.3033118550793 1735.9587101303273
2235.9080384252975 1665.751093808926
2236.5126190949723 1351.7087840081497
2237.1170538976166 1590.930726852814
2237.721342866729 1307.1036577949867
2238.32548603579 1593.5340171079954
2238.9294834382763 1700.2702499505965
2239.533335107646 1686.9637612787342
2240.1370410773434 1755.7636485207781
2240.740601380803 1450.318424033429
2241.3440160514474 1729.1441487078696
2241.9472851226783 1952.5736060123832
2242.550408627896 1793.7875554887953
2243.1533866004793 2016.2320815589107
2243.756219073799 1711.357443784206
2244.3589060812064 1599.2521093431128
2244.961447656049 1395.4175304304276
2245.5638438316564 1665.710672222303
2246.166094641343 1772.3298176814933
2246.7682001184166 1565.2429163751
2247.3701602961664 1786.1835890517984
2247.971975207871 1844.338634770879
2248.5736448867974 1716.1664388960642
2249.175169366197 1587.6790938443935
2249.7765486793123 1685.7853211688591
2250.3777828593684 1751.1797512802793
2250.9788719395783 1733.1024524969384
2251.579815953146 1637.3537965062642
2252.1806149332606 1544.3887781372646
2252.781268913097 1730.4882875670696
2253.381777925817 1402.8372201523482
2253.9821420045737 1768.4621034439588
2254.5823611825035 1917.662065566557
2255.1824354927303 1697.3630363684847
2255.782364968365 1583.9220348039778
2256.38214964251 1470.373377928005
2256.9817895482483 1412.9625504890087
2257.5812847186553 1645.248973384847
2258.180635186791 1395.6762952975357
2258.779840985704 1652.4883297024505
2259.37890214843 1724.6665822677219
2259.97781870799 1789.4675249044897
2260.5765906973957 1854.3990215280894
2261.175218149645 1665.9156032991355
2261.773701097718 1845.6057367543829
2262.3720395745895 1650.661558954825
2262.970233613216 1347.916235489112
2263.568283246548 1683.584383818509
2264.1661885075137 1537.854235520886
2264.763949429038 1488.907371984572
2265.3615660440246 1864.7241366313363
2265.959038385374 1932.076823371043
2266.5563664859637 1999.5745656112213
2267.153550378669 1619.4288156115786
2267.7505900963424 1573.6069045472111
2268.3474856718312 1527.8162354715746
2268.9442371379664 1636.0489078615587
2269.5408445275643 1604.1543105754167
2270.1373078734377 1627.2505694270164
2270.7336272083758 1650.4002717910043
2271.32980256516 1382.643297683281
2271.925833976562 1828.6011716917787
2272.5217214753357 2057.5432142461914
2273.117465094223 1617.238030410825
2273.7130648659586 1594.2266345000546
2274.308520823257 1561.927549503855
2274.903832998827 1802.218619624336
2275.4990014253563 1569.588903426666
2276.094026135528 1932.2339823551854
2276.6889071620117 1880.7083363776553
2277.2836445374614 1829.0051725544138
2277.878238294519 1581.3657388527322
2278.472688465812 1523.7390704929987
2279.066995083962 1465.9741104531217
2279.6611581815705 1591.116586245558
2280.255177791232 1946.1779466386179
2280.8490539455233 1743.4641488428115
2281.442786677013 1977.3677800703906
2282.0363760182554 2036.7669605334747
2282.6298220017943 1512.3237152208087
2283.223124660155 2083.0428563860783
2283.816284025859 1535.896937297534
2284.4093001314086 2092.453429667453
2285.002173009292 1397.0993307336098
2285.5949026919952 1862.4131021157725
2286.1874892119777 1800.266348849361
2286.7799326016993 1830.531483338997
2287.3722328936 1321.6671279146358
2287.964390120109 1242.732560017938
2288.556404313642 1862.696942815853
2289.1482755066027 2248.814498442494
2289.7400037313873 1862.624682463252
2290.3315890203703 1532.6066843028657
2290.9230314059205 1884.5255452074193
2291.5143309203904 1653.6696250130458
2292.1054875961236 1761.13846175975
2292.6965014654506 1971.859852709426
2293.287372560684 1410.9792398137129
2293.878100914131 1398.1772187943038
2294.468686558086 1385.3928784825125
2295.059129524827 1757.5353158859161
2295.649429846617 1894.8110774832046
2296.239587555716 1641.7846584038155
2296.8296026843636 1661.0056302790551
2297.419475264791 1682.5677545066912
2298.0092053292137 1704.0656252646454
2298.598792909839 1974.2908212015598
2299.1882380388597 1642.759592735824
2299.777540748455 1708.813533853796
2300.3667010707904 1774.8470509137728
2300.9557190380256 2103.16859129248
2301.544594682302 2121.972639015844
2302.1333280357503 1613.9795943991687
2302.721919130485 1831.7999929721057
2303.3103679986198 2017.8243398443817
2303.898674672242 2120.6144462536763
2304.486839183437 1570.0054758624694
2305.0748615642697 1772.9719729746007
2305.6627418468015 1623.1440250615105
2306.2504800630704 1628.1787075109405
2306.8380762451143 1840.2755322327848
2307.425530424949 1821.3444068710123
2308.012842634582 1802.3556425162376
2308.6000129060103 1932.6016913854492
2309.187041271214 1660.2472213048197
2309.773927762164 2198.100926117014
2310.3606724108213 1859.555289434574
2310.9472752491274 1485.1890308265133
2311.5337363090184 1898.3912428737428
2312.120055622414 1591.8443406214296
2312.706233221221 1629.8342369579395
2313.2922691373424 1917.7727373536334
2313.8781634026564 1481.2881496979585
2314.463916049037 1731.1059382949516
2315.049527108342 1968.344216384491
2315.6349966124235 2171.5331590707383
2316.2203245931123 2188.892957456576
2316.8055110822315 1910.8479360813558
2317.3905561115935 1632.1375983492358
2317.9754597129977 1561.1835819419573
2318.560221918229 1423.8525854122624
2319.1448427590603 1286.2408563760303
2319.729322267256 1374.0668330030594
2320.313660474563 1457.1910843604396
2320.8978574127195 1672.051143082211
2321.481913113452 1887.5631876989614
2322.0658276084705 1474.756777723332
2322.6496009294806 1712.421979484016
2323.233233108165 1924.0014147721977
2323.8167241762058 1698.8415631275234
2324.4000741652617 1785.0530669598934
2324.983283106987 2030.9655490406283
2325.5663510330232 1882.0358679618325
2326.1492779749933 1732.5436680019388
2326.7320639645204 1756.1248698083527
2327.3147090332004 1509.6249323149896
2327.897213212629 1698.9422891465874
2328.4795765343843 1888.3910645935023
2329.0617990300307 1505.8752946544087
2329.643880731124 1580.392129093125
2330.22582166921 1655.086152247845
2330.807621875816 2088.222248475401
2331.3892813824623 1362.7651945229811
2331.9708002206517 1459.0231586760908
2332.5521784218818 1495.272081914925
2333.133416017634 1531.6620323342866
2333.7145130393765 1650.7090687630146
2334.295469518571 2059.6752384557362
2334.876285486658 2027.8123153994816
2335.456960975076 2103.4791919888908
2336.037496015242 2179.3516385362136
2336.6178906385667 1841.2945495356246
2337.198144876451 1720.084970170526
2337.778258760278 1761.5596608549633
2338.3582323214214 1778.2241635125022
2338.938065591243 1794.882751604302
2339.517758601087 1877.7915487221078
2340.0973113822965 1988.377630999198
2340.676723966193 1771.3922531190133
2341.255996384094 1788.7460165552807
2341.835128667295 1847.6048886778049
2342.4141208470883 1861.5938705674957
2342.992972954751 1733.5964472666224
2343.5716850215467 1799.498462277726
2344.1502570787306 956.1131350515867
2344.7286891575386 1445.1174083627932
2345.3069812892045 1668.0397760066612
2345.885133504944 1891.2100854663627
2346.4631458359618 1600.056450897402
2347.04101831345 1451.2740605693975
2347.6187509685915 1568.9896068678938
2348.196343832553 1582.149972477757
2348.7737969364935 1541.217733453018
2349.351110311558 1428.6536749356071
2349.9282839888765 1455.8114529585748
2350.5053179995757 1229.4628540376768
2351.0822123747585 1330.1623010274623
2351.658967145526 1412.6983771711264
2352.2355823429643 1495.455813628126
2352.812057998144 1777.6273966147535
2353.3883941421263 1666.9423032683142
2353.9645908059647 1849.7690223048048
2354.540648020693 1654.5840480588492
2355.116565817336 1797.3670570113281
2355.6923442269126 1940.4849124195684
2356.2679832804224 1698.892352961882
2356.8434830088518 1725.4670353529564
2357.41884344318 1750.2573391390883
2357.994064614377 1637.7211656979005
