#exp_cfg={"servo_angle": 0.0, "laser_lim": 100.0, "servo_angle_to": 18.0, "laser_wup": 0.0, "bt_dev": "EnSpectr-25AE3", "laser_wdn_max": 0.0, "frames": 10.0, "servo_used": 0, "servo_calib_use": 0, "laser_wdn_min": 0.0, "servo_pix_from": 90.0, "cooler_tout": 300.0, "servo_angle_from": 0.0, "servo_calib": "[-1.9174921013161362e-09, 3.9322238269163779e-05, -0.27385609119055809, 653.59552119713567]", "laser_autoctl": 0, "servo_pix_to": 3682.0, "laser_pw": 100.0, "cooler_on": 0, "laser_volt": 4.0, "cooler_autoctl": 0, "cooler_curr": 70.0, "cooler_startup": 10.0, "laser_fixed_pw": 0, "gain": 1.3, "offset": 2.53059635486, "servo_calib_degree": 3.0, "laser_curr": 55.0, "shutter": 8200.0, "servo_calib_step": 1.0, "laser_fixed_curr": 0, "exp": 2000.0, "ccd_volt": 4.7, "bt_addr": "00:06:66:62:5A:E3", "servo_delay": 500.0, "laser_autooff": 1}
#proc_cfg={"flat_auto_wnd": 200.0, "flat_auto_fr": 200.0, "flat_auto_shift": 5.0, "yconv": 1, "flatten": 1, "flatten_strength": 100.0, "xfrom": 300.0, "auto_max_frame": 2000.0, "auto_signal": 48000.0, "flat_auto_tol": 0.1, "autoclip": 1, "xrel_range": 0.0, "flat_auto_to": 4000.0, "intensity_adj": 1.0, "xrel": 7852.0, "rmhot": 1, "flat_auto_slit": 4.999999999999997, "auto_ini_exp": 300.0, "auto_off": 0, "xto": 2860.0, "flat_auto_ref": "", "flat_auto_rank": 1, "autobackg": 0, "xrel_adj": 0.0, "auto_black_lvl": 1, "base_wnd": 100.0, "sub_baseline": 0, "xconv": 2, "auto_max_exp": 1000.0, "auto_total_exp": 10000.0, "auto_exp": 0, "rmripple": 0, "black_lvl": 8278.6125, "shutter_clip_adj": 0.0, "auto_bckg": 0, "flat_auto_thr": 0.9, "subbackg": 1}
316.8218498245369 18829.469094175343
317.89969571804795 18642.958472052924
318.977263876126 18650.63831095757
320.05455438786703 18641.271070267765
321.1315673423287 18555.29484402155
322.2083028285215 18612.443391670276
323.2847609354267 18496.388991268912
324.3609417519747 18467.74225335294
325.43684536705587 18375.787033212247
326.5124718695279 18366.71212099645
327.58782134820103 18330.41532962149
328.66289389184385 18302.389325448974
329.7376895891921 18085.49093733199
330.8122085289342 18069.155151343948
331.88645079971866 18134.643822714126
332.9604164901575 18055.782412637425
334.03410568881554 17994.652536287274
335.1075184842266 18192.47676342614
336.18065496487543 17964.25428050531
337.2535152192122 17937.094706953147
338.32609933564163 17917.132763987778
339.39840740253203 17863.072046074416
340.4704395082099 17884.908725481997
341.5421957409617 17787.514242018256
342.6136761890357 17843.35439837397
343.6848809406365 17710.71918187692
344.75581008392874 17625.676861949963
345.82646370703696 17696.24015884182
346.8968418980512 17557.1219749756
347.96694474501055 17557.660336009634
349.0367723359268 17511.488494911504
350.106324758759 17533.778247835464
351.1756021014353 17321.175918405177
352.2446044518383 17271.418393513482
353.31333189781435 17358.24349743303
354.38178452716966 17292.892785926157
355.449962427665 17242.027589092202
356.51786568702846 17223.99415706599
357.58549439294256 17285.3579002658
358.6528486330535 17261.78288432891
359.71992849496564 17151.06043182278
360.7867340662433 17094.59370859569
361.8532654344144 17114.22879037861
362.9195226869597 17105.25473554784
363.9855059113288 16968.732843459667
365.05121519492604 16880.57753605975
366.11665062511565 16979.52198704315
367.1818122892273 16999.02795454547
368.2467002745434 16976.704800636762
369.31131466831175 16814.42609616264
370.375655557742 16911.181348000126
371.4397230299983 16852.043724622927
372.5035171722102 16788.52205139405
373.5670380714637 16704.43874139695
374.6302858148101 16917.259169097008
375.6932604892554 16669.43133911954
376.7559621817709 16714.92094219401
377.81839097928605 16541.639219510766
378.8805469686886 16604.060604436854
379.94243023683157 16743.348748967874
381.0040408705263 16522.199609700278
382.0653789565458 16477.81047082411
383.1264445816196 16516.82488171246
384.1872378324406 16442.300759391575
385.2477587956637 16579.366083764126
386.3080075579037 16415.828800961393
387.3679842057336 16202.540186308313
388.4276888256918 16396.783146349855
389.48712150426945 16292.160653268395
390.54628232792857 16314.444433071894
391.6051713830857 16116.44069002153
392.66378875611736 16328.251410000372
393.7221345333637 16205.371195953156
394.7802088011249 16212.353605965709
395.838011645661 16139.704317320235
396.89554315319765 16067.528091846025
397.9528034099112 15969.936033157244
399.00979250194723 15869.127063276643
400.06651051541485 15935.625666776812
401.1229575363741 15987.328182093575
402.17913365085224 15799.263860528261
403.23503894483656 15967.210801067358
404.2906735042761 15838.154583978252
405.3460374150818 15784.118917195945
406.401130763119 15829.185303321588
407.455953634224 15785.569776385722
408.5105061141876 15650.838327515357
409.56478828876243 15531.884177406013
410.6188002436629 15589.525249420325
411.6725420645689 15539.910984331582
412.72601383711117 15629.49040476709
413.77921564689314 15573.457188893322
414.8321475794728 15575.435308890917
415.88480972036814 15396.668750639836
416.93720215506437 15508.784983260619
417.9893249690049 15366.13806052165
419.04117824759123 15290.729806131198
420.09276207619223 15373.82892125101
421.144076540133 15324.326455973167
422.1951217247042 15235.02566138891
423.24589771515275 15273.347128021724
424.2964045966928 15183.220127783465
425.34664245449494 15176.913219225298
426.3966113736933 15169.898134582556
427.4463114393875 15137.069865739268
428.49574273662984 15140.677570865806
429.5449053504417 14976.05498689643
430.5937993658026 15120.77678428258
431.6424248676558 15053.881858822395
432.6907819409007 14983.119807775798
433.73887067040596 15049.921060036602
434.7866911409965 14964.213664106053
435.8342434374608 14989.719729322847
436.88152764455117 14880.139052084618
437.9285438469724 14880.834506228097
438.9752921294057 14824.338075737021
440.02177257648145 14895.775145159534
441.06798527279716 14800.378901672771
442.1139303029122 14962.279995881981
443.1596077513459 14859.15801544779
444.2050177025794 14780.223018276763
445.25016024105753 14799.106756868161
446.2950354511886 14783.531254674486
447.33964341733736 14807.011524373087
448.383984223834 14747.36181929384
449.4280579549686 14674.015139059595
450.471864694995 14723.920072649018
451.5154045281306 14652.362033424059
452.5586775385509 14646.98520158501
453.60168381039693 14654.761209038905
454.64442342776783 14759.917576703525
455.6868964747264 14681.089653139317
456.7291030353008 14612.473187037365
457.77104319347563 14767.394577659477
458.8127170332027 14637.01075213304
459.854124638392 14667.210449870588
460.895266092919 14830.757224501367
461.93614148061897 14854.673437375619
462.97675088529104 14881.806499165683
464.01709439069236 14839.066922958878
465.0571720805492 14718.473034723313
466.0969840385442 14872.27767636053
467.1365303483253 15045.18894299986
468.17581109350067 14847.515731248623
469.2148263576437 14814.300129504254
470.2535762242878 14860.219281441681
471.29206077693016 14991.443001205364
472.33028009902773 14958.191957822622
473.3682342740012 14832.140036434965
474.40592338523857 14843.003142069292
475.4433475160804 14885.262662983674
476.4805067498364 14808.72355915787
477.51740116978 14700.726415760228
478.5540308591426 14701.9622523598
479.59039590112116 14751.273041725271
480.6264963788726 14634.853010620078
481.6623323755193 14640.91109424894
482.6979039741436 14499.572188295915
483.7332112577915 14602.497961421697
484.76825430947247 14712.070709699197
485.80303321215797 14566.490924936832
486.837548048783 14504.45856314865
487.8717989022425 14613.455478021084
488.90578585539697 14500.347679899594
489.9395089910686 14603.032105745815
490.97296839203955 14441.898470207398
492.00616414106116 14278.382579450854
493.0390963208429 14277.149224192375
494.0717650140559 14453.396808783498
495.10417030333883 14234.874694697748
496.1363122712901 14262.688293979581
497.16819100046814 14180.731262240728
498.1998065734024 14131.152534071394
499.2311590725767 14138.7811949658
500.26224858044407 14049.643670290116
501.2930751794156 14038.432483241757
502.3236389518679 14005.905475660242
503.35393998014115 13920.384004997142
504.38397834653733 13937.60845045139
505.4137541333221 13995.31810087745
506.4432674227228 13900.680220311344
507.4725182969323 13789.325309833666
508.5015068381035 13865.304388476457
509.53023312835467 13825.949379765132
510.55869724976765 13790.531546005916
511.58689928438434 13698.333753837782
512.6148393142121 13683.501135603892
513.6425174212218 13779.680565106955
514.6699336873462 13729.797658213347
515.6970881944835 13683.214348738558
516.7239810244901 13641.885954446256
517.7506122591931 13693.489085095745
518.7769819803761 13613.858964462162
519.8030902697901 13700.172355279157
520.8289372091476 13517.876864113583
521.8545228801249 13697.50780106911
522.8798473643619 13518.5652077667
523.9049107434621 13476.15582038089
524.9297130989908 13567.601275021292
525.9542545124805 13546.254858312535
526.9785350654201 13487.007331045334
528.0025548392696 13567.962821507539
529.0263139154504 13408.69231478257
530.0498123753423 13530.797713472033
531.073050300296 13441.474888495533
532.0960277716204 13304.602545491876
533.1187448705896 13410.683249321495
534.1412016784416 13408.6241896
535.1633982763833 13414.790418723342
536.1853347455726 13258.877326018148
537.2070111671401 13281.985020254151
538.2284276221817 13150.75899049961
539.2495841917516 13204.76658687274
540.2704809568677 13035.633948137252
541.2911179985167 13205.957705099334
542.3114953976419 13019.713467942376
543.3316132351592 12939.0109550814
544.3514715919409 12878.167683766274
545.3710705488247 12998.379726836822
546.3904101866156 12880.445995420436
547.4094905860784 12988.207597063978
548.4283118279418 12889.111095735901
549.4468739929034 12984.870380501485
550.4651771616191 12856.662502875386
551.4832214147063 12736.931310402002
552.501006832761 12792.982192059722
553.5185334963226 12795.823509462525
554.5358014859103 12845.611777754151
555.5528108820035 12884.257478339747
556.5695617650363 12824.791407366323
557.5860542154242 12841.590194900953
558.6022883135283 12721.2812236391
559.6182641396881 12701.17333048127
560.6339817741991 12769.471794971352
561.6494412973225 12861.193072922497
562.6646427892883 12903.647438396318
563.6795863302796 12756.919381975571
564.694272000459 12649.207893435556
565.7086998799423 12839.847474425402
566.7228700488104 12679.203180654937
567.7367825871115 12667.23381459889
568.7504375748576 12709.601619386734
569.7638350920224 12616.554901778105
570.7769752185486 12598.0933276358
571.7898580343353 12632.554861947894
572.802483619258 12523.305694074155
573.8148520531431 12637.68140140404
574.8269634157932 12577.664599451686
575.8388177869692 12463.423776464839
576.8504152463938 12444.484533355873
577.8617558737587 12575.119195872401
578.8728397487175 12395.008290423555
579.883666950891 12371.133274111064
580.8942375598654 12442.937563224956
581.9045516551851 12596.4360162001
582.9146093163617 12636.628179979976
583.924410622878 12416.047235388996
584.9339556541727 12436.552070802321
585.9432444896538 12522.556579983759
586.9522772086875 12378.959935594077
587.9610538906127 12525.013222458261
588.9695746147318 12482.084004480708
589.9778394603054 12413.138302100237
590.985848506567 12475.949561933492
591.9936018327098 12360.814204882106
593.0010995178891 12172.367335606748
594.0083416412344 12430.5781366491
595.0153282818283 12064.125326045734
596.0220595187293 12134.941715559176
597.0285354309508 12149.71178132245
598.0347560974806 12110.32078491878
599.0407215972609 12152.327427469034
600.0464320092051 12136.186625390807
601.0518874121954 12121.347047456784
602.0570878850685 12068.192564220468
603.062033506636 12096.743868807644
604.0667243556636 12090.036650825
605.0711605108936 12019.623603181051
606.0753420510264 12309.552487703739
607.0792690547278 12050.958860823826
608.082941600629 12021.27580443113
609.0863597673306 12167.368945951635
610.0895236333909 12154.934311479145
611.0924332773357 12262.701862511869
612.0950887776617 12203.926963459233
613.0974902128219 12150.782262257344
614.0996376612384 12400.065213148257
615.1015312013005 12430.363452758596
616.1031709113595 12428.730729840861
617.1045568697336 12405.852861013267
618.1056891547069 12467.480999474894
619.1065678445229 12489.820439695119
620.1071930173985 12803.608372158265
621.1075647515099 12628.31910774658
622.1076831250048 12571.643756305437
623.1075482159849 12683.1629952984
624.1071601025305 12540.728803824448
625.1065188626781 12513.83202598271
626.105624574433 12711.004351368836
627.1044773157682 12687.281539520089
628.1030771646128 12456.25483251473
629.1014241988742 12595.892034506865
630.0995184964158 12589.289284389923
631.0973601350688 12569.657706871529
632.0949491926294 12665.001399849594
633.0922857468631 12394.25636141765
634.089369875499 12579.66052266353
635.0862016562278 12501.016578492061
636.0827811667077 12225.561686965853
637.0791084845641 12266.373136873628
638.0751836873878 12233.985908927843
639.0710068527369 12338.95510726483
640.0665780581294 12118.711761929386
641.0618973810506 12206.62646749216
642.0569648989604 12221.139770284857
643.0517806892676 12040.531256315266
644.0463448293649 12190.92904988075
645.040657396592 11960.153673457355
646.0347184682723 11988.475015998032
647.0285281216875 11829.891335876851
648.0220864340772 11812.700545857073
649.0153934826558 11796.12354791119
650.0084493446047 11792.12651143328
651.0012540970674 11792.760611079315
651.9938078171526 11726.54148420857
652.9861105819346 11630.753364830152
653.9781624684565 11758.812667448141
654.9699635537254 11550.882540074335
655.9615139147136 11600.304079222227
656.9528136283589 11425.504862933638
657.9438627715699 11587.295853276515
658.9346614212154 11462.038985420888
659.925209654135 11252.716850121244
660.9155075471263 11367.00914893507
661.9055551769616 11391.433298344124
662.895352620375 11440.99826901421
663.8848999540678 11319.890513900333
664.8741972547068 11226.026035807354
665.863244598926 11149.233976956019
666.8520420633213 11280.653221381035
667.8405897244611 11105.028406561567
668.8288876588758 11024.052982221887
669.8169359430613 11104.836462787713
670.8047346534822 11095.975507733503
671.7922838665672 11016.688718468447
672.7795836587156 11054.543299813435
673.766634106285 11162.96593534698
674.7534352856092 10945.795615213798
675.7399872729766 10912.05687866385
676.7262901446538 10997.61417406709
677.712343976862 10940.856898134385
678.6981488457986 11067.225105014899
679.6837048276229 10815.2175176516
680.6690119984596 10925.742858820222
681.6540704344043 10976.596036404402
682.6388802115107 10779.004322135177
683.6234414058108 10865.29416989737
684.6077540932874 10774.505998239532
685.591818349907 10852.030690873526
686.575634251587 10873.770222624535
687.5592018742263 10793.645905675025
688.5425212936734 10603.757253936761
689.5255925857564 10822.145564282975
690.5084158262707 10799.73963045846
691.4909910909646 10766.851337979646
692.4733184555644 10669.394345153052
693.4553979957618 10849.445929481231
694.4372297872123 10654.960760290953
695.4188139055404 10739.820959053859
696.4001504263324 10655.43189871731
697.3812394251509 10788.481330708642
698.3620809775111 10764.551230906352
699.3426751589104 10692.578087560103
700.3230220448004 10591.059068856644
701.3031217106054 10800.404386135911
702.2829742317172 10990.346478060073
703.2625796834873 10724.361661085697
704.2419381412474 10765.856123520367
705.22104968028 10836.228839688381
706.1999143758458 10840.393315026666
707.178532303169 10815.194032669086
708.1569035374378 10927.883562709432
709.1350281538107 11154.418838033154
710.1129062274158 11146.669968758679
711.0905378333373 11477.015704360838
712.0679230466376 11591.88284294944
713.0450619423427 11972.526064798461
714.0219545954424 12231.241574960568
714.9986010808989 12285.962008839724
715.9750014736292 12593.662290575177
716.9511558485392 12924.161919549782
717.9270642804786 13171.035498804544
718.9027268442787 13308.066144499757
719.8781436147328 13301.038799131838
720.8533146666014 13307.085127720999
721.828240074612 13215.729043732932
722.8029199134635 12977.132190067361
723.7773542578125 12794.113072490294
724.751543182294 12472.744777857799
725.7254867615029 12248.859996865189
726.6991850700015 11874.231591246335
727.6726381823228 11691.17652732432
728.6458461729599 11629.815103219918
729.6188091163858 11402.97376484018
730.5915270870246 11346.263879753204
731.5640001592856 11163.116585922668
732.536228407529 11225.342683100986
733.5082119060917 11200.412441731063
734.4799507292755 11090.977106387854
735.4514449513481 11093.783044884947
736.4226946465496 11140.450094478136
737.3936998890786 11171.74876218818
738.3644607531078 10939.665731642377
739.3349773127793 10870.389725566205
740.3052496421951 10900.839269345832
741.27527781543 10658.248419532756
742.2450619065221 10487.983184762656
743.2146019894826 10485.412530675329
744.183898138288 10407.77134682878
745.1529504268801 10301.359263072798
746.1217589291682 10051.183948062131
747.0903237190341 10070.860992433145
748.058644870318 10033.840519913363
749.0267224568397 9972.836933712158
749.994556552374 9762.533275321652
750.9621472306771 9725.424180644775
751.9294945654583 9769.529288253216
752.8965986304011 9758.641899328966
753.8634594991636 9593.653923399033
754.8300772453586 9723.887452019131
755.7964519425768 9553.435992127981
756.762583664371 9730.756789312803
757.7284724842611 9597.646457087614
758.6941184757416 9509.950680461438
759.6595217122667 9485.928112220352
760.6246822672638 9502.641534759729
761.5896002141235 9396.281121943686
762.5542756262093 9402.079718584177
763.5187085768503 9416.8775940258
764.4828991393406 9352.217079926955
765.4468473869474 9353.563568053014
766.4105533929032 9368.30551590473
767.3740172304078 9320.1277139149
768.3372389726283 9447.967011744862
769.3002186926988 9286.437512957189
770.2629564637282 9318.90242140496
771.2254523587872 9272.546123808022
772.1877064509154 9253.199667394974
773.1497188131179 9103.219615243466
774.1114895183728 9103.946824815635
775.0730186396268 9130.502749064122
776.0343062497905 9104.293125381582
776.9953524217381 9080.486507830312
777.9561572283274 9122.620245386559
778.9167207423689 9092.746462015939
779.8770430366476 8939.788749974194
780.8371241839159 9017.994143748883
781.7969642568951 8958.82984962858
782.7565633282757 9194.555686833344
783.7159214707099 8935.695581749462
784.6750387568281 9041.66501474971
785.6339152592227 8917.514129470812
786.5925510504512 8897.675422586135
787.5509462030477 8955.570640089923
788.5091007895098 8920.272397582317
789.4670148823006 8939.696081981125
790.4246885538596 8860.940742258948
791.3821218765861 8851.309860808897
792.3393149228505 8725.262369060203
793.2962677649975 8890.974380659638
794.2529804753303 8894.215280880968
795.20945312613 8924.848979154915
796.1656857896378 8768.373325547913
797.1216785380675 8723.928716766062
798.0774314435985 8859.43694940828
799.0329445783846 8934.273394526406
799.9882180145414 8822.57521232308
800.9432518241574 8791.847691101257
801.89804607929 8841.898588802236
802.852600851962 8876.158051706774
803.8069162141637 8771.453380834744
804.760992237856 8806.412325387984
805.714828994971 8855.972510556025
806.6684265574077 8875.786607090498
807.6217849970271 8697.244741491255
808.574904385674 8676.230872661945
809.527784795142 8857.591391921223
810.4804262972102 8930.375951388589
811.4328289636178 8766.168649137497
812.3849928660748 8607.748653374441
813.3369180762638 8653.85067354063
814.2886046658241 8767.46879419535
815.2400527063783 8544.2218878825
816.1912622695108 8586.243330311316
817.1422334267718 8666.703448335407
818.0929662496856 8608.880344905727
819.0434608097457 8401.22632625726
819.9937171784059 8458.22694965933
820.9437354271013 8446.357009458532
821.8935156272255 8590.422177996044
822.8430578501484 8388.375575255839
823.7923621672016 8266.12857225029
824.7414286496896 8392.49447726584
825.6902573688876 8471.07675491552
826.6388483960363 8395.62999968521
827.5872018023492 8273.417900798295
828.5353176590033 8373.900056940438
829.4831960371503 8257.054807407974
830.4308370079016 8268.087267140081
831.3782406423525 8345.423278340555
832.3254070115545 8323.908541193252
833.2723361865319 8190.496082253068
834.2190282382799 8158.759599125037
835.1654832377644 8267.538619490453
836.1117012559116 8103.919562787154
837.0576823636256 8363.324873903142
838.003426631778 8049.631063481557
838.9489341312074 8049.179356781638
839.8942049327197 8175.742283546819
840.8392391070975 8211.223910233959
841.7840367250865 8155.564704328883
842.7285978573982 8033.711050040132
843.672922574724 8210.200996106718
844.6170109477152 8089.268950667705
845.560863046996 8061.175429806991
846.5044789431595 8105.5167094244025
847.4478587067697 8077.844168064346
848.3910024083561 8206.175568468421
849.333910118421 8068.700984197322
850.2765819074339 7918.145141546942
851.2190178458332 8092.954962205319
852.161218004032 8192.368510918519
853.1031824524016 8086.754967714502
854.0449112612987 8036.467452577279
854.9864045010327 8106.7320466467045
855.9276622418947 7988.9557322769815
856.8686845541379 7973.15343280908
857.8094715079915 7931.806120947398
858.7500231736467 8154.81658518081
859.690339621271 8042.046696931077
860.6304209209939 8038.947801485138
861.5702671429244 7844.4381644162495
862.5098783571284 7997.8554641261335
863.4492546336569 7983.6055032061895
864.3883960425155 7926.519693758039
865.3273026536863 7865.025232454711
866.2659745371238 7806.77048280258
867.2044117627465 7992.81884207705
868.1426144004472 7877.696098520508
869.0805825200823 7974.97242959272
870.0183161914847 7923.895837162471
870.9558154844526 7943.712627982331
871.8930804687552 7947.801655917605
872.8301112141307 7769.040240195439
873.7669077902865 7916.499927517859
874.7034702669062 7996.377801045203
875.6397987136315 7868.547601660399
876.5758932000863 7922.520270020372
877.5117537958522 7951.948358507179
878.4473805704911 7878.798748023993
879.3827735935283 7787.054066729144
880.3179329344603 7970.945490868182
881.2528586627541 7949.664779136355
882.1875508478479 8024.169085709135
883.1220095591489 7821.70606265871
884.0562348660296 7763.2301624368165
884.9902268378391 7924.606776226964
885.9239855438955 7852.046193599689
886.8575110534839 7707.0098121844585
887.7908034358588 7837.680158969444
888.7238627602474 7881.087895592311
889.6566890958475 7756.8079042596555
890.5892825118208 7679.376009609917
891.5216430773125 7738.0431892586585
892.4537708614189 7803.39227744924
893.3856659332196 7716.614690632821
894.3173283617652 7646.990445068206
895.2487582160684 7759.510759764016
896.179955565116 7660.297502237549
897.110920477864 7639.897182731785
898.0416530232451 7593.467707297983
898.9721532701478 7594.786561988386
899.9024212874428 7744.116306976228
900.8324571439662 7574.7467254456815
901.7622609085302 7580.226205227242
902.6918326499072 7523.7608202291685
903.6211724368477 7597.599226036096
904.5502803380696 7672.648631990104
905.4791564222614 7789.685096256797
906.4078007580792 7541.596692562668
907.3362134141571 7506.520249438763
908.2643944590909 7698.227722437163
909.1923439614493 7529.008463902271
910.1200619897754 7523.539122920818
911.0475486125779 7813.83377774897
911.9748038983344 7555.230205201266
912.9018279155007 7538.191953048719
913.8286207324982 7389.583800707107
914.7551824177117 7546.136043249842
915.6815130395116 7525.712557714973
916.6076126662283 7318.124112353777
917.533481366163 7402.771758000554
918.4591192075914 7428.6875695767785
919.3845262587565 7509.9287504689855
920.3097025878706 7374.448511341885
921.2346482631237 7376.395369495827
922.1593633526682 7386.600199623868
923.0838479246304 7505.583797218885
924.0081020471061 7543.745860323164
924.9321257881656 7273.026377672107
925.8559192158464 7364.696341149148
926.7794823981512 7320.375248616248
927.7028154030686 7227.380253109615
928.6259182985414 7244.858560473849
929.5487911524906 7442.019210315094
930.4714340328119 7431.845159321808
931.3938470073608 7192.267567035461
932.3160301439748 7237.553814552857
933.2379835104548 7242.284381737234
934.1597071745709 7409.54231237856
935.0812012040769 7275.325519895303
936.002465666681 7416.408662597748
936.9235006300696 7459.461127578371
937.8443061619055 7335.399983475729
938.7648823298077 7191.794841119334
939.6852292013809 7270.67577918492
940.6053468441951 7384.446672115015
941.5252353257874 7270.876729862265
942.4448947136698 7324.879389572941
943.364325075323 7240.064971394851
944.2835264782043 7266.0188035600195
945.2024989897309 7288.355670866544
946.1212426773054 7291.37599147935
947.0397576082851 7403.705458857131
947.9580438500125 7548.662713378479
948.8761014697939 7428.67560423736
949.7939305349064 7455.6111017899
950.7115311125999 7394.931483093683
951.6289032700952 7335.049630640274
952.5460470745875 7501.257992204572
953.4629625932339 7299.656927320799
954.3796498931715 7451.725718956608
955.2961090415029 7455.477083658045
956.2123401053068 7419.847158420353
957.1283431516276 7411.882183908341
958.0441182474842 7337.791838883097
958.9596654598663 7544.863464974905
959.8749848557309 7378.328831356872
960.7900765020167 7253.526778429124
961.7049404656209 7231.57726461459
962.6195768134185 7366.141003079412
963.5339856122537 7331.48482391342
964.4481669289453 7292.313287671275
965.3621208302793 7289.486677775002
966.2758473830145 7100.441002477621
967.1893466538822 7396.42504449389
968.1026187095813 7207.547903959358
969.0156636167867 7195.33752220914
969.9284814421426 7237.592457459497
970.8410722522622 7167.940639899675
971.753436113735 7114.556631187738
972.6655730931161 7150.41882624539
973.5774832569368 7173.775996686234
974.4891666716958 7075.681965863293
975.4006234038698 7019.122948719579
976.3118535198955 6961.854002956304
977.2228570861935 7178.641422911327
978.1336341691494 7149.178314742688
979.0441848351202 6938.835404872499
979.9545091504333 7144.2421634470065
980.864607181391 7046.342007171556
981.7744789942699 7146.819510255322
982.6841246553086 7023.18454827783
983.5935442307236 7098.893382739616
984.5027377867027 7119.110410589483
985.4117053894024 7065.030821344217
986.3204471049557 6968.9410156254935
987.2289629994648 7030.171760838019
988.1372531390007 7195.113754034474
989.0453175896091 7044.067593411253
989.9531564173067 7052.884864389959
990.860769688079 6928.059592474361
991.7681574678918 6957.047889404504
992.6753198226706 7057.57105739794
993.582256818323 7005.7088371833115
994.4889685207218 6967.690261462628
995.3954549957143 7186.532455082835
996.301716309119 7223.050042271259
997.2077525267232 7079.5583598289795
998.1135637142943 6956.418253131835
999.0191499375615 7086.23047854467
999.924511262232 7127.25938738447
1000.8296477539861 7081.097622536567
1001.7345594784656 6951.1402298084895
1002.6392465012996 6916.472409901595
1003.5437088880753 7064.625087382628
1004.4479467043584 7020.0215588773135
1005.3519600156869 6768.7093363131835
1006.2557488875718 6951.015652605807
1007.1593133854858 6961.64870239639
1008.0626535748888 6825.2774894283575
1008.9657695212009 6689.174783113519
1009.8686612898182 7018.292846627194
1010.7713289461135 6913.283267548691
1011.6737725554212 6820.498743287384
1012.5759921830577 6808.227472455964
1013.4779878943027 6852.040517414946
1014.379759754418 6899.309137739991
1015.2813078286254 6722.040903046132
1016.18263218213 6722.94476805786
1017.0837328801026 6791.586312624754
1017.9846099876886 6848.019140662827
1018.8852635700023 6681.260874604816
1019.7856936921362 6681.941011646091
1020.6859004191447 6885.351291606048
1021.5858838160675 6714.995352873646
1022.4856439479063 6670.614327098588
1023.3851808796389 6628.926214233194
1024.2844946762143 6781.557587598404
1025.183585402554 6764.364877755591
1026.082453123554 6487.638952469518
1026.9810979040776 6690.288440178653
1027.8795198089647 6517.353852326442
1028.777718903024 6643.654200197113
1029.6756952510368 6536.831022790457
1030.5734489177648 6546.152838296775
1031.4709799679313 6588.708263776042
1032.3682884662358 6820.684616616604
1033.2653744773506 6456.3148582810545
1034.1622380659192 6548.785836971774
1035.058879296559 6531.901526629963
1035.9552982338591 6714.111693667488
1036.8514949423825 6552.7614203507455
1037.7474694866614 6458.243798380738
1038.6432219312028 6435.630445548371
1039.5387523404825 6654.4539307122495
1040.4340607789582 6424.466175794207
1041.3291473110476 6486.835839158074
1042.2240120011465 6571.956920500915
1043.1186549136273 6587.168128574092
1044.0130761128294 6384.812919898222
1044.9072756630649 6361.400430610264
1045.8012536286205 6549.610904648814
1046.6950100737577 6551.65245120606
1047.588545062701 6588.469046998602
1048.481858659663 6539.06877584617
1049.3749509288118 6666.653297560125
1050.2678219343034 6415.565906777911
1051.1604717402515 6548.527542598296
1052.0529004107575 6388.701721814321
1052.9451080098825 6623.318630691705
1053.8370946016694 6586.294411882494
1054.7288602501267 6606.729644056155
1055.6204050192446 6568.927591879287
1056.511728972977 6589.361468446505
1057.402832175254 6548.274269144563
1058.2937146899785 6476.7390205952415
1059.1843765810263 6455.696667056385
1060.0748179122456 6592.9862272755245
1060.9650387474576 6570.340044623056
1061.855039150456 6508.916552301487
1062.7448191850071 6539.344639433712
1063.6343789148505 6543.03150751409
1064.5237184037014 6680.838034961501
1065.412837715241 6453.439474586876
1066.3017369131267 6562.026493271696
1067.190416060992 6420.012423098314
1068.0788752224398 6417.809979275814
1068.9671144610438 6456.796680824618
1069.8551338403558 6591.836464007203
1070.7429334239023 6590.513141883932
1071.6305132751695 6338.087604586997
1072.517873457633 6506.41677878205
1073.4050140347335 6417.896957925239
1074.2919350698776 6508.644500656599
1075.1786366264623 6459.913621194
1076.0651187678395 6491.801353920335
1076.95138155735 6355.916992470608
1077.8374250582929 6479.522630792449
1078.7232493339507 6519.737053460706
1079.608854447577 6476.465317060805
1080.4942404623907 6391.664912709422
1081.3794074415982 6580.012108448662
1082.2643554483657 6615.871055182647
1083.149084545841 6567.245401992688
1084.033594797138 6478.427305794766
1084.9178862653516 6523.31022096514
1085.8019590135427 6705.636778644189
1086.6858131047484 6454.135922411707
1087.5694486019802 6689.062476716429
1088.4528655682225 6628.010304857851
1089.3360640664287 6815.632540840203
1090.2190441595321 6746.4682856522995
1091.1018059104317 6784.817316262391
1091.98434938201 6807.818284796342
1092.866674637111 6850.151541162444
1093.748781738559 6684.625914773697
1094.6306707491512 6541.148933918602
1095.5123417316554 6696.368667600235
1096.3937947488157 6590.454033784175
1097.2750298633455 6646.048931854432
1098.156047137938 6541.254125090104
1099.0368466352556 6579.256721837834
1099.9174284179317 6651.03172236355
1100.7977925485757 6346.275907178594
1101.6779390897755 6377.456387482331
1102.5578681040806 6403.969576578461
1103.4375796540226 6383.497426656629
1104.3170738021054 6334.1760204315615
1105.1963506108077 6106.639180093977
1106.0754101425773 6210.541014772671
1106.9542524598382 6257.81344651474
1107.8328776249855 6142.966643578398
1108.7112857003904 6102.411698015128
1109.5894767483987 6026.864719621515
1110.4674508313292 6196.663332514545
1111.3452080114657 6082.969533299446
1112.2227483510815 6147.9560829630545
1113.1000719124077 6180.629370695747
1113.9771787576592 6252.721293482323
1114.854068949022 6038.634014647993
1115.7307425486542 6119.937627231966
1116.6071996186893 6159.39243306087
1117.483440221229 6288.636497015098
1118.3594644183577 5946.995923724834
1119.235272272128 6025.053028914312
1120.1108638445658 6135.089963405007
1120.9862391976712 6303.348726078576
1121.8613983934229 6099.64334586245
1122.7363414937627 6118.208715538645
1123.6110685606182 6057.306669373667
1124.485579655884 6234.225879188753
1125.359874841426 6146.622052815982
1126.2339541790916 6021.515183180871
1127.1078177306936 6321.1502322045
1127.9814655580267 6132.697975884192
1128.854897722851 6115.014212478836
1129.7281142869106 6046.6880661903615
1130.6011153119125 6112.21488673904
1131.473900859548 6239.238438077662
1132.3464709914697 6137.935973733927
1133.2188257693178 6117.500686521164
1134.0909652546961 5927.92330217247
1134.96288950919 5875.814638448255
1135.8345985943506 6119.852835478256
1136.7060925717087 5908.8089473461605
1137.57737150277 5947.790785765134
1138.4484354490069 6160.116310740947
1139.3192844718778 5873.013252315139
1140.1899186327992 5744.575396672842
1141.060337993178 6016.44724216843
1141.930542614382 5820.738117545087
1142.8005325577597 5779.535741853395
1143.670307884635 5665.499141233545
1144.5398686563003 5962.674862170922
1145.409214934025 5795.983163108049
1146.2783467790541 5600.0182043078075
1147.1472642526023 5730.870052735562
1148.0159674158622 5813.187939366224
1148.8844563300026 5620.393346657072
1149.7527310561618 5606.1438250838455
1150.6207916554504 5586.006194312292
1151.4886381889592 5609.924138523753
1152.3562707177498 5724.6120587793075
1153.2236893028585 5601.633873672351
1154.090894005296 5535.900846580203
1154.9578848860474 5636.7244483662735
1155.8246620060709 5598.174008216455
1156.6912254262988 5407.362852267496
1157.5575752076438 5519.972297072431
1158.42371141098 5725.127015359902
1159.2896340971656 5706.310881469186
1160.1553433270346 5504.55056288373
1161.0208391613887 5579.031770580539
1161.8861216610057 5587.417694336979
1162.75119088664 5695.217791281971
1163.6160468990201 5525.374062973098
1164.4806897588442 5476.9871865778305
1165.3451195267917 5701.861407757204
1166.2093362635114 5595.191867764715
1167.0733400296285 5600.283818364163
1167.9371308857444 5538.731745009263
1168.8007088924278 5472.137323498576
1169.6640741102328 5636.575327542
1170.5272265996773 5471.232687851754
1171.390166421259 5441.5353979234515
1172.252893635452 5603.119983608043
1173.1154083026995 5763.716778167799
1173.977710483421 5630.670854421636
1174.8398002380145 5424.681838433975
1175.7016776268483 5623.212313975294
1176.563342710264 5553.928255712067
1177.4247955485826 5449.570235187977
1178.2860362020947 5634.0594595874045
1179.147064731069 5459.945851880058
1180.0078811957483 5584.4377896849755
1180.8684856563486 5491.703339196124
1181.7288781730604 5543.657827340372
1182.589058806052 5530.164614470361
1183.4490276154593 5709.073669384704
1184.3087846614017 5553.311008092294
1185.1683300039676 5538.09421899679
1186.027663703222 5705.335336413102
1186.8867858192025 5535.56809219433
1187.7456964119228 5600.27759894942
1188.6043955413716 5521.806602312574
1189.4628832675116 5639.9513765652
1190.3211596502842 5761.847757270289
1191.179224749596 5694.562228567727
1192.0370786253388 5494.15509331007
1192.8947213373758 5789.372222354092
1193.7521529455407 5863.973801343193
1194.6093735096438 5519.468833048208
1195.466383089477 5497.9043225951345
1196.3231817447977 5539.647416704925
1197.1797695353398 5784.72932248752
1198.0361465208189 5484.235959526696
1198.8923127609214 5529.910125726236
1199.7482683153048 5702.526571446655
1200.6040132436028 5865.0026283607285
1201.459547605431 5622.922061617078
1202.3148714603722 5585.495662683425
1203.1699848679855 5666.639858669379
1204.0248878878065 5751.658533637012
1204.8795805793507 5396.6749262316725
1205.7340630020935 5677.9897015912275
1206.5883352155033 5765.58417003231
1207.4423972790064 5734.018008596957
1208.2962492520237 5517.278338583963
1209.1498911939307 5587.068938011554
1210.0033231640937 5589.189677401183
1210.8565452218427 5661.671649946772
1211.7095574264913 5314.647094089056
1212.5623598373222 5464.584494693186
1213.4149525135963 5408.452793567145
1214.2673355145507 5534.845611379979
1215.1195088993936 5422.829624243998
1215.9714727273113 5367.010306133065
1216.8232270574663 5575.033068423843
1217.6747719489904 5276.773119653157
1218.5261074609934 5382.766105193985
1219.3772336525653 5478.481004457636
1220.2281505827668 5452.6144039073315
1221.0788583106296 5603.783595115501
1221.9293568951707 5244.279112708399
1222.7796463953746 5236.292162204442
1223.629726870202 5440.498372595917
1224.4795983785934 5528.149420124173
1225.3292609794553 5358.775820283464
1226.1787147316809 5219.843891547243
1227.0279596941327 5329.818729388286
1227.8769959256424 5234.6474847384
1228.7258234850306 5320.038126620637
1229.5744424310833 5117.309006131687
1230.422852822563 5384.0459150782435
1231.2710547182105 5525.735509248956
1232.119048176739 5228.687782419444
1232.9668332568417 5033.7395081952845
1233.8144100171812 5276.845558843771
1234.6617785163999 5279.994372407663
1235.508938813111 4976.9062138528725
1236.3558909659114 5062.996192937533
1237.2026350333617 5277.797013370207
1238.049171074008 5327.2047507831685
1238.8954991463652 5089.100129965363
1239.741619308932 5144.566118926274
1240.587531620169 4226.880495274621
1241.4332361385277 5272.051711168128
1242.2787329224248 5105.34625869612
1243.1240220302534 4966.0350305354605
1243.9691035203869 4990.714010788884
1244.813977451171 5228.663240175394
1245.6586438809263 5118.183636632786
1246.5031028679496 4854.731073550733
1247.3473544705157 5212.091241592067
1248.1913987468706 5096.144336437204
1249.0352357552383 4895.13378323047
1249.8788655538228 5031.968302377742
1250.7222882007918 5088.892583938397
1251.565503754302 5129.51005042186
1252.4085122724755 4762.756392312521
1253.2513138134182 5190.472373876707
1254.0939084352049 5105.720283130027
1254.9362961958905 5035.019354442708
1255.7784771535007 4986.175782324402
1256.6204513660432 5041.1557047084025
1257.4622188915 5282.3280818388685
1258.3037797878242 4994.553450960471
1259.1451341129468 4945.195898429211
1259.9862819247755 5124.736570957234
1260.8272232811978 5061.716867818801
1261.6679582400666 5244.301600002478
1262.5084868592203 4914.331100997768
1263.34880919647 5039.731527383809
1264.1889253095997 5084.483656548055
1265.0288352563712 5192.0347860387365
1265.8685390945266 5061.165825745598
1266.7080368817751 5236.79386086485
1267.5473286758115 5336.45346702499
1268.386414534294 5180.537947076242
1269.2252945148703 4917.722586152244
1270.0639686751547 5087.592240381885
1270.9024370727402 5096.683607105178
1271.7406997651997 5014.900526649444
1272.5787568100714 4946.484653640329
1273.4166082648808 5065.841384316495
1274.2542541871244 5033.360294830816
1275.091694634275 5378.338997399395
1275.9289296637817 4952.985538935913
1276.7659593330663 5113.543947102256
1277.6027836995308 5056.575626597483
1278.4394028205552 5305.540732258467
1279.2758167534867 5131.916763532816
1280.112025555658 5027.16897267472
1280.9480292843746 5182.269470430824
1281.7838279969128 4946.101608229061
1282.6194217505326 4999.74311349208
1283.4548106024686 4884.62206876388
1284.289994609926 4994.347597279616
1285.1249738300921 5138.9507020049605
1285.959748320127 4944.74559225489
1286.7943181371702 4968.600772069583
1287.6286833383328 5004.797618102168
1288.4628439807038 4999.005712780378
1289.2968001213521 4915.7862189817215
1290.1305518173194 5008.9017044192715
1290.9640991256183 5021.617968785145
1291.7974421032523 4930.6040349529085
1292.630580807183 4869.835438829622
1293.463515294361 5012.203668632516
1294.29624562171 5138.044318959519
1295.12877184613 4924.301831567301
1295.961094024493 4928.836516020118
1296.79321221365 4956.590470690256
1297.6251264704333 5032.861887403139
1298.4568368516466 5317.661058852244
1299.2883434140658 5137.273538133234
1300.1196462144526 4884.162057778585
1300.9507453095375 5153.809777816964
1301.7816407560313 5156.694300409034
1302.6123326106172 5061.1412305877
1303.4428209299622 4963.927061984068
1304.2731057707024 5300.025011308216
1305.1031871894502 5030.244471419344
1305.933065242798 5140.806540721992
1306.7627399873181 5128.069787241647
1307.5922114795467 5531.833676974102
1308.4214797760123 5539.246504392786
1309.2505449332057 5192.808480285105
1310.0794070076026 5231.252652348526
1310.9080660556538 5363.959422975856
1311.736522133786 5415.360383338905
1312.5647752983987 5086.223185587803
1313.3928256058734 4991.383769821236
1314.2206731125661 5277.377971335207
1315.048317874809 5273.112610945241
1315.8757599489109 5143.85062086375
1316.7029993911547 5201.055124239593
1317.5300362578055 5400.74023141025
1318.356870605101 5145.614715518858
1319.183502489257 5210.21150934427
1320.0099319664623 5324.594266106474
1320.836159092889 5341.582396158863
1321.66218392468 5409.94075313939
1322.4880065179532 5117.938950229702
1323.3136269288134 5382.509892372198
1324.1390452133292 5525.218818181674
1324.9642614275563 5509.057042083676
1325.7892756275214 5310.082177539452
1326.6140878692295 5132.067411805479
1327.4386982086617 5681.958271487927
1328.2631067017755 5375.971917990479
1329.0873134045069 5374.239076550513
1329.911318372764 5297.0479993971685
1330.735121662441 5201.561326447667
1331.558723329399 5237.806169286872
1332.3821234294774 5148.883354846216
1333.2053220185007 5230.446067696148
1334.0283191522612 5108.915792256005
1334.851114886529 5210.528327933234
1335.6737092770582 4951.282369961484
1336.4961023795695 5113.221857523781
1337.3182942497697 4988.568966879398
1338.1402849433325 4963.718667446376
1338.962074515921 4840.10369844914
1339.7836630231632 4821.551852780505
1340.6050505206676 5346.668619247956
1341.426237064028 5060.210398383711
1342.2472227088037 4890.067954018643
1343.0680075105338 4720.180000183339
1343.888591524741 4943.729630046218
1344.7089748069138 5054.739784129246
1345.5291574125276 4768.997729423801
1346.3491393970307 4672.077877554262
1347.168920815846 4887.407178464498
1347.9885017243778 4933.714586113265
1348.8078821780036 4735.753649620367
1349.6270622320844 4865.110091851058
1350.4460419419447 4726.0131767652865
1351.2648213629054 4820.544768774393
1352.0834005502438 4585.769228453397
1352.90177955923 4693.410058031379
1353.7199584451064 4794.4959069455
1354.5379372630887 4742.255525955284
1355.355716068374 4691.6452574835475
1356.1732949161305 4568.380056523245
1356.9906738615155 4729.957460372013
1357.8078529596478 4630.416880798668
1358.6248322656375 4784.789016951623
1359.441611834567 4631.83470699885
1360.2581917214866 4811.967532107298
1361.0745719814367 4651.510583181529
1361.890752669433 4590.806834159747
1362.7067338404577 4479.820822393681
1363.5225155494845 4708.9101483188915
1364.3380978514506 4883.346679359456
1365.1534808012839 4446.234253549418
1365.9686644538815 4225.715915648152
1366.783648864117 4853.14821372145
1367.5984340868417 4840.130818382599
1368.413020176893 4622.185907364123
1369.2274071890715 4429.216928110908
1370.0415951781652 4761.701781110218
1370.8555841989346 4654.816764360336
1371.6693743061223 4440.157940754527
1372.48296555444 4311.306012827558
1373.2963579985844 4592.252875601188
1374.1095516932255 4556.979521493963
1374.9225466930166 4229.513404630141
1375.7353430525782 4562.615391632053
1376.5479408265164 4394.447538326508
1377.36034006941 4573.780888266208
1378.1725408358216 4539.088578360191
1378.9845431802805 4329.000041301771
1379.796347157304 4845.709966771423
1380.6079528213813 4587.3733135575385
1381.4193602269788 4326.040582737074
1382.230569428546 4360.760609506998
1383.0415804805016 4536.556366368377
1383.852393437246 4499.519086404155
1384.6630083531563 4435.06277709584
1385.4734252825892 4396.817687784822
1386.2836442798798 4360.095885116096
1387.0936653993322 4487.825768099717
1387.9034886952395 4388.533518417072
1388.713114221864 4487.695370799793
1389.5225420334482 4408.587815169656
1390.331772184214 4335.246844588253
1391.1408047283585 4114.045902617116
1391.9496397200564 4364.537340223961
1392.758277213461 4484.598895890366
1393.5667172627054 4565.816706668464
1394.3749599218918 4332.69806251941
1395.1830052451114 4154.425111681341
1395.9908532864265 4297.535583739343
1396.7985040998774 4514.773147457766
1397.6059577394808 4176.717181921545
1398.4132142592352 4251.800935861007
1399.2202737131156 4213.915264634496
1400.027136155073 4511.899095890271
1400.8338016390353 4273.591863365609
1401.6402702189134 4264.15922565389
1402.446541948586 4296.390135111258
1403.2526168819204 4237.391783825376
1404.058495072757 4197.181722050638
1404.8641765749107 4263.239250950826
1405.6696614421799 4386.745483706258
1406.4749497283356 4752.467765988375
1407.280041487129 4230.201766168568
1408.084936772295 4062.2486684558744
1408.8896356375335 4439.30939028939
1409.6941381365323 4413.278976045283
1410.498444322955 4138.623636944552
1411.3025542504402 4291.549084176304
1412.106467972606 4410.303764578939
1412.9101855430508 4386.082274633952
1413.7137070153458 4182.152061830888
1414.5170324430437 4347.563291799917
1415.320161879672 4504.980130220661
1416.1230953787435 4662.021115039887
1416.925832993742 4256.9028962035245
1417.7283747781275 4160.145259283888
1418.5307207853439 4508.064828395448
1419.3328710688093 4423.905840300656
1420.134825681922 4136.466829316187
1420.9365846780584 4303.125618163012
1421.7381481105713 4657.822251590595
1422.539516032788 4545.954504999147
1423.3406884980232 4274.53889543639
1424.1416655595604 4357.1671837512895
1424.942447270665 4351.451028737506
1425.7430336845828 4687.030241523153
1426.5434248545298 4378.365216858821
1427.3436208337116 4584.284322546695
1428.143621675301 4611.506387684776
1428.9434274324558 4755.804727925757
1429.7430381583108 4396.322464167714
1430.5424539059713 4476.177522291056
1431.3416747285337 4965.886072789035
1432.1407006790632 4677.610698556832
1432.9395318106053 4547.511670438037
1433.7381681761835 4387.2102572140775
1434.5366098288014 4670.56507514731
1435.3348568214424 4712.016048078648
1436.1329092070573 4383.603049944459
1436.9307670385879 4533.276367501163
1437.7284303689503 4668.474019398744
1438.5258992510335 4742.17150167567
1439.3231737377118 4583.436689322249
1440.1202538818306 4498.417188075373
1440.9171397362225 4502.7152883102435
1441.7138313536925 4521.977026171794
1442.5103287870243 4441.0352685152775
1443.3066320889775 4313.112399262636
1444.1027413122956 4643.102478522835
1444.8986565096966 4454.269506616218
1445.694377733882 4385.090623937902
1446.4899050375207 4222.687282708549
1447.2852384732687 4323.09311590083
1448.0803780937622 4535.443179420546
1448.8753239516063 4227.7868215032595
1449.6700760993954 4163.345138047494
1450.464634589689 4270.800104073064
1451.2589994750397 4560.37676755736
1452.0531708079689 4101.368287520615
1452.8471486409799 4147.055079215209
1453.6409330265524 4556.510223570979
1454.4345240171442 4173.189600564596
1455.2279216651987 4063.377679472709
1456.0211260231263 4155.367097196393
1456.8141371433194 4275.330742215875
1457.6069550781594 4323.6681839332505
1458.3995798799897 4064.7962021068147
1459.1920116011424 4073.0979793190454
1459.98425029393 3991.970431661867
1460.7762960106338 3994.9467905748315
1461.5681488035225 4035.084611187187
1462.3598087248392 4103.702427966129
1463.1512758268036 4377.354974448327
1463.942550161617 3922.2007322663208
1464.7336317814625 3913.155612179541
1465.524520738496 4063.423620814958
1466.3152170848552 3923.6527011225435
1467.1057208726506 3981.7841510138487
1467.8960321539817 3847.5376938413674
1468.6861509809169 3770.911864211709
1469.4760774055085 3770.7103406003603
1470.265811479785 3873.9826915447907
1471.055353255755 3680.6431290743885
1471.844702785409 3685.1945714861313
1472.6338601207044 3679.1892740582507
1473.4228253135934 3984.8919672066354
1474.2115984159936 3642.9309802646626
1475.0001794798063 3508.8051793769673
1475.7885685569145 3868.5604790158986
1476.576765699172 3733.660272069974
1477.3647709584238 3592.7503154686356
1478.1525843864802 3862.2194096783087
1478.9402060351367 3850.698114938344
1479.7276359561693 3808.265217140204
1480.514874201328 3647.519522895263
1481.3019208223468 3459.8427689043856
1482.0887758709323 3380.6014390095515
1482.8754393987747 3775.327809775247
1483.6619114575406 3517.553002323248
1484.4481920988783 3590.9631638116794
1485.2342813744108 3777.6415022396955
1486.0201793357446 3909.5521052623685
1486.8058860344572 3507.078383449997
1487.591401522117 3597.088164355047
1488.3767258502594 3619.62820692151
1489.1618590704056 3587.004666733809
1489.9468012340494 3236.9998933211855
1490.7315523926754 3713.7391511360997
1491.5161125977356 3698.912990619249
1492.3004819006637 3643.4991396630103
1493.084660352877 3343.044923734332
1493.8686480057622 3596.6361016283904
1494.6524449106964 3795.0028565008006
1495.4360511190262 3772.7206534793536
1496.219466682087 3573.035786392021
1497.0026916511779 3537.445546484908
1497.7857260775945 3620.200913944374
1498.5685700125996 3648.599807599542
1499.3512235074395 3277.1726706412423
1500.133686613337 3321.615950014472
1500.9159593814966 3472.85517670788
1501.698041863101 4035.7795074877517
1502.4799341093094 3356.2011414034723
1503.2616361712662 3281.187720122017
1504.043148100087 3584.3204163059613
1504.8244699468742 3533.254422431414
1505.6056017626997 3313.7342076720415
1506.3865435986281 3259.1192418573787
1507.1672955056893 3548.42222693696
1507.9478575348967 3320.832977290491
1508.7282297372512 3581.862042617503
1509.5084121637192 3366.4276443872186
1510.2884048652577 3376.929183579592
1511.0682078927948 3413.1964513747143
1511.8478212972423 3364.20924152977
1512.6272451294917 3409.476631186627
1513.4064794404076 3517.610631196517
1514.1855242808433 3459.0344954295933
1514.9643797016215 3406.3012899226114
1515.743045753552 3510.4011072983485
1516.5215224874191 3547.72382260593
1517.2998099539836 3246.1758009391297
1518.077908203999 3450.085023028154
1518.8558172881785 3263.8464665023166
1519.633537257234 3509.363994760667
1520.4110681618404 3533.8950999456274
1521.1884100526604 3568.382357612606
1521.9655629803365 3362.7770842333266
1522.7425269954856 3673.13743466944
1523.5193021487103 3780.6922157943554
1524.2958884905856 3311.8280065903273
1525.0722860716687 3327.7768445803013
1525.848494942502 3324.059707782795
1526.624515153595 3398.254281103039
1527.4003467554485 3428.894741251296
1528.175989798534 3558.5468319572856
1528.9514443333064 3440.3899842341575
1529.726710410203 3637.878450428862
1530.5017880796331 3249.0743480037913
1531.276677391992 3256.103417217842
1532.0513783976457 3702.917358780487
1532.825891146953 3364.4199244970923
1533.6002156902414 3439.253236442616
1534.3743520778207 3326.895043262928
1535.1483003599806 3406.1026095351417
1535.9220605869923 3432.2841071783673
1536.6956328091019 3468.5539187975323
1537.4690170765407 3343.379989481354
1538.242213439511 3429.6440405602602
1539.015221948208 3325.0825567606494
1539.78804265279 3227.884435890386
1540.560675603405 3069.6077074009177
1541.3331208501804 3556.651005252712
1542.1053784432224 3558.6916239868056
1542.8774484326168 3372.412644065792
1543.649330868422 3313.535796580754
1544.4210258006842 3305.6878302975506
1545.1925332794308 3344.7257838584073
1545.9638533546604 3305.305126246453
1546.7349860763552 3193.5503796109992
1547.5059314944829 3646.212305063419
1548.27668965898 3330.85146624349
1549.0472606197673 3344.719411321172
1549.817644426752 3268.276709512212
1550.5878411298072 3442.250242680556
1551.3578507787988 3343.6305945106387
1552.1276734235635 3173.0568874650758
1552.8973091139233 3267.3147439362133
1553.6667578996767 3488.4668761188695
1554.436019830604 3203.957929995467
1555.20509495646 3213.167935321187
1555.9739833269869 3119.216790644603
1556.7426849919011 3111.5825547259888
1557.511200000903 3570.9047473996893
1558.2795284036674 3358.501350146008
1559.0476702498509 3305.4281273445495
1559.8156255890954 3511.05877980881
1560.5833944710157 3755.7842026243807
1561.3509769452048 3245.2868417727705
1562.1183730612447 3283.491317804801
1562.8855828686865 3381.857395005448
1563.6526064170703 3721.391051653312
1564.4194437559127 3509.770798272949
1565.1860949347047 3246.7627604080735
1565.9525600029283 3694.879213480258
1566.7188390100328 3802.3505288643055
1567.4849320054564 3290.826962380015
1568.250839038612 3310.579572516046
1569.0165601588997 3407.7563361773086
1569.7820954156887 3483.6981038497433
1570.5474448583373 3308.4135454326524
1571.31260853618 3375.085466231998
1572.0775864985299 3223.1120374300326
1572.8423787946813 3571.7830642375675
1573.6069854739108 3349.7250646203197
1574.371406585471 3522.8094095908345
1575.1356421785986 3579.735882700343
1575.899692302506 3461.437269298731
1576.6635570063845 3508.8388958254664
1577.4272363394157 3519.1034921063847
1578.190730350747 3460.863302762932
1578.9540390895163 3575.9011203111354
1579.7171626048384 3160.53265917116
1580.480100945806 3356.4715034044616
1581.2428541614918 3435.8215288756996
1582.0054223009538 3441.149908200122
1582.767805413223 3416.659194093646
1583.5300035473156 3507.405221080854
1584.292016752228 3726.792121358685
1585.0538450769309 3540.615432515696
1585.8154885703807 3252.0242305953298
1586.5769472815136 3170.739072282469
1587.3382212592405 3421.7139296536675
1588.099310552463 3541.249738102316
1588.8602152100484 3506.123579721059
1589.6209352808564 3491.333077323071
1590.3814708137234 3349.7305627136266
1591.14182185746 3440.047676499819
1591.9019884608679 3287.666265239087
1592.6619706727215 2971.7740003147346
1593.4217685417734 3332.0580996267418
1594.1813821167616 3500.919959103708
1594.9408114464022 3111.904457237398
1595.7000565793933 3229.3108922514284
1596.459117564409 3395.7406765999904
1597.2179944501113 3146.734251978235
1597.9766872851324 3203.023299550759
1598.735196118092 3408.4184853719153
1599.4935209975883 3347.41212611156
1600.2516619721973 3464.126620610373
1601.0096190904787 3179.2006729521
1601.7673924009723 3127.5556443765186
1602.524981952196 3049.2227859677932
1603.2823877926476 3221.3900123781386
1604.0396099708087 3049.5512375934677
1604.7966485351371 2952.5478506247264
1605.5535035340745 3030.561778264774
1606.3101750160404 3348.670656373496
1607.0666630294363 2924.282799506251
1607.822967622642 2936.707055211
1608.5790888440224 3229.018293092237
1609.3350267419137 3281.505088454891
1610.0907813646445 3147.9203957580607
1610.8463527605145 2971.204448033312
1611.601740977805 3276.132301467101
1612.356946064785 3153.9899094174216
1613.1119680696902 2830.1587107876057
1613.8668070407512 3009.299926841034
1614.6214630261748 2950.0160140615794
1615.375936074137 3160.89176583797
1616.1302262328118 3056.6562847145115
1616.8843335503425 3121.3255837583138
1617.638258074854 2894.683763620712
1618.391999854457 3092.7377755071057
1619.1455589372363 3251.312573551025
1619.8989353712623 3104.5611464592066
1620.65212920458 2739.649095648265
1621.4051404852235 3014.7194815162447
1622.1579692611976 3122.3896446594063
1622.9106155804966 2820.6434180349406
1623.663079491087 2922.3187216448673
1624.4153610409248 3182.206895398243
1625.1674602779385 2869.5442806682145
1625.9193772500403 2925.8368376571034
1626.6711120051277 3214.6977404096247
1627.4226645910676 3020.211489027767
1628.174035055721 2845.394558988778
1628.9252234469168 3057.852966270601
1629.676229812474 2877.658172171273
1630.4270542001905 3290.3783829436447
1631.1776966578382 2969.666173342848
1631.9281572331747 2932.07782841125
1632.678435973945 3161.145884177213
1633.4285329278573 3049.1389772277275
1634.1784481426203 2742.996695617519
1634.9281816659113 3009.439355602907
1635.677733545388 3162.3792680510483
1636.4271038286934 2961.376511713678
1637.176292563452 3070.863067913994
1637.9252997972635 2989.2934159853544
1638.674125577716 3059.635196273549
1639.4227699523672 3424.7534376159347
1640.171232968767 2743.4515618715536
1640.9195146744423 2984.3351963225914
1641.6676151168977 3235.9636574460465
1642.4155343436178 3298.856413582799
1643.1632724020765 2985.2057815100684
1643.9108293397167 2904.8343536285606
1644.658205203974 2813.6861805698086
1645.4054000422566 2835.18950248768
1646.1524139019566 2856.4775353984523
1646.8992468304423 2703.7465349564104
1647.6458988750728 2910.4645501209916
1648.3923700831765 2893.6788608851552
1649.1386605020743 2877.043765247573
1649.8847701790564 3072.8188601371835
1650.6306991614038 2968.2474153500502
1651.3764474963682 3036.1486472557476
1652.1220152311944 2664.5378036501133
1652.867402413096 2910.8936140811384
1653.6126090892776 2930.2042194235937
1654.3576353069184 3181.620534560991
1655.1024811131829 2911.461525466802
1655.8471465552066 2908.8154150168525
1656.5916316801213 3092.322752652451
1657.3359365350298 3012.0842523828333
1658.0800611670165 2790.8252094869904
1658.824005623148 2988.026031336764
1659.5677699504722 2786.1320322737497
1660.3113541960192 3033.857305098312
1661.054758406799 2805.609982030888
1661.7979826297997 2732.734674662619
1662.5410269119966 2698.279579493722
1663.283891300338 2987.772341902407
1664.0265758417645 2798.733312614101
1664.7690805831826 2940.374710479717
1665.5114055714948 3089.223860155499
1666.2535508535748 3274.266864502059
1666.9955164762814 2650.2990890679175
1667.7373024864555 2790.8481856101184
1668.478908930916 2991.0115472993684
1669.220335856462 2755.918351589939
1669.9615833098778 2853.6577906826524
1670.7026513379296 2786.4832925315845
1671.44353998736 3015.957189653328
1672.1842493048916 2919.747611874754
1672.9247793372379 2833.57483446901
1673.6651301310812 3006.3985858633305
1674.4053017330934 2765.783538854689
1675.1452941899242 2999.3465191449636
1675.885107548207 2472.4360102883616
1676.6247418545518 2644.6911911796888
1677.3641971555535 2663.8288951472246
1678.1034734977893 2959.031449733414
1678.8425709278108 2736.1292884506643
1679.5814894921605 3079.626513855049
1680.320229237359 3041.5950339263713
1681.0587902098978 3086.8265911658805
1681.7971724562685 2758.3034837908335
1682.5353760229264 2770.824680565336
1683.2734009563173 3013.332578050008
1684.0112473028657 2653.771825820587
1684.7489151089794 2996.185692183958
1685.4864044210462 2985.177851222554
1686.2237152854377 2499.3753738416262
1686.960847748498 3081.466576778438
1687.6978018565642 2627.870928324117
1688.434577655944 2621.460663443345
1689.1711751929379 2732.6304695265503
1689.9075945138156 2827.352516583515
1690.6438356648396 2797.9826092907015
1691.3798986922448 2385.936964642437
1692.1157836422499 2747.5498255656803
1692.851490561059 2638.9756521935465
1693.587019494853 2750.912406831905
1694.3223704897991 2462.3289189874263
1695.0575435920364 2394.3827564519256
1695.792538847696 2518.6560718965443
1696.527356302886 2642.981691177215
1697.2619960036936 2483.4280282369878
1697.9964579961907 2559.9599408161125
1698.730742326432 2174.216511136049
1699.4648490404488 2348.134816099739
1700.1987781842563 2546.4615042340183
1700.9325298038548 2661.520140797881
1701.6661039452174 2830.2969422658434
1702.3995006543082 2684.5854037098657
1703.1327199770658 2860.3986459465873
1703.865761959416 2392.1876327654622
1704.598626647261 2824.942942915697
1705.3313140864866 2479.1628547671758
1706.0638243229587 2538.7513814352333
1706.7961574025303 2647.8841102591696
1707.528313371029 2567.545366979145
1708.260292274268 2429.3662410931693
1708.9920941580403 2533.222998778343
1709.7237190681226 2605.9843307109263
1710.4551670502697 2568.39629156226
1711.18643815022 2181.8763803596025
1711.9175324136959 2346.4628695511724
1712.6484498863938 2511.289612277257
1713.379190614005 2169.442167290487
1714.109754642188 2318.697367670341
1714.8401420165883 2468.360182654872
1715.570352782839 2973.1000600396446
1716.3003869865497 2530.7385355406886
1717.0302446733076 2270.860137561518
1717.7599258886876 2433.95387370741
1718.4894306782444 2777.8716303559436
1719.2187590875183 2232.8262809543567
1719.9479111620203 2724.335474856664
1720.6768869472544 2326.3988930499354
1721.4056864887025 2669.831872644295
1722.1343098318284 2840.7611647918066
1722.8627570220742 2498.95153885402
1723.591028104871 2229.34287368294
1724.3191231256242 2101.96267795324
1725.0470421297232 2409.618803786348
1725.7747851625427 2503.1080545004443
1726.5023522694337 2543.8131247054234
1727.2297434957363 2399.8184494125553
1727.9569588867635 2219.377949488458
1728.6839984878152 2556.8026734281448
1729.4108623441734 2544.9878024923873
1730.1375505011038 2533.4051729384682
1730.8640630038426 2199.139019967789
1731.5903998976264 2194.3475689055294
1732.316561227657 2538.0678288180775
1733.0425470391274 2221.135810410954
1733.7683573772065 2327.754650600192
1734.4939922870508 2318.408912496632
1735.2194518137949 2379.710402592901
1735.9447360025606 2315.378440722215
1736.669844898439 2330.0119327921425
1737.3947785465189 2194.1782174120126
1738.1195369918605 2065.534158298323
1738.8441202795093 2376.7507860700616
1739.5685284544943 2433.555172896028
1740.292761561821 2401.501758370173
1741.0168196464838 2468.853842410631
1741.7407027534518 2425.120111431949
1742.464410927687 2484.096207006005
1743.187944214118 2244.74737695987
1743.9113026576688 2237.0767912368583
1744.634486303241 2262.580832395698
1745.3574951957125 2295.9736054923164
1746.0803293799509 2501.2168066116583
1746.8029889008048 2307.8930158316143
1747.5254738031017 2430.466870563506
1748.2477841316504 2136.471086635864
1748.969919931249 2282.347252550873
1749.6918812466665 2269.9385903858433
1750.4136681226646 2465.7964016469828
1751.1352806039777 2407.0848883459607
1751.856718735331 2048.054980876467
1752.5779825614281 2013.782604128351
1753.2990721269507 2408.745337248295
1754.0199874765676 2377.235196137128
1754.7407286549314 2132.0648666326315
1755.4612957066693 2270.8820338157016
1756.1816886763954 2134.8791978227896
1756.9019076087097 2346.214660035532
1757.6219525481865 2381.6130807898016
1758.3418235393856 2405.0390170569676
1759.061520626854 2321.765185113264
1759.7810438551096 2516.4035593469284
1760.5003932686614 2073.8584493329704
1761.2195689119999 2431.626345590129
1761.938570829594 2253.922505424103
1762.657399065898 2375.272294397412
1763.376053665348 2114.3699805924343
1764.0945346723602 2012.8682397295663
1764.812842131334 2426.654101741774
1765.5309760866512 2084.6254002464534
1766.2489365826787 2065.2298413433573
1766.9667236637597 2224.9597417438354
1767.684337374223 1877.3833583243675
1768.401777758383 2012.91331188988
1769.1190448605284 2078.3834447929053
1769.836138724937 2058.5092784425137
1770.5530593958665 2130.6308998310233
1771.2698069175603 2423.635994351977
1771.9863813342326 2313.478921065953
1772.702782690094 2110.6682936603825
1773.4190110293293 2344.570995983177
1774.1350663961111 2342.74316401584
1774.8509488345844 2109.3168007084214
1775.5666583888924 2214.717212486574
1776.2821951031437 2376.0915545745365
1776.9975590214362 2196.207473827805
1777.7127501878585 2366.5714180039745
1778.4277686464684 2393.9306631837817
1779.1426144413108 2399.8353249098745
1779.8572876164162 2400.2869866094543
1780.571788215797 1985.8395184090907
1781.2861162834415 2170.9792829839275
1782.0002718633277 2096.724043269114
1782.7142549994132 2349.215044546042
1783.4280657356376 2244.2711681868923
1784.141704115922 2020.413689274011
1784.855170184177 2145.6050986306577
1785.5684639842839 2253.078510603166
1786.2815855601148 2330.702016382771
1786.9945349555237 2408.4200366812843
1787.707312214343 2038.5650169212827
1788.4199173803918 2007.4114544639222
1789.132350497468 1976.3787616480902
1789.8446116093583 2126.1169048501524
1790.556700759822 2053.6139218362205
1791.2686179926077 2118.5503348127004
1791.9803633514493 2131.5344872754604
1792.6919368800554 1917.8069054346045
1793.4033386221236 2164.8431489432055
1794.1145686213295 2306.1147219074023
1794.8256269213307 2442.7377773442977
1795.536513565774 2183.2129491341116
1796.247228598284 1839.508352983678
1796.9577720624693 1996.537722330185
1797.6681440019165 2140.7182348518418
1798.3783444602013 2232.492009350527
1799.0883734808776 2271.667809165492
1799.7982311074884 2174.842472146155
1800.5079173835475 2091.734420220826
1801.2174323525633 2309.5786390296535
1801.9267760580187 2119.6479027835603
1802.635948543386 2131.8204236100783
1803.3449498521113 2127.3978533662876
1804.0537800276325 2378.606420072082
1804.7624391133668 2111.8145181124937
1805.47092715271 1817.3732003414711
1806.1792441890484 1990.1647139105783
1806.8873902657433 2309.2457028528725
1807.5953654261448 2179.705963674064
1808.3031697135812 2047.5208809932888
1809.0108031713662 2054.8080214692745
1809.71826584279 2095.3372075317416
1810.425557771141 2055.0924043452933
1811.1326789996747 2059.6674016888805
1811.839629571632 2064.1348796136
1812.5464095302468 2140.208544132416
1813.2530189187182 2213.7584603292944
1813.959457780249 2041.1046892594627
1814.6657261580076 2259.867298581973
1815.371824095153 2165.5916822655927
1816.0777516348262 1960.5567451869192
1816.78350882015 1755.3914810407412
1817.4890956942272 1870.041311851141
1818.1945123001533 2039.270706747843
1818.8997586809928 2141.7328801120134
1819.6048348798067 1941.0105178784856
1820.3097409396287 2066.1350861946307
1821.0144769034796 2484.876193351972
1821.7190428143622 2230.9135943303277
1822.423438715261 2192.3455800322304
1823.1276646491478 1989.8740203514851
1823.8317206589727 2045.0528685703187
1824.5356067876692 2170.7608418014106
1825.2393230781581 2051.9219743922195
1825.942869573335 1909.4654331298002
1826.646246316086 1897.264758613544
1827.3494533492758 2231.54114954812
1828.052490715756 2083.195337751319
1828.7553584583547 2131.704378640642
1829.458056619891 2211.4417802855323
1830.1605852431585 1964.657336152814
1830.8629443709433 1876.9604990218654
1831.5651340460063 2066.48853712144
1832.2671543110919 1912.3725218251798
1832.9690052089318 2217.0363230213343
1833.6706867822395 1766.8936606037823
1834.3721990737104 2143.9714745628694
1835.0735421260233 2192.2671706105716
1835.774715981841 2006.659311772232
1836.4757206838058 2001.9456138137307
1837.1765562745459 1997.754512736338
1837.8772227966747 1826.2705229599476
1838.5777202927839 1938.275186917145
1839.2780488054523 1967.5758150431914
1839.9782083772352 1965.6384772298359
1840.6781990506806 1982.1931625208028
1841.378020868313 1998.6037867465857
1842.0776738726418 1950.3769990368996
1842.777158106157 1937.530529743341
1843.4764736113375 1803.598274568231
1844.1756204306403 2135.0570253552564
1844.8745986065078 2086.6960582555866
1845.5734081813607 1852.1002662768394
1846.2720491976124 2022.0830461942119
1846.970521697649 1859.9696386053552
1847.6688257238511 2045.302369109435
1848.3669613185684 1965.8013995501744
1849.0649285241452 1669.7734267029377
1849.7627273829057 2124.6209372430662
1850.460357937156 1997.3249379853758
1851.1578202291857 1749.9243643001432
1851.8551143012664 2006.799859092791
1852.5522401956569 1990.1977065913575
1853.2491979545957 2215.1023525543046
1853.9459876203055 1843.6548421396444
1854.6426092349902 1802.2589538836696
1855.3390628408451 1863.6597274222797
1856.0353484800362 2158.258578980567
1856.7314661947203 2115.8343151599875
1857.4274160270397 1793.4573273935468
1858.123198019115 1912.483149200655
1858.8188122130487 1889.7671233434944
1859.5142586509319 1847.947332581774
1860.209537374838 1951.6676779378845
1860.9046484268183 1957.5045492859238
1861.599591848917 2235.910136077042
1862.294367683151 1912.6631607175138
1862.988975971528 1787.993748061232
1863.6834167560355 2038.9648595234885
1864.3776900786452 2130.9533095957245
1865.0717959813119 1813.5887233980818
1865.7657345059724 1875.0547362781242
1866.4595056945564 2040.4863503763183
1867.1531095889586 2125.0333069088515
1867.846546231076 1730.8878775791752
1868.5398156627743 2112.829165071986
1869.2329179259123 1922.0600193802784
1869.9258530623283 2117.346494742079
1870.618621113843 1735.924108989062
1871.3112221222636 1807.5410475947301
1872.0036561293764 1870.432341895461
1872.695923176956 1950.077391650691
1873.3880233067594 2020.1472851483409
1874.0799565605212 1728.5363204796897
1874.7717229799673 1942.176383969175
1875.4633226068036 2234.653090991643
1876.1547554827175 2001.7516951301945
1876.8460216493859 1980.422194753645
1877.5371211484617 1955.5223209604014
1878.2280540215852 2104.8161922269755
1878.9188203103804 1721.4157049521168
1879.6094200564548 1821.9859443167165
1880.299853301396 1834.9143709646619
1880.9901200867826 2056.3462916285757
1881.6802204541673 2013.486081567245
1882.3701544450942 2065.6078019183046
1883.059922101087 1755.8631220930886
1883.7495234636517 1814.486955334141
1884.4389585742792 1873.161622711911
1885.1282274744517 1896.6946586288727
1885.8173302056166 1913.1151181719185
1886.506266809225 1929.5605334569264
1887.195037326701 1635.3432961890192
1887.8836417994517 1878.612647814253
1888.5720802688702 2220.6228021549227
1889.260352776333 2190.9620340889915
1889.9484593632042 2123.698936282851
1890.63640007082 1906.716568333421
1891.3241749405151 1788.0793602523281
1892.0117840135954 2035.5105120740016
1892.6992273313572 1917.722742708585
1893.3865049350788 2091.943635791537
1894.0736168660223 2266.4068629641765
1894.7605631654333 2012.4008476705162
1895.4473438745408 2176.0790822430235
1896.133959034556 1807.350558157992
1896.820408686679 2000.2383483488288
1897.506692872088 2170.269507213353
1898.192811631945 2054.069504213672
1898.8787650073991 1926.9094173800709
1899.5645530395832 2113.528368096889
1900.2501757696118 2103.1835625218164
1900.9356332385796 2207.5561314858464
1901.620925487574 2312.265186193429
1902.3060525576602 2063.010084791688
1902.9910144898859 2086.815276541488
1903.6758113252872 1891.6776754110074
1904.3604431048789 1977.4481796111897
1905.0449098696663 2088.055269280079
1905.7292116606295 1838.6104471729625
1906.4133485187394 1959.3587943483992
1907.0973204849488 1637.8729387404674
1907.7811276001976 1797.0321087143482
1908.4647699053967 1906.9948772805074
1909.1482474414588 1355.9306743090506
1909.8315602492694 1705.0974728775752
1910.5147083696957 2134.7385982453306
1911.1976918436012 1891.0268546598631
1911.880510711815 1715.838709040911
1912.5631650151681 1747.9705627520284
1913.2456547944657 1780.1015737515504
1913.927980090495 1857.902907587263
1914.6101409440362 1854.6043930491483
1915.2921373958416 2006.4710469540228
1915.9739694866603 1818.4850006303993
1916.655637257214 2186.1121632148133
1917.3371407482136 1933.231545554234
1918.0184800003572 2205.1627105767616
1918.6996550543154 2089.039720774802
1919.3806659507554 1879.9028109145754
1920.0615127303208 1890.3728211827063
1920.7421954336423 2132.9426098215567
1921.4227141013343 2122.9521937559266
1922.103068773993 1897.2193627613967
1922.783259492202 2016.3837159663774
1923.4632862965227 1890.030880472305
1924.1431492275078 1873.516859614194
1924.8228483256917 1775.064866491582
1925.5023836315922 1806.2003510956297
1926.1817551857057 1982.127581233482
1926.8609630285227 2158.4123488641826
1927.5400072005123 2000.3789777418037
1928.218887742125 1820.650945679229
1928.8976046938005 1679.103895557559
1929.5761580959588 1855.2475402229345
1930.2545479890086 1952.1053346219499
1930.9327744133352 1572.817525585663
1931.6108374093164 1934.0938895402821
1932.2887370173066 1730.5601451741975
1932.9664732776473 2088.588457244152
1933.6440462306673 1836.9663415469363
1934.3214559166754 1849.3646895346305
1934.9987023759659 2205.1944027852132
1935.675785648813 1990.5893740089846
1936.3527057754836 2110.2314646933387
1937.029462796223 1588.5214181456934
1937.70605675126 1707.1036654044917
1938.3824876808085 1605.304882976252
1939.058755625072 1835.6641895366593
1939.7348606242267 1765.3073234487752
1940.4108027184448 1813.1575618044922
1941.0865819478713 1989.163606927155
1941.7621983526478 1767.5847677126428
1942.4376519728921 1683.3993765045677
1943.1129428487038 1897.1951627717713
1943.7880710201734 2063.428703291878
1944.4630365273733 2049.309552616657
1945.1378394103576 1691.681065011193
1945.8124797091714 1644.7616124098724
1946.4869574638324 1597.691485328315
1947.161272714353 1811.4500519763744
1947.8354255007234 1959.8991586679847
1948.5094158629272 1724.8761896422304
1949.1832438409183 1991.4896236736927
1949.8569094746435 2022.3217677050227
1950.530412804037 2009.5930008398177
1951.2037538690092 1898.8669063364682
1951.8769327094578 1775.2980690259778
1952.5499493652678 1844.8303911049381
1953.222803876306 2156.5432447201224
1953.895496282421 1947.0130264278735
1954.5680266234522 1881.2063311863235
1955.2403949392155 1887.3438215470346
1955.9126012695142 1635.009253588286
1956.5846456541403 1782.4158759147438
1957.2565281328643 1844.1082804358634
1957.9282487454457 2042.7333098192437
1958.5998075316202 1981.6277353425598
1959.27120453112 1722.8478598176127
1959.9424397836501 1835.86100453172
1960.613513328908 1966.7220515013487
1961.2844252065697 2096.7976496574756
1961.9551754563017 1690.0502669879338
1962.6257641177453 1741.388946011078
1963.29619123054 1556.7834052518288
1963.966456834296 1780.0790339937216
1964.6365609686181 1572.4754871489506
1965.306503673086 1664.4514130408704
1965.976284987275 1756.4842969885667
1966.645904950734 1859.9006765812003
1967.315363603002 1704.9431145611215
1967.9846609836077 1788.5530563212487
1968.6537971320486 1649.0599145771084
1969.3227720878222 1883.628303153421
1969.9915858904042 1816.068244159759
1970.660238579252 1852.246251726488
1971.3287301938108 1742.2736992776329
1971.997060773514 1754.0100991558495
1972.665230357772 1676.9132627445574
1973.3332389859843 1776.1732662970146
1974.0010866975335 1557.6086982732204
1974.6687735317864 1801.9889022567572
1975.3362995280932 1894.8940283072066
1976.003664725793 2041.5294211640207
1976.6708691642052 1537.931426753545
1977.3379128826364 1780.7717794565742
1978.004795920373 1972.0339447861625
1978.6715183166925 1741.5384942431767
1979.3380801108524 2005.685507816083
1980.0044813420973 1801.9203268291699
1980.6707220496555 1453.7845156271228
1981.3368022727373 1660.5986196761744
1982.0027220505417 1534.00585552152
1982.66848142225 1407.3155420643784
1983.3340804270283 1491.7862260347606
1983.999519104027 1802.032253141341
1984.6647974923835 1896.1770794208321
1985.329915631215 1915.1558495603986
1985.99487355963 1644.5428074676206
1986.6596713167146 2009.3794005794139
1987.3243089415428 1574.004393001619
1987.9887864731754 2019.9558565253096
1988.6531039506553 1576.6983813828506
1989.3172614130071 1589.659416672504
1989.9812588992481 1602.6678496834675
1990.645096448372 1519.1145579550484
1991.3087740993633 1657.188311570348
1991.9722918911848 1700.2679819748214
1992.635649862792 1705.9129753572756
1993.2988480531185 1806.0362283339095
1993.9618865010852 1680.2622581759351
1994.6247652455968 1554.3083000179588
1995.287484325545 1713.877007468526
1995.9500437798033 1591.419016824189
1996.6124436472292 1692.3252914563393
1997.2746839666706 1901.8589696557942
1997.936764776954 1640.1284887960749
1998.598686116895 1575.4998258737328
1999.2604480252903 2159.0108604951697
1999.9220505409212 2076.235274356086
2000.5834937025593 1636.3978317742979
2001.2447775489582 1718.344620193034
2001.9059021188514 1800.3154735150245
2002.5668674509616 1644.1079249545394
2003.2276735839987 1783.6414494773821
2003.8883205566508 2032.7220737022265
2004.5488084075987 1661.0932314375684
2005.2091371755014 1686.0138932446673
2005.8693068990033 1504.0982919930777
2006.5293176167397 1576.246264692909
2007.1891693673224 1648.6594586137503
2007.848862189354 1575.5878677203239
2008.5083961214223 1774.6221491686094
2009.1677712020955 1577.016373275363
2009.8269874699254 1651.8117235060017
2010.4860449634598 1552.810702952284
2011.1449437212177 1453.6417066736099
2011.8036837817108 1957.4007284935265
2012.4622651834325 1876.4947459843668
2013.1206879648653 1726.2364041687506
2013.7789521644736 1493.148053034286
2014.4370578207036 1930.24496041239
2015.0950049719922 1738.3436526638638
2015.7527936567585 1981.4175822763068
2016.4104239134067 1673.7767312474393
2017.067895780323 1611.117715957389
2017.725209295886 1548.2333866968374
2018.3823644984514 2013.90362299988
2019.0393614263648 1823.334936348696
2019.6962001179545 1815.1636425446882
2020.3528806115355 2001.866636111126
2021.0094029454067 1756.095057257008
2021.6657671578487 1516.0888053738013
2022.321973287133 1676.5113729479867
2022.9780213715148 1605.0589775700992
2023.6339114492293 1411.2021609957842
2024.2896435585026 1803.4196400368496
2024.9452177375442 1674.007576440891
2025.600634024544 2033.6097787310096
2026.2558924576842 1876.197246780833
2026.9109930751292 1766.9416765915125
2027.565935915025 1605.2990863227396
2028.2207210155066 2062.803206294658
2028.8753484146964 2257.6333008820015
2029.529818150695 2143.7596126335466
2030.1841302615903 2029.3781325767832
2030.8382847854573 1560.549319788543
2031.4922817603601 1796.832111638454
2032.1461212243357 1698.3802288685372
2032.7998032154192 1439.3730234468783
2033.4533277716218 1708.707759029192
2034.1066949309443 1557.5719730310677
2034.7599047313688 1597.3679836271608
2035.4129572108704 1862.7341132460253
2036.0658524074006 1740.7899590337965
2036.7185903589016 1857.8501234689356
2037.3711711032956 1818.5444181069165
2038.023594678496 1745.0857750861137
2038.675861122394 1576.6212623205465
2039.3279704728757 1490.3895738706124
2039.9799227678031 1404.0983929652534
2040.6317180450278 1667.5937647619546
2041.2833563423865 1668.6269515317024
2041.9348376977014 1751.9275817028333
2042.5861621487784 1835.3648117436965
2043.2373297334088 1650.2620475922172
2043.8883404893695 1854.0047758305504
2044.5391944544208 1804.4582298601945
2045.1898916663158 2000.5673685827187
2045.8404321627804 1759.3811629308093
2046.4908159815368 1517.67611170964
2047.1410431602853 1609.3581172115532
2047.7911137367173 1573.261860186891
2048.441027748504 1585.2665926560737
2049.090785233302 1597.223846180917
2049.7403862287592 1431.816244738512
2050.389830772503 1403.2724233285055
2051.0391189021466 1374.7413336815553
2051.688250655294 1746.4285058005735
2052.337226069527 1603.50524714639
2052.986045182417 1829.7042494468649
2053.634708031521 1809.135459493183
2054.283214654375 1788.6557397053261
2054.931565088511 1477.6713820924697
2055.579759371436 1504.9349898380526
2056.2277975406523 1745.7853296002972
2056.8756796336384 1572.3197640147823
2057.5234056878617 1833.0114991749517
2058.1709757407752 1679.8768923849725
2058.8183898298194 2006.629445813655
2059.465647992416 1817.8680844806931
2060.1127502659747 1640.7977724245006
2060.759696687888 1895.9305262638889
2061.4064872955405 1751.6500136154827
2062.053122126292 1562.6283345632069
2062.699601217497 1804.4408806021688
2063.345924606485 1570.1981131216212
2063.992092330587 1636.5215565265376
2064.638104427102 1525.9291682791415
2065.283960933324 1699.680357630285
2065.92966188653 1873.5984609694137
2066.5752073239855 2042.5668475071477
2067.2205972829397 1922.9595451420992
2067.86583180062 1803.2603645175775
2068.5109109142522 1655.0310208820483
2069.15583466104 1767.3533498667553
2069.8006030781708 1493.718486801154
2070.445216202821 1573.0233318109972
2071.089674072153 2031.964668425507
2071.7339767233116 1954.2002356947155
2072.3781241934303 1738.3292353084933
2073.0221165196253 1756.2914205421137
2073.6659537390024 1621.2967058393074
2074.3096358886505 1848.4535138792824
2074.953163005637 1576.2895337737966
2075.596535127028 1548.6697445971658
2076.2397522898664 1545.0823545788594
2076.882814531182 1670.944173678959
2077.5257218879924 1646.7992297421933
2078.1684743973 1622.6107589758262
2078.8110720960885 1500.8094373582621
2079.453515021336 1619.421008176005
2080.095803209997 1738.1261147122827
2080.7379366990135 1787.3482614237796
2081.37991552532 1922.846991430729
2082.0217397258275 1836.3423017451757
2082.6634093374414 1795.2559552520502
2083.3049243970418 1754.1992735073622
2083.9462849415067 1702.2612237276473
2084.587491007689 1738.0641354738448
2085.2285426324324 1744.0368514676381
2085.869439852564 1724.6985107983521
2086.510182704902 1642.9302215210323
2087.1507712262483 1721.9171850425635
2087.791205453381 1427.975849894857
2088.4314854230743 1800.188786641876
2089.0716111720867 1836.4755640524927
2089.7115827371617 1300.2883956978917
2090.351400155023 1383.9383048700297
2090.991063462385 1467.807272376132
2091.6305726959527 1288.728624994371
2092.2699278924047 1387.3870072983445
2092.9091290884153 1486.3049524702183
2093.548176320641 1447.0314354693728
2094.187069625721 1669.6607102440987
2094.8258090402887 1337.8090648462662
2095.464394600951 1662.782200069409
2096.102826344313 1668.1365253674285
2096.741104306955 1570.72686362571
2097.379228525453 1473.1036642871168
2098.017199036358 1218.0864018189059
2098.6550158762147 1524.6925049307588
2099.2926790815527 1831.956367907195
2099.9301886888825 1755.9735268008676
2100.5675447347076 1618.3165672899497
2101.2047472555114 1873.342435713533
2101.841796287761 1626.4942159662528
2102.47869186792 1699.4053659811846
2103.1154340324265 1654.9296166014276
2103.752022817709 1635.3344155064838
2104.388458260184 1629.9889714232258
2105.024740396251 1643.7122303925964
2105.660869262292 1558.4889226506325
2106.296844894685 1582.3612366874513
2106.93266732978 1606.327092974742
2107.5683366039284 1378.4326470115845
2108.2038527534532 1780.382165714289
2108.8392158146726 1975.775412806899
2109.4744258238843 1510.9213494313935
2110.1094828173755 1713.7434436316137
2110.744386831422 2084.542550169842
2111.3791379022787 1697.7162377795498
2112.01373606619 2017.587678855619
2112.648181359389 1894.4911076188928
2113.28247381809 1643.8927661077814
2113.916613478492 1682.3500707242579
2114.550600376786 1820.3552413286202
2115.1844345491445 1600.0767840917354
2115.818116031729 1464.3670206122758
2116.451644860679 1619.3567080769183
2117.085021072133 1355.2001238211467
2117.718244702204 1563.9259659550194
2118.3513157869984 1565.3257743488357
2118.984234362604 1340.5113970118794
2119.617000465092 1574.04131959674
2120.249614130529 1591.8097847962217
2120.8820753949585 1609.6090530862582
2121.5143842944162 1569.2400090491421
2122.14654086492 1551.000175437698
2122.7785451424734 1880.5814318075172
2123.4103971630702 1877.7417646600074
2124.042096962681 1875.1020696351272
2124.6736445772767 1966.3414328928975
2125.305040042802 1786.2701155474988
2125.936283395191 1605.704020448536
2126.567374670365 1719.236305019146
2127.198313904233 1581.2611085374242
2127.8291011326855 1521.5796665237556
2128.4597363916037 1461.5925428059545
2129.0902197168507 1622.0106547574828
2129.720551144279 1858.4428403753802
2130.3507307097225 2095.087612634865
2130.980758449008 2041.6115684238823
2131.6106343979427 1949.9368698530275
2132.2403585923203 1858.0580021577305
2132.8699310679276 2062.406127165158
2133.499351860526 1869.8767594157653
2134.1286210058715 1563.4898726333395
2134.7577385397053 1763.0128332544778
2135.3867044977487 1962.8317880145594
2136.0155189157176 2190.535195783849
2136.644181829308 1945.368384342605
2137.2726932742025 1721.2700936310564
2137.901053286074 1574.042797923714
2138.5292619005777 1426.639750386339
2139.1573191533535 1564.8239123612275
2139.7852250800315 1854.1760726648154
2140.4129797162295 1721.2201252379389
2141.0405830975433 1324.7615393307992
2141.6680352595613 1331.69608002275
2142.2953362378576 1338.6590599602694
2142.9224860679915 1586.3201840249299
2143.549484785508 1514.5250095869428
2144.1763324259373 1570.4295375361758
2144.803029024799 1691.0150020022531
2145.429574617594 1446.5056392538595
2146.0559692398165 1738.355740136615
2146.682212926942 1589.7746563308922
2147.308305714432 1698.8737137075143
2147.9342476377333 1986.0625385940803
2148.5600387322847 2222.6418700573704
2149.185679033506 1827.98863208269
2149.8111685768017 1468.6217765740416
2150.4365073975678 1348.5975030733714
2151.061695531187 1529.7129031742759
2151.686733013021 1624.4395670296137
2152.311619878423 1719.4619914059538
2152.9363561627342 1552.2834630974028
2153.560941901278 1379.57683433955
2154.1853771293663 1772.0290400189817
2154.809661882293 1747.774580895232
2155.433796195348 2055.9235479683675
2156.0577801037944 1994.7066182959115
2156.681613642895 1933.2279987152247
2157.3052968478896 1607.2675872226878
2157.928829754006 1775.1249257960542
2158.552212396462 1670.2856831474176
2159.1754448104566 1615.697923472185
2159.7985270311783 1416.8966491199235
2160.4214590938027 1197.3636205247506
2161.0442410334927 1222.8054064603637
2161.6668728853874 1325.2316212330863
2162.289354684628 1427.8972635387559
2162.911686466332 1532.708930386813
2163.533868265602 1778.8375647544665
2164.1559001175337 2112.172491825787
2164.7777820572046 1802.5805864349927
2165.399514119681 1606.6712263258084
2166.021096340013 1394.8479332174343
2166.6425287532384 1922.5502196679197
2167.263811394385 1437.4912281967304
2167.8849442984574 2019.7788397430709
2168.505927500455 1526.394091155629
2169.126761035366 1760.5157734911386
2169.7474449381552 1433.3425032289679
2170.367979243778 1263.7922545573615
2170.9883639871823 1936.5383726195137
2171.608599203293 1353.8892670075159
2172.2286849270276 2092.9911923190916
2172.8486211932886 2210.263080851631
2173.4684080369625 1595.155463793972
2174.0880454929265 1305.6033668734985
2174.7075335960417 1221.3680163963065
2175.3268723811543 1330.0205122757638
2175.9460618831 1438.965407231178
2176.565102136701 1629.1042174788465
2177.1839931767627 1590.0837703687355
2177.802735038078 1550.983036925027
2178.421327755432 1454.5321959819505
2179.0397713635866 1352.4667577840946
2179.658065897298 1436.9416909517781
2180.276211391305 1669.8878100116112
2180.8942078803357 1483.212695748231
2181.5120553991 1640.2691504861536
2182.129753982299 1289.439940680644
2182.7473036646206 1532.515236036328
2183.3647044807367 1725.1106533963612
2183.9819564653044 1384.0457313889017
2184.599059652968 1700.9753355821406
2185.216014078367 1748.9370416855472
2185.832819776113 1799.6774759464483
2186.4494767808137 1850.4353807246964
2187.065985127063 1580.3694224141914
2187.682344849436 1466.7551026019687
2188.298555982501 1523.657903213373
2188.9146185608097 1580.561753058627
2189.530532618901 1800.5084676503284
2190.1462981912937 1690.4984652218675
2190.761915312507 1818.4439596939235
2191.377384017036 1634.8634960082363
2191.9927043393654 1617.3047967200214
2192.6078763139667 1781.9080534296559
2193.2228999753006 1357.6126513205895
2193.837775357808 1555.1646782302735
2194.452502495922 1188.6468679016673
2195.0670814240602 1584.3639838921877
2195.6815121766285 1404.965760306062
2196.2957947880186 1308.2405089206952
2196.9099292926057 1211.324550804049
2197.523915724758 1748.969275231865
2198.137754118825 1541.5462854857901
2198.7514445091456 1966.4019088268967
2199.3649869300443 2070.0797689741626
2199.9783814158327 2174.0867187816048
2200.5916280008096 2079.9158365391463
2201.2047267192593 2013.2589257906438
2201.8176776054515 1603.9365326257423
2202.430480693649 1307.4519937585483
2203.0431360180955 1770.7177351294322
2203.6556436130195 1867.7128784437118
2204.268003512645 1185.7783285679848
2204.8802157511727 1477.7956840027532
2205.492280362796 1509.287429522056
2206.1041973816937 1540.907880605534
2206.715966842032 1656.7400813729353
2207.3275887779655 1830.390258538921
2207.93906322363 1499.605291692431
2208.550390213153 1750.5217693852405
2209.1615697806465 1800.2000160409775
2209.7726019602105 1422.3952232442775
2210.3834867859277 1331.65290025778
2210.9942242918787 1477.8304291259478
2211.6048145121167 1607.0615696172583
2212.2152574806914 2396.313349677079
2212.825553231638 1636.6941437761213
2213.435701798975 2398.521142241177
2214.045703216707 1642.7339326246504
2214.655557518832 1247.3470355380841
2215.2652647393297 1153.4751895235122
2215.874824912169 1366.8396440062722
2216.4842380713 1580.8341052144851
2217.09350425067 1412.079575616834
2217.7026234842033 1891.0398308970878
2218.311595805819 1897.697043575205
2218.9204212494133 1547.2990508434618
2219.52909984888 2050.823963501165
2220.137631638092 2017.2336291141844
2220.7460166509154 1983.445866948201
2221.354254921198 1433.312206091583
2221.9623464827764 1672.8900423997952
2222.5702913694713 1670.1310420589275
2223.178089615096 1517.1156501728465
2223.7857412534486 1363.8156975107709
2224.39324631831 1311.7788709207084
2225.000604843457 1425.4243701361615
2225.607816862641 1848.0241009349218
2226.214882409611 1679.0878333859869
2226.8218015180973 1908.6763115230017
2227.4285742218217 1625.0234052324302
2228.0352005544864 1610.0737221723089
2228.6416805497847 1295.318495450591
2229.248014241399 1530.6804817303628
2229.8542016629945 1380.7491162219105
2230.460242848223 1823.816340505074
2231.0661378307304 2090.410313376545
2231.671886644139 1383.1383571030017
2232.277489322065 1384.0044702359696
2232.8829458981127 1105.7677959707514
2233.48825640587 1576.3500538666735
2234.0934208789095 1730.9505586433133
2234.6984393507955 1885.7846217960628
2235.3033118550793 1766.1136475773565
2235.9080384252975 1501.9201751085461
2236.5126190949723 1374.6098238182099
2237.1170538976166 1514.5024987419372
2237.721342866729 1571.3025443702022
2238.32548603579 1628.1979321905833
2238.9294834382763 1733.4976039603982
2239.533335107646 1607.356294075301
2240.1370410773434 1599.815971316776
2240.740601380803 1325.0774137971014
2241.3440160514474 1659.6331232407222
2241.9472851226783 1831.5428986598956
2242.550408627896 1613.792567738625
2243.1533866004793 1596.7475545231641
2243.756219073799 1579.700389293351
2244.3589060812064 1440.922185354061
2244.961447656049 1505.7108004128577
2245.5638438316564 1517.4401587223974
2246.166094641343 1594.3293533919918
2246.7682001184166 1480.3675243630391
2247.3701602961664 1521.8554714334168
2247.971975207871 1544.1362834482395
2248.5736448867974 1550.0918048729636
2249.175169366197 1555.9942708209876
2249.7765486793123 1689.7842602547676
2250.3777828593684 1787.9438225933652
2250.9788719395783 1518.036425581507
2251.579815953146 1581.7096787562648
2252.1806149332606 1294.7161675283235
2252.781268913097 1391.0725564619931
2253.381777925817 1321.6906086691297
2253.9821420045737 1579.628061542958
2254.5823611825035 1710.7591280647878
2255.1824354927303 1726.8327688524219
2255.782364968365 1483.84445012371
2256.38214964251 1700.7428036256774
2256.9817895482483 1352.4913909730235
2257.5812847186553 1482.6475208113688
2258.180635186791 1270.503954475924
2258.779840985704 1447.513237449647
2259.37890214843 1570.683533717285
2259.97781870799 1639.8666464348084
2260.5765906973957 1709.1869227337004
2261.175218149645 1713.7341624834567
2261.773701097718 1807.3739162139743
2262.3720395745895 1358.4346571262363
2262.970233613216 1460.9123702775717
2263.568283246548 1454.4821527339936
2264.1661885075137 1367.6760188061232
2264.763949429038 1389.87432483774
2265.3615660440246 1868.8020056175108
2265.959038385374 1264.2628538213582
2266.5563664859637 1955.0340540333698
2267.153550378669 1360.4380577888455
2267.7505900963424 1920.137156210482
2268.3474856718312 1277.5121983895801
2268.9442371379664 1480.0395840327376
2269.5408445275643 1368.6112244730853
2270.1373078734377 1410.5575978893735
2270.7336272083758 1452.596983698808
2271.32980256516 1421.977858169737
2271.925833976562 1631.9166112326589
2272.5217214753357 1533.8310961852055
2273.117465094223 1435.5183419459536
2273.7130648659586 1324.6946165522122
2274.308520823257 1433.714640858702
2274.903832998827 1721.6343477815255
2275.4990014253563 1616.9068964015842
2276.094026135528 1482.6237486295843
2276.6889071620117 1741.1927787994578
2277.2836445374614 1638.3448880164594
2277.878238294519 1600.9986203270826
2278.472688465812 1462.8591952887748
2279.066995083962 1324.4618425065073
2279.6611581815705 1573.5721389649948
2280.255177791232 1930.9484227577293
2280.8490539455233 1643.5685750826215
2281.442786677013 1944.2351373007969
2282.0363760182554 1801.3177502268547
2282.6298220017943 1552.334339421372
2283.223124660155 1456.522036563571
2283.816284025859 1928.7735787570505
2284.4093001314086 1832.544986576145
2285.002173009292 1366.882791698355
2285.5949026919952 1777.3351971723564
2286.1874892119777 1486.123938653782
2286.7799326016993 1654.1999327863207
2287.3722328936 1198.5865696629048
2287.964390120109 1160.4343439616828
2288.556404313642 1764.577385992933
2289.1482755066027 1950.4631727983124
2289.7400037313873 1679.1716772203777
2290.3315890203703 1420.0412368107786
2290.9230314059205 1648.6513099949436
2291.5143309203904 1389.141774032471
2292.1054875961236 1588.1597921569087
2292.6965014654506 2026.8014772013044
2293.287372560684 1412.0692581884548
2293.878100914131 1450.8506564090449
2294.468686558086 1489.761591498434
2295.059129524827 1477.0891862341164
2295.649429846617 1465.1719461477883
2296.239587555716 1453.187148945813
2296.8296026843636 1528.0653417673784
2297.419475264791 1464.8471806366767
2298.0092053292137 1401.4203729089368
2298.598792909839 1912.9911061938833
2299.1882380388597 1687.09358600917
2299.777540748455 1973.502871600709
2300.3667010707904 1708.6072055829613
2300.9557190380256 1921.3786196112753
2301.544594682302 1617.4385554448222
2302.1333280357503 1932.2785740521176
2302.721919130485 1673.8186678476402
2303.3103679986198 1941.7501815067058
2303.898674672242 1935.0719957705337
2304.486839183437 1466.4388603959344
2305.0748615642697 1645.129400458846
2305.6627418468015 1612.9584055193413
2306.2504800630704 1475.8303681028667
2306.8380762451143 1703.9251344197444
2307.425530424949 1713.9803079938447
2308.012842634582 1724.0452096195454
2308.6000129060103 2074.897160974207
2309.187041271214 1702.7916275017935
2309.773927762164 2039.0097755193572
2310.3606724108213 1705.9748104374326
2310.9472752491274 1799.3459970040872
2311.5337363090184 1392.650102930434
2312.120055622414 1493.267058410066
2312.706233221221 1462.4016266096403
2313.2922691373424 1739.4824433539175
2313.8781634026564 1304.4194532053318
2314.463916049037 1508.8534116740318
2315.049527108342 1811.6043631138339
2315.6349966124235 1871.3690959039213
2316.2203245931123 1604.865368817176
2316.8055110822315 1337.7070076631503
2317.3905561115935 1340.8577751732255
2317.9754597129977 1413.4691319257317
2318.560221918229 1309.0875212926173
2319.1448427590603 1204.4974785523743
2319.729322267256 1229.1607134510646
2320.313660474563 1476.611990409574
2320.8978574127195 1580.0202169283607
2321.481913113452 1683.7809204552436
2322.0658276084705 1360.7845541461843
2322.6496009294806 1721.9244125673163
2323.233233108165 1652.4305862400277
2323.8167241762058 1329.7102982551496
2324.4000741652617 1506.01727942654
2324.983283106987 1830.5254294563572
2325.5663510330232 1906.7400197224893
2326.1492779749933 1496.2829297000283
2326.7320639645204 1651.100786358114
2327.3147090332004 1326.9180388376603
2327.897213212629 1473.0567124799513
2328.4795765343843 1619.2845166173836
2329.0617990300307 1197.7281017742323
2329.643880731124 1984.9243127624038
2330.22582166921 1368.537396164288
2330.807621875816 1181.5652018797805
2331.3892813824623 994.3958731083496
2331.9708002206517 1015.664206250425
2332.5521784218818 1312.1710425663591
2333.133416017634 1609.3342450041696
2333.7145130393765 1587.2079853135963
2334.295469518571 1684.3272978283017
2334.876285486658 2037.512726517673
2335.456960975076 1909.1493452732611
2336.037496015242 1780.5321048994817
2336.6178906385667 1794.5535842061406
2337.198144876451 1525.9422788352113
2337.778258760278 1579.1962634284955
2338.3582323214214 1666.0587593433368
2338.938065591243 1753.0813153129725
2339.517758601087 1784.3053925582858
2340.0973113822965 1598.4130855922708
2340.676723966193 1572.4866048319595
2341.255996384094 1777.8462670728018
2341.835128667295 1729.5301565650268
2342.4141208470883 1871.4344190555378
2342.992972954751 1594.4973879636182
2343.5716850215467 1814.5602004758719
2344.1502570787306 964.2479603639938
2344.7286891575386 1444.5745800973125
2345.3069812892045 2113.4371469825783
2345.885133504944 2061.180838360614
2346.4631458359618 1549.0174469206027
2347.04101831345 1220.7385172194001
2347.6187509685915 1575.41855240614
2348.196343832553 1295.5072684846468
2348.7737969364935 1286.6937034292414
2349.351110311558 1277.895615404311
2349.9282839888765 1042.7835319233552
2350.5053179995757 1136.2173828458801
2351.0822123747585 1280.605304369395
2351.658967145526 1875.4958692506702
2352.2355823429643 1303.7981439545279
2352.812057998144 1908.6982140982254
2353.3883941421263 1770.0351586176487
2353.9645908059647 1865.0454701748283
2354.540648020693 1618.8276935393249
2355.116565817336 1801.2219407048997
2355.6923442269126 1542.993685118441
2356.2679832804224 1694.8082117716026
2356.8434830088518 1719.6105029883256
2357.41884344318 1569.180977882014
2357.994064614377 1719.5463256905139
