#exp_cfg={"servo_angle": 0.0, "laser_lim": 100.0, "servo_angle_to": 18.0, "laser_wup": 0.0, "bt_dev": "EnSpectr-25AE3", "laser_wdn_max": 0.0, "frames": 10.0, "servo_used": 0, "servo_calib_use": 0, "laser_wdn_min": 0.0, "servo_pix_from": 90.0, "cooler_tout": 300.0, "servo_angle_from": 0.0, "servo_calib": "[-1.9174921013161362e-09, 3.9322238269163779e-05, -0.27385609119055809, 653.59552119713567]", "laser_autoctl": 0, "servo_pix_to": 3682.0, "laser_pw": 100.0, "cooler_on": 0, "laser_volt": 4.0, "cooler_autoctl": 0, "cooler_curr": 70.0, "cooler_startup": 10.0, "laser_fixed_pw": 0, "gain": 1.3, "offset": 2.53059635486, "servo_calib_degree": 3.0, "laser_curr": 55.0, "shutter": 8200.0, "servo_calib_step": 1.0, "laser_fixed_curr": 0, "exp": 2000.0, "ccd_volt": 4.7, "bt_addr": "00:06:66:62:5A:E3", "servo_delay": 500.0, "laser_autooff": 1}
#proc_cfg={"flat_auto_wnd": 200.0, "flat_auto_fr": 200.0, "flat_auto_shift": 5.0, "yconv": 1, "flatten": 1, "flatten_strength": 100.0, "xfrom": 300.0, "auto_max_frame": 2000.0, "auto_signal": 48000.0, "flat_auto_tol": 0.1, "autoclip": 1, "xrel_range": 0.0, "flat_auto_to": 4000.0, "intensity_adj": 1.0, "xrel": 7852.0, "rmhot": 1, "flat_auto_slit": 4.999999999999997, "auto_ini_exp": 300.0, "auto_off": 0, "xto": 2860.0, "flat_auto_ref": "", "flat_auto_rank": 1, "autobackg": 0, "xrel_adj": 0.0, "auto_black_lvl": 1, "base_wnd": 100.0, "sub_baseline": 0, "xconv": 2, "auto_max_exp": 1000.0, "auto_total_exp": 10000.0, "auto_exp": 0, "rmripple": 0, "black_lvl": 8282.9625, "shutter_clip_adj": 0.0, "auto_bckg": 0, "flat_auto_thr": 0.9, "subbackg": 1}
316.8218498245369 16327.22598402855
317.89969571804795 16209.717333671026
318.977263876126 16246.317537208164
320.05455438786703 16065.228319603682
321.1315673423287 16103.131183063006
322.2083028285215 16096.504746813389
323.2847609354267 16118.614997405766
324.3609417519747 16108.642171166817
325.43684536705587 15968.39946724409
326.5124718695279 15929.624831636154
327.58782134820103 15892.519763720979
328.66289389184385 15929.338413117464
329.7376895891921 15706.606689521697
330.8122085289342 15810.48664740063
331.88645079971866 15888.881625251966
332.9604164901575 15737.724027447006
334.03410568881554 15691.22621940902
335.1075184842266 15878.756451423067
336.18065496487543 15618.596370998543
337.2535152192122 15749.191192868515
338.32609933564163 15687.365339852226
339.39840740253203 15572.371255904305
340.4704395082099 15648.409294766501
341.5421957409617 15576.071216891238
342.6136761890357 15594.717117571932
343.6848809406365 15515.519378553403
344.75581008392874 15492.455483041573
345.82646370703696 15401.958765429892
346.8968418980512 15427.655122515469
347.96694474501055 15387.450859865226
349.0367723359268 15419.181246499025
350.106324758759 15312.855885825997
351.1756021014353 15244.374033116666
352.2446044518383 15295.93157363164
353.31333189781435 15350.282566419959
354.38178452716966 15264.271533051342
355.449962427665 15150.2401948271
356.51786568702846 15101.132636044345
357.58549439294256 15244.753129557124
358.6528486330535 15282.451039824702
359.71992849496564 15131.949263752336
360.7867340662433 15109.518470434134
361.8532654344144 15229.746274108522
362.9195226869597 15211.933279692186
363.9855059113288 15048.797341911404
365.05121519492604 14934.738478299809
366.11665062511565 15012.63758037038
367.1818122892273 15032.016336139961
368.2467002745434 15001.243431355015
369.31131466831175 14950.325431415913
370.375655557742 14820.223393252638
371.4397230299983 14959.391894970433
372.5035171722102 14863.098284757467
373.5670380714637 14878.87781285313
374.6302858148101 14946.573848639784
375.6932604892554 14902.681847707721
376.7559621817709 15006.720799796105
377.81839097928605 14706.660845261122
378.8805469686886 14809.203051320848
379.94243023683157 14917.511571381936
381.0040408705263 14749.132737442278
382.0653789565458 14619.838774692693
383.1264445816196 14708.64281067128
384.1872378324406 14656.97775533121
385.2477587956637 14679.524287770808
386.3080075579037 14530.293649703526
387.3679842057336 14477.12111778388
388.4276888256918 14620.679635931558
389.48712150426945 14520.284985007733
390.54628232792857 14513.780058601053
391.6051713830857 14437.578008007713
392.66378875611736 14500.641000209576
393.7221345333637 14464.900464116445
394.7802088011249 14432.764903081654
395.838011645661 14384.779987759941
396.89554315319765 14284.476908985995
397.9528034099112 14249.273472272607
399.00979250194723 14196.789429160146
400.06651051541485 14269.720240961873
401.1229575363741 14275.241884043819
402.17913365085224 14143.057585776909
403.23503894483656 14272.475552215215
404.2906735042761 14117.852804631431
405.3460374150818 14037.986043055114
406.401130763119 14125.279480421468
407.455953634224 14125.312938417725
408.5105061141876 14069.849082609226
409.56478828876243 13924.569263014331
410.6188002436629 13894.135965135245
411.6725420645689 13933.604679142085
412.72601383711117 13959.169301945254
413.77921564689314 13995.921296035469
414.8321475794728 13906.118820597749
415.88480972036814 13819.831131223069
416.93720215506437 13823.723175914402
417.9893249690049 13773.046942945035
419.04117824759123 13709.181908071183
420.09276207619223 13712.681805466806
421.144076540133 13677.94258581536
422.1951217247042 13628.33660547407
423.24589771515275 13612.52163800667
424.2964045966928 13565.786354357833
425.34664245449494 13626.29821230869
426.3966113736933 13652.372857227834
427.4463114393875 13571.719856372467
428.49574273662984 13540.930597331753
429.5449053504417 13567.325686438835
430.5937993658026 13593.299142058831
431.6424248676558 13452.141700166181
432.6907819409007 13451.10989744026
433.73887067040596 13480.419628566025
434.7866911409965 13442.048240294109
435.8342434374608 13350.974659684565
436.88152764455117 13417.982137892841
437.9285438469724 13355.047173723102
438.9752921294057 13242.4375964562
440.02177257648145 13282.840107595734
441.06798527279716 13176.554021123728
442.1139303029122 13337.994241030665
443.1596077513459 13330.368950588676
444.2050177025794 13161.60590890988
445.25016024105753 13173.992944752943
446.2950354511886 13189.462792627053
447.33964341733736 13205.869297460322
448.383984223834 13080.208248736464
449.4280579549686 13053.287754610361
450.471864694995 13079.459092894722
451.5154045281306 13126.015212970422
452.5586775385509 13108.833704034978
453.60168381039693 13006.874279771022
454.64442342776783 13158.749966315818
455.6868964747264 13006.375636749592
456.7291030353008 12940.413988257498
457.77104319347563 13083.632006838543
458.8127170332027 13079.05643756071
459.854124638392 13037.85945863341
460.895266092919 13073.642128292295
461.93614148061897 13026.263510719065
462.97675088529104 13151.701933266662
464.01709439069236 13010.11388652076
465.0571720805492 12931.220183677204
466.0969840385442 12948.279753486342
467.1365303483253 13117.626543576776
468.17581109350067 12937.886021900196
469.2148263576437 12935.195516713176
470.2535762242878 12899.779972644734
471.29206077693016 12989.79930755752
472.33028009902773 12935.201419465482
473.3682342740012 12914.282187894943
474.40592338523857 12877.194386070685
475.4433475160804 12960.709557627903
476.4805067498364 12929.453102378167
477.51740116978 12813.341299938453
478.5540308591426 12929.019039732948
479.59039590112116 12959.224652739513
480.6264963788726 12809.856483244797
481.6623323755193 12942.42765496514
482.6979039741436 12937.7155768484
483.7332112577915 13005.583749550311
484.76825430947247 13228.224512828423
485.80303321215797 13042.905743292768
486.837548048783 13175.649546245779
487.8717989022425 13271.577425933516
488.90578585539697 13149.55971700884
489.9395089910686 13338.513317004777
490.97296839203955 13105.363291002857
492.00616414106116 12948.109039919513
493.0390963208429 13031.985082063806
494.0717650140559 13040.149981375233
495.10417030333883 12984.627392597544
496.1363122712901 12991.489434856474
497.16819100046814 12889.71647622789
498.1998065734024 12717.011104492445
499.2311590725767 12795.38221102182
500.26224858044407 12601.581613819157
501.2930751794156 12593.479509076355
502.3236389518679 12670.848246138708
503.35393998014115 12454.63815289824
504.38397834653733 12470.140152504351
505.4137541333221 12477.492512271549
506.4432674227228 12374.223362204746
507.4725182969323 12284.651618919148
508.5015068381035 12339.363867728847
509.53023312835467 12359.427596436366
510.55869724976765 12261.050423113023
511.58689928438434 12206.214254454837
512.6148393142121 12184.585548434377
513.6425174212218 12283.617016481916
514.6699336873462 12275.593620819252
515.6970881944835 12265.944000829719
516.7239810244901 12202.097372374172
517.7506122591931 12254.061532761316
518.7769819803761 12175.7809778581
519.8030902697901 12316.336569522104
520.8289372091476 12218.817654332952
521.8545228801249 12361.108039867466
522.8798473643619 12286.825760131665
523.9049107434621 12259.83338627568
524.9297130989908 12306.289719532066
525.9542545124805 12272.968428050706
526.9785350654201 12220.300189755479
528.0025548392696 12280.71973475951
529.0263139154504 12137.892169662326
530.0498123753423 12241.527583896213
531.073050300296 12135.283875691763
532.0960277716204 12030.713354670776
533.1187448705896 12084.409656395066
534.1412016784416 12022.615270471755
535.1633982763833 12023.308166865161
536.1853347455726 12011.083581466855
537.2070111671401 12033.278827684655
538.2284276221817 11954.241106927126
539.2495841917516 11774.259976224996
540.2704809568677 11817.93475110808
541.2911179985167 11817.687262330392
542.3114953976419 11747.5417401445
543.3316132351592 11683.970180125745
544.3514715919409 11542.836391599478
545.3710705488247 11558.26929195963
546.3904101866156 11551.804595388892
547.4094905860784 11550.282042681045
548.4283118279418 11538.234609717645
549.4468739929034 11561.28667693584
550.4651771616191 11518.071768760232
551.4832214147063 11401.650909717126
552.501006832761 11398.670829642444
553.5185334963226 11397.76492385733
554.5358014859103 11452.804495108034
555.5528108820035 11397.656689301508
556.5695617650363 11316.787874602418
557.5860542154242 11400.73606796225
558.6022883135283 11354.970735786132
559.6182641396881 11293.768012015335
560.6339817741991 11321.11090634797
561.6494412973225 11303.007537023475
562.6646427892883 11312.004925815434
563.6795863302796 11195.509799508683
564.694272000459 11213.20486547397
565.7086998799423 11234.002768038923
566.7228700488104 11160.157258895226
567.7367825871115 11157.910999203434
568.7504375748576 11170.65123987941
569.7638350920224 11195.25029447306
570.7769752185486 11115.461802164029
571.7898580343353 11159.891252474508
572.802483619258 11025.510095678566
573.8148520531431 11227.409699006297
574.8269634157932 11204.653391249869
575.8388177869692 11063.930593395933
576.8504152463938 11128.542441627817
577.8617558737587 11227.578487097559
578.8728397487175 11034.494636307167
579.883666950891 11044.228759316042
580.8942375598654 11233.009433271063
581.9045516551851 11232.338946555505
582.9146093163617 11354.123030314955
583.924410622878 11192.39797949359
584.9339556541727 11168.159591108815
585.9432444896538 11267.715524667587
586.9522772086875 11155.589791392407
587.9610538906127 11273.244582735977
588.9695746147318 11225.787727537856
589.9778394603054 11296.344798462407
590.985848506567 11212.136523537425
591.9936018327098 11101.497646491407
593.0010995178891 10909.181210217761
594.0083416412344 11077.174003967748
595.0153282818283 10849.190585035674
596.0220595187293 10827.305123715869
597.0285354309508 10848.95741526791
598.0347560974806 10810.206662123881
599.0407215972609 10810.136729307413
600.0464320092051 10806.104521192048
601.0518874121954 10743.398895217946
602.0570878850685 10790.535704761169
603.062033506636 10674.331784742593
604.0667243556636 10640.788347890582
605.0711605108936 10648.58940064947
606.0753420510264 10936.063548904742
607.0792690547278 10731.047723050733
608.082941600629 10600.679474601015
609.0863597673306 10649.494503730826
610.0895236333909 10753.937161886923
611.0924332773357 10809.245557335158
612.0950887776617 10677.294249352935
613.0974902128219 10721.99992070085
614.0996376612384 10836.43345112095
615.1015312013005 10821.68404062968
616.1031709113595 10870.12816051705
617.1045568697336 10746.487037310671
618.1056891547069 10830.845490213746
619.1065678445229 10903.196565363072
620.1071930173985 11109.6577033675
621.1075647515099 10985.600649809187
622.1076831250048 11037.985442562898
623.1075482159849 11051.08019834945
624.1071601025305 11102.99953558476
625.1065188626781 11087.082343404407
626.105624574433 11316.815669030635
627.1044773157682 11294.275758122794
628.1030771646128 11333.819344781276
629.1014241988742 11351.415009783179
630.0995184964158 11458.811232271371
631.0973601350688 11401.757030051562
632.0949491926294 11594.326927586077
633.0922857468631 11304.643217694262
634.089369875499 11413.534037207519
635.0862016562278 11415.658568355317
636.0827811667077 11154.733924917313
637.0791084845641 11231.40195312045
638.0751836873878 11126.15392452712
639.0710068527369 11201.569108756865
640.0665780581294 11003.153036536636
641.0618973810506 10864.988275476479
642.0569648989604 10959.36038918124
643.0517806892676 10770.885818086452
644.0463448293649 10806.269474285016
645.040657396592 10683.049912713932
646.0347184682723 10631.261714343127
647.0285281216875 10433.159350908143
648.0220864340772 10458.100961167136
649.0153934826558 10406.716670746337
650.0084493446047 10341.764557702894
651.0012540970674 10321.557110396914
651.9938078171526 10254.007090093315
652.9861105819346 10217.646817661389
653.9781624684565 10222.604746588506
654.9699635537254 10059.036632886451
655.9615139147136 10216.891591195363
656.9528136283589 10023.554681417332
657.9438627715699 10215.494462170374
658.9346614212154 10093.44412991786
659.925209654135 9911.758699907605
660.9155075471263 9913.14687601751
661.9055551769616 9953.882459302113
662.895352620375 10052.089618816139
663.8848999540678 9878.941731914385
664.8741972547068 9845.97740192151
665.863244598926 9750.722784891483
666.8520420633213 9893.812593254603
667.8405897244611 9705.05478947576
668.8288876588758 9647.72045008213
669.8169359430613 9708.005012400572
670.8047346534822 9719.08606652823
671.7922838665672 9642.646851675934
672.7795836587156 9742.521852293243
673.766634106285 9874.568387650037
674.7534352856092 9601.764476508628
675.7399872729766 9561.43719451951
676.7262901446538 9597.715179153094
677.712343976862 9577.43303956958
678.6981488457986 9659.702479900603
679.6837048276229 9531.914638088358
680.6690119984596 9585.373310659157
681.6540704344043 9539.815723628111
682.6388802115107 9481.579574576188
683.6234414058108 9477.084780820576
684.6077540932874 9412.233662683659
685.591818349907 9434.848044154473
686.575634251587 9501.790967025705
687.5592018742263 9379.910785384996
688.5425212936734 9217.649808595084
689.5255925857564 9538.945006744561
690.5084158262707 9427.334841534646
691.4909910909646 9288.864599846176
692.4733184555644 9261.287453016765
693.4553979957618 9291.970833087054
694.4372297872123 9373.844243081523
695.4188139055404 9319.74804719328
696.4001504263324 9208.307206963704
697.3812394251509 9248.122422766335
698.3620809775111 9315.885155709988
699.3426751589104 9214.890364067644
700.3230220448004 9150.317791681233
701.3031217106054 9173.341151249071
702.2829742317172 9365.207046940286
703.2625796834873 9041.148840244812
704.2419381412474 9032.256027599711
705.22104968028 9074.949406420961
706.1999143758458 9032.45569979895
707.178532303169 9045.690888403038
708.1569035374378 9062.89073286917
709.1350281538107 9092.102081132292
710.1129062274158 8950.933148160182
711.0905378333373 9090.232950671621
712.0679230466376 9047.899848215995
713.0450619423427 9118.35884368537
714.0219545954424 9236.73140352419
714.9986010808989 9090.214884467368
715.9750014736292 9109.901389024768
716.9511558485392 9267.876526728149
717.9270642804786 9294.27873946925
718.9027268442787 9291.768540048128
719.8781436147328 9295.054489205515
720.8533146666014 9224.884855670229
721.828240074612 9237.872061152635
722.8029199134635 9217.961004037665
723.7773542578125 9163.62794570695
724.751543182294 9122.963437970579
725.7254867615029 9197.980695407367
726.6991850700015 8891.985417068568
727.6726381823228 8979.495182429342
728.6458461729599 9026.403646794286
729.6188091163858 8988.828442470172
730.5915270870246 8966.957650803703
731.5640001592856 8857.781470527927
732.536228407529 8880.836867630223
733.5082119060917 8901.75067942247
734.4799507292755 8840.821166055768
735.4514449513481 8772.51343294688
736.4226946465496 8878.886312760445
737.3936998890786 8957.477586956655
738.3644607531078 8765.342643156979
739.3349773127793 8729.494719936676
740.3052496421951 8752.963796218577
741.27527781543 8602.986604096208
742.2450619065221 8540.501823630239
743.2146019894826 8639.53074544384
744.183898138288 8666.152848804004
745.1529504268801 8567.906504679822
746.1217589291682 8479.03576219031
747.0903237190341 8492.69735520963
748.058644870318 8520.625647523182
749.0267224568397 8462.839560355536
749.994556552374 8352.92683899666
750.9621472306771 8503.83687035063
751.9294945654583 8388.209909747986
752.8965986304011 8483.838489993532
753.8634594991636 8362.313991915546
754.8300772453586 8425.696001949003
755.7964519425768 8405.745965316491
756.762583664371 8511.574813183344
757.7284724842611 8449.418254858118
758.6941184757416 8340.26460114935
759.6595217122667 8385.570542423975
760.6246822672638 8350.518239471527
761.5896002141235 8207.027134462975
762.5542756262093 8379.863323777572
763.5187085768503 8376.297605005657
764.4828991393406 8288.57665284213
765.4468473869474 8270.547748226
766.4105533929032 8404.6482470278
767.3740172304078 8294.731306626376
768.3372389726283 8329.351782613714
769.3002186926988 8159.559030037129
770.2629564637282 8180.25342802121
771.2254523587872 8186.432126268834
772.1877064509154 8131.15001804635
773.1497188131179 8033.810280665808
774.1114895183728 7981.901002403218
775.0730186396268 7960.967133152672
776.0343062497905 8043.895269199927
776.9953524217381 7972.833033905097
777.9561572283274 8001.889526385288
778.9167207423689 8011.692282931052
779.8770430366476 7950.154190389844
780.8371241839159 7894.899622187234
781.7969642568951 7979.9613106361885
782.7565633282757 8084.685224581519
783.7159214707099 7830.449358165779
784.6750387568281 7953.1850552574715
785.6339152592227 7885.125467269254
786.5925510504512 7828.181695667573
787.5509462030477 7897.120538017346
788.5091007895098 7799.549799459261
789.4670148823006 7802.779240567468
790.4246885538596 7776.799879531961
791.3821218765861 7839.860207834851
792.3393149228505 7654.5946589593705
793.2962677649975 7793.040331035615
794.2529804753303 7789.46203519944
795.20945312613 7806.422771736945
796.1656857896378 7741.890576135855
797.1216785380675 7642.711927192769
798.0774314435985 7783.90445573934
799.0329445783846 7890.689259682358
799.9882180145414 7774.576976230366
800.9432518241574 7731.674394252157
801.89804607929 7852.378710845606
802.852600851962 7812.0117376705475
803.8069162141637 7806.584900562215
804.760992237856 7832.239407003571
805.714828994971 7817.969715438511
806.6684265574077 7913.7072050643565
807.6217849970271 7807.00055428558
808.574904385674 7745.02220081423
809.527784795142 7879.078240289887
810.4804262972102 7915.928490738649
811.4328289636178 7728.660722136707
812.3849928660748 7600.37810446177
813.3369180762638 7591.727833372761
814.2886046658241 7698.986597574646
815.2400527063783 7566.08767541039
816.1912622695108 7555.30227494421
817.1422334267718 7609.7382503557255
818.0929662496856 7469.700077666066
819.0434608097457 7325.393903039296
819.9937171784059 7414.105213988933
820.9437354271013 7391.966233494361
821.8935156272255 7519.121207821472
822.8430578501484 7344.073029723315
823.7923621672016 7207.643106882277
824.7414286496896 7354.957383856378
825.6902573688876 7348.307312993247
826.6388483960363 7333.470975548068
827.5872018023492 7295.890551390932
828.5353176590033 7341.262791009028
829.4831960371503 7163.103883496025
830.4308370079016 7135.532257012719
831.3782406423525 7219.57315860385
832.3254070115545 7203.538510823576
833.2723361865319 7193.3907187184905
834.2190282382799 7012.358066784397
835.1654832377644 7172.387905322265
836.1117012559116 7048.134632608819
837.0576823636256 7206.04316626091
838.003426631778 7013.193684994607
838.9489341312074 7029.7624254467155
839.8942049327197 7181.662014677076
840.8392391070975 7166.871015974665
841.7840367250865 7052.5288213282665
842.7285978573982 6988.700994909072
843.672922574724 7138.189262630182
844.6170109477152 6977.5422160586995
845.560863046996 6972.102633031417
846.5044789431595 6944.117634164792
847.4478587067697 6954.25493991977
848.3910024083561 7096.586925866422
849.333910118421 6963.826143449258
850.2765819074339 6933.627023938592
851.2190178458332 7058.548546804619
852.161218004032 7030.4205815814685
853.1031824524016 7004.668929947235
854.0449112612987 6951.38574816108
854.9864045010327 7017.079307815882
855.9276622418947 6942.876513086068
856.8686845541379 6924.066656887063
857.8094715079915 6923.564864995147
858.7500231736467 7073.25454136662
859.690339621271 6988.136542098682
860.6304209209939 6975.616449685638
861.5702671429244 6822.042178150766
862.5098783571284 6944.2904852458205
863.4492546336569 6897.547101785231
864.3883960425155 6889.133046205201
865.3273026536863 6838.15931795746
866.2659745371238 6765.438804703188
867.2044117627465 6931.289002903672
868.1426144004472 6813.0648118631825
869.0805825200823 6855.104070333681
870.0183161914847 6918.259782735995
870.9558154844526 6969.42887504284
871.8930804687552 6884.7289195933145
872.8301112141307 6756.21203359661
873.7669077902865 6916.036344469421
874.7034702669062 7042.582861322604
875.6397987136315 6815.537310580992
876.5758932000863 6913.7409632275285
877.5117537958522 6992.645268104088
878.4473805704911 6848.041719112211
879.3827735935283 6885.57550158136
880.3179329344603 7010.199031181347
881.2528586627541 7072.794590349751
882.1875508478479 7108.926706038011
883.1220095591489 6996.67094215938
884.0562348660296 6882.107067283001
884.9902268378391 7040.28168773218
885.9239855438955 6879.590253829976
886.8575110534839 6791.800124266323
887.7908034358588 6951.686629710537
888.7238627602474 6815.340818142348
889.6566890958475 6910.03784658326
890.5892825118208 6735.694879093158
891.5216430773125 6809.516081688026
892.4537708614189 6803.822353295911
893.3856659332196 6688.11513651403
894.3173283617652 6633.657250964626
895.2487582160684 6651.96262404279
896.179955565116 6652.273899492822
897.110920477864 6537.5106281359695
898.0416530232451 6528.214302813794
898.9721532701478 6486.0100825793315
899.9024212874428 6643.4649289626705
900.8324571439662 6470.478577309754
901.7622609085302 6427.685646490756
902.6918326499072 6466.6622572469805
903.6211724368477 6486.342736782176
904.5502803380696 6627.969649570159
905.4791564222614 6637.28690934037
906.4078007580792 6452.301241691381
907.3362134141571 6460.155210775754
908.2643944590909 6585.93711950999
909.1923439614493 6385.767310294838
910.1200619897754 6399.757606980914
911.0475486125779 6612.903884631289
911.9748038983344 6391.111552937895
912.9018279155007 6372.860366937321
913.8286207324982 6243.327204968167
914.7551824177117 6437.619231037846
915.6815130395116 6314.012775385803
916.6076126662283 6224.860877490487
917.533481366163 6273.132954776257
918.4591192075914 6307.325384810993
919.3845262587565 6365.5180591372155
920.3097025878706 6187.803738421362
921.2346482631237 6165.259481553981
922.1593633526682 6243.759846617667
923.0838479246304 6349.163361560333
924.0081020471061 6356.173766654003
924.9321257881656 6145.985328062673
925.8559192158464 6166.3132310231595
926.7794823981512 6148.047400886321
927.7028154030686 6118.6587209317295
928.6259182985414 6090.424217230314
929.5487911524906 6217.10738297942
930.4714340328119 6290.908600405873
931.3938470073608 6026.031119361045
932.3160301439748 6074.996602840091
933.2379835104548 6050.954455344499
934.1597071745709 6209.438776110315
935.0812012040769 6137.467776341422
936.002465666681 6176.816540378126
936.9235006300696 6164.244567997301
937.8443061619055 6221.280991712998
938.7648823298077 6070.920453552947
939.6852292013809 6039.503629438446
940.6053468441951 6072.438897662534
941.5252353257874 5934.989998761726
942.4448947136698 6007.035746039522
943.364325075323 6025.706174040218
944.2835264782043 6014.58410432729
945.2024989897309 5956.605004763698
946.1212426773054 6011.413408387708
947.0397576082851 6096.65717594594
947.9580438500125 6256.061881851663
948.8761014697939 6107.5618360128365
949.7939305349064 6115.49946857554
950.7115311125999 5904.752862367319
951.6289032700952 5919.861912148501
952.5460470745875 6154.740408687128
953.4629625932339 5926.548256075699
954.3796498931715 6010.766597904141
955.2961090415029 6013.682288106813
956.2123401053068 5990.737988379662
957.1283431516276 5945.60026760974
958.0441182474842 5929.607390529722
958.9596654598663 6077.908589451696
959.8749848557309 6000.828559579879
960.7900765020167 5940.061522581751
961.7049404656209 5897.129388383157
962.6195768134185 5915.797135898685
963.5339856122537 5960.163942064163
964.4481669289453 6028.55418557899
965.3621208302793 5928.018789081179
966.2758473830145 5793.933987885002
967.1893466538822 6091.468672386822
968.1026187095813 5861.75850931641
969.0156636167867 5779.820292893646
969.9284814421426 6027.671632222298
970.8410722522622 5901.236239333275
971.753436113735 5875.233413873297
972.6655730931161 5885.490956969622
973.5774832569368 5988.617992015379
974.4891666716958 5821.945746225333
975.4006234038698 5791.771499858019
976.3118535198955 5756.715097289082
977.2228570861935 5943.23113884418
978.1336341691494 5956.305837800482
979.0441848351202 5737.727233458147
979.9545091504333 5867.881698370845
980.864607181391 5894.36099416648
981.7744789942699 5893.4988632583645
982.6841246553086 5845.211850053339
983.5935442307236 5903.1363501617325
984.5027377867027 5925.256092750321
985.4117053894024 5860.038891515602
986.3204471049557 5819.441559934298
987.2289629994648 5891.770910937587
988.1372531390007 5996.457969762238
989.0453175896091 5890.030096245345
989.9531564173067 5895.389826304928
990.860769688079 5750.069458711247
991.7681574678918 5827.9636911785365
992.6753198226706 5895.14576303014
993.582256818323 5725.69466179094
994.4889685207218 5799.47698508092
995.3954549957143 5913.997482910349
996.301716309119 5933.612402286522
997.2077525267232 5791.375433727876
998.1135637142943 5829.3685008859675
999.0191499375615 5940.611981696715
999.924511262232 5844.343759812348
1000.8296477539861 5857.793175740155
1001.7345594784656 5816.1985120393465
1002.6392465012996 5747.05400568853
1003.5437088880753 5910.517826312986
1004.4479467043584 5841.694001101447
1005.3519600156869 5666.429600331717
1006.2557488875718 5872.336822710785
1007.1593133854858 5882.79302089676
1008.0626535748888 5670.044148819383
1008.9657695212009 5593.9488488908755
1009.8686612898182 5825.779692453963
1010.7713289461135 5877.561226885747
1011.6737725554212 5711.927896805625
1012.5759921830577 5754.479690969329
1013.4779878943027 5749.202920382297
1014.379759754418 5778.93244480171
1015.2813078286254 5646.814406920443
1016.18263218213 5528.9666908937625
1017.0837328801026 5635.816308620399
1017.9846099876886 5735.683672318599
1018.8852635700023 5570.285329896899
1019.7856936921362 5387.171150030195
1020.6859004191447 5643.918659830787
1021.5858838160675 5557.636916309388
1022.4856439479063 5503.5046995065695
1023.3851808796389 5468.687482837372
1024.2844946762143 5629.347160554808
1025.183585402554 5548.37030292572
1026.082453123554 5320.492687954938
1026.9810979040776 5527.5745204167215
1027.8795198089647 5377.327124240053
1028.777718903024 5512.981363473383
1029.6756952510368 5467.36816500758
1030.5734489177648 5471.615043921903
1031.4709799679313 5398.8292549212165
1032.3682884662358 5536.891480056694
1033.2653744773506 5278.843587072403
1034.1622380659192 5290.309397943839
1035.058879296559 5442.3747737012645
1035.9552982338591 5520.494449012305
1036.8514949423825 5387.318135741381
1037.7474694866614 5417.948791769157
1038.6432219312028 5265.530838930529
1039.5387523404825 5490.358177886116
1040.4340607789582 5355.047021116122
1041.3291473110476 5397.167020888626
1042.2240120011465 5493.5825350594205
1043.1186549136273 5491.712889145629
1044.0130761128294 5352.557844501587
1044.9072756630649 5371.965028820033
1045.8012536286205 5444.230424958441
1046.6950100737577 5407.914763466141
1047.588545062701 5519.2698808317455
1048.481858659663 5449.032975898539
1049.3749509288118 5558.412100749175
1050.2678219343034 5408.4948997125
1051.1604717402515 5491.900250920689
1052.0529004107575 5305.4513833598285
1052.9451080098825 5485.024926927645
1053.8370946016694 5483.137983987906
1054.7288602501267 5498.433197537997
1055.6204050192446 5473.208754726534
1056.511728972977 5508.5864624174665
1057.402832175254 5398.915637285642
1058.2937146899785 5365.542536495573
1059.1843765810263 5337.636641905174
1060.0748179122456 5395.154013144235
1060.9650387474576 5283.029557146214
1061.855039150456 5336.838249826984
1062.7448191850071 5374.005155581773
1063.6343789148505 5297.427019001759
1064.5237184037014 5483.393216622778
1065.412837715241 5280.243017691873
1066.3017369131267 5243.1486795700275
1067.190416060992 5226.232873355847
1068.0788752224398 5185.355825413315
1068.9671144610438 5150.820175185889
1069.8551338403558 5294.51493774318
1070.7429334239023 5295.244390388155
1071.6305132751695 5147.9963080237785
1072.517873457633 5326.445252281581
1073.4050140347335 5210.729995557369
1074.2919350698776 5213.239384748826
1075.1786366264623 5167.421076270301
1076.0651187678395 5173.033518249433
1076.95138155735 5057.8611776127345
1077.8374250582929 5171.825660354871
1078.7232493339507 5194.57082944428
1079.608854447577 5095.2098333467975
1080.4942404623907 5031.758492445409
1081.3794074415982 5143.92949897886
1082.2643554483657 5193.215599775158
1083.149084545841 5012.317939278916
1084.033594797138 4993.062013447334
1084.9178862653516 5006.683742380597
1085.8019590135427 5190.195649892476
1086.6858131047484 4925.792814469269
1087.5694486019802 5103.129234723974
1088.4528655682225 5007.971132442575
1089.3360640664287 5234.102514487986
1090.2190441595321 5022.025989520933
1091.1018059104317 4975.085517562804
1091.98434938201 5148.730668631899
1092.866674637111 5177.753665207909
1093.748781738559 4982.337673190583
1094.6306707491512 4868.400714088684
1095.5123417316554 5059.050633662339
1096.3937947488157 4928.9110531083625
1097.2750298633455 4889.784724788232
1098.156047137938 4856.090483299728
1099.0368466352556 4969.570218165362
1099.9174284179317 5153.351787712566
1100.7977925485757 4804.039740757797
1101.6779390897755 4897.001157454301
1102.5578681040806 4929.348749308332
1103.4375796540226 4920.711114317966
1104.3170738021054 4860.550343349751
1105.1963506108077 4702.394040420801
1106.0754101425773 4685.662382917716
1106.9542524598382 4806.046926653456
1107.8328776249855 4786.90894690287
1108.7112857003904 4691.5475027509665
1109.5894767483987 4739.256407797198
1110.4674508313292 4970.704398236134
1111.3452080114657 4765.5349552319185
1112.2227483510815 4847.9312286329905
1113.1000719124077 4895.192510872503
1113.9771787576592 4984.290492937647
1114.854068949022 4834.499080728973
1115.7307425486542 4950.290983956144
1116.6071996186893 4971.632969484386
1117.483440221229 5219.028201568995
1118.3594644183577 4803.698309197254
1119.235272272128 4880.683943013864
1120.1108638445658 5028.743486878475
1120.9862391976712 5187.405250085683
1121.8613983934229 4967.543701595404
1122.7363414937627 4989.951721495813
1123.6110685606182 5004.1546176491265
1124.485579655884 5102.274428859595
1125.359874841426 5046.121581531714
1126.2339541790916 4996.562768516849
1127.1078177306936 5243.6294388376955
1127.9814655580267 5074.206484062782
1128.854897722851 5066.16589475836
1129.7281142869106 5036.843657070594
1130.6011153119125 5075.40932850848
1131.473900859548 5225.889883403421
1132.3464709914697 5049.646335925696
1133.2188257693178 5039.876664463043
1134.0909652546961 4978.271325717423
1134.96288950919 4865.610054215239
1135.8345985943506 5137.796145784189
1136.7060925717087 4846.434718239531
1137.57737150277 4881.82058780575
1138.4484354490069 5114.203700925833
1139.3192844718778 4852.552117526087
1140.1899186327992 4734.963074493364
1141.060337993178 4972.951631290639
1141.930542614382 4831.990577503713
1142.8005325577597 4762.290725956773
1143.670307884635 4664.60530705565
1144.5398686563003 4755.137237065888
1145.409214934025 4717.828827605865
1146.2783467790541 4508.431246515372
1147.1472642526023 4654.537151505794
1148.0159674158622 4818.865015219686
1148.8844563300026 4578.208021054813
1149.7527310561618 4536.360420049347
1150.6207916554504 4572.847381901423
1151.4886381889592 4451.134786861731
1152.3562707177498 4709.9102822111245
1153.2236893028585 4504.412904416214
1154.090894005296 4438.432225701103
1154.9578848860474 4457.535470741365
1155.8246620060709 4502.449684296559
1156.6912254262988 4356.103850693105
1157.5575752076438 4420.947912382547
1158.42371141098 4613.156249661197
1159.2896340971656 4531.538517054028
1160.1553433270346 4378.032812280702
1161.0208391613887 4442.374850263266
1161.8861216610057 4477.6502427408495
1162.75119088664 4503.441822073566
1163.6160468990201 4361.197056935782
1164.4806897588442 4416.527629358205
1165.3451195267917 4484.552072400167
1166.2093362635114 4442.251194295941
1167.0733400296285 4446.634467088236
1167.9371308857444 4324.710574759769
1168.8007088924278 4343.795403881624
1169.6640741102328 4369.583915523037
1170.5272265996773 4332.767048100721
1171.390166421259 4156.96854079615
1172.252893635452 4392.156813915635
1173.1154083026995 4519.87311401087
1173.977710483421 4473.479215799236
1174.8398002380145 4235.781902858391
1175.7016776268483 4472.128481783348
1176.563342710264 4357.946171267701
1177.4247955485826 4261.885076628532
1178.2860362020947 4429.512270667017
1179.147064731069 4140.779793645662
1180.0078811957483 4377.483213616231
1180.8684856563486 4297.117894755549
1181.7288781730604 4304.003859613793
1182.589058806052 4310.798772692499
1183.4490276154593 4500.874104224625
1184.3087846614017 4295.135996884094
1185.1683300039676 4340.890726800421
1186.027663703222 4569.644933306818
1186.8867858192025 4359.909275537198
1187.7456964119228 4333.773173499474
1188.6043955413716 4439.8558076478685
1189.4628832675116 4558.971213474297
1190.3211596502842 4616.457238627159
1191.179224749596 4621.004423896984
1192.0370786253388 4442.4202880983785
1192.8947213373758 4558.402505099729
1193.7521529455407 4671.492855106217
1194.6093735096438 4401.163618717759
1195.466383089477 4392.543034881053
1196.3231817447977 4501.897498242253
1197.1797695353398 4711.34636150949
1198.0361465208189 4316.387325927619
1198.8923127609214 4353.66921107523
1199.7482683153048 4548.875066562586
1200.6040132436028 4664.0587602611795
1201.459547605431 4378.223443474459
1202.3148714603722 4471.272481066839
1203.1699848679855 4461.318032853196
1204.0248878878065 4622.045778178485
1204.8795805793507 4227.424033995325
1205.7340630020935 4406.407203556077
1206.5883352155033 4531.96706231342
1207.4423972790064 4561.457719009666
1208.2962492520237 4349.6835382751
1209.1498911939307 4312.5531122983775
1210.0033231640937 4450.43846203412
1210.8565452218427 4412.561054468707
1211.7095574264913 4129.114058735755
1212.5623598373222 4236.339652214902
1213.4149525135963 4120.426290057403
1214.2673355145507 4336.994190918116
1215.1195088993936 4162.482497528035
1215.9714727273113 4174.656052392082
1216.8232270574663 4381.658162635744
1217.6747719489904 4054.9831444638353
1218.5261074609934 4097.448171130685
1219.3772336525653 4264.157629295156
1220.2281505827668 4272.4751661275095
1221.0788583106296 4312.724923046907
1221.9293568951707 4090.7813629148304
1222.7796463953746 3973.6003218332494
1223.629726870202 4262.792150782434
1224.4795983785934 4169.722264353523
1225.3292609794553 4148.347479691875
1226.1787147316809 3976.5483192871716
1227.0279596941327 4168.229317144275
1227.8769959256424 4066.4730438846555
1228.7258234850306 4243.19030058598
1229.5744424310833 3949.3848426846926
1230.422852822563 4224.24671936532
1231.2710547182105 4303.872170316148
1232.119048176739 4158.318328609215
1232.9668332568417 3947.714240692675
1233.8144100171812 4147.911216733181
1234.6617785163999 4174.994304661359
1235.508938813111 3898.0407544983887
1236.3558909659114 3997.880536061121
1237.2026350333617 4152.850311096122
1238.049171074008 4245.196476989639
1238.8954991463652 3991.737098637595
1239.741619308932 4087.180938292232
1240.587531620169 4142.794741298179
1241.4332361385277 4197.455911862034
1242.2787329224248 3971.8726878081966
1243.1240220302534 3882.928719836627
1243.9691035203869 3926.5129412651304
1244.813977451171 4143.439915596235
1245.6586438809263 4110.594125294808
1246.5031028679496 3821.0735273135915
1247.3473544705157 4106.7492732705605
1248.1913987468706 4001.5759963178402
1249.0352357552383 3824.896718662064
1249.8788655538228 3883.0520315983654
1250.7222882007918 4049.142046314152
1251.565503754302 4178.396505671442
1252.4085122724755 3753.1953639370113
1253.2513138134182 4082.057706189983
1254.0939084352049 4037.9490977463624
1254.9362961958905 3992.8564172800725
1255.7784771535007 3939.591397118161
1256.6204513660432 4056.703876722683
1257.4622188915 4141.267014245487
1258.3037797878242 3946.2162370854107
1259.1451341129468 3876.356390818052
1259.9862819247755 4082.957965012548
1260.8272232811978 3946.0819368202515
1261.6679582400666 4233.1793718642275
1262.5084868592203 3839.5631942237655
1263.34880919647 3886.92275885204
1264.1889253095997 4004.18867875685
1265.0288352563712 4161.64497191208
1265.8685390945266 3884.509089734599
1266.7080368817751 4054.411959654802
1267.5473286758115 4188.869092817104
1268.386414534294 4141.323597217577
1269.2252945148703 3734.0077211244607
1270.0639686751547 3905.815039814308
1270.9024370727402 3931.6546853495274
1271.7406997651997 3855.115274076789
1272.5787568100714 3744.886965475107
1273.4166082648808 3777.618796417405
1274.2542541871244 3885.4447244064004
1275.091694634275 4125.4048160083885
1275.9289296637817 3702.423169537423
1276.7659593330663 3966.3785644539225
1277.6027836995308 3852.604589197542
1278.4394028205552 3994.867895762664
1279.2758167534867 3935.264723511569
1280.112025555658 3901.148334357079
1280.9480292843746 3949.411148522563
1281.7838279969128 3769.4284012137396
1282.6194217505326 3811.2945307222108
1283.4548106024686 3721.847095158869
1284.289994609926 3777.4057523147085
1285.1249738300921 4021.78883074728
1285.959748320127 3687.437839145976
1286.7943181371702 3856.6143274190827
1287.6286833383328 3765.5624211084505
1288.4628439807038 3874.0474151173394
1289.2968001213521 3715.2403651177365
1290.1305518173194 3828.261354197595
1290.9640991256183 3917.3921765729056
1291.7974421032523 3813.0385340250505
1292.630580807183 3703.5106811792843
1293.463515294361 3810.3344194471456
1294.29624562171 3920.2832845400308
1295.12877184613 3760.161295037372
1295.961094024493 3670.325490787719
1296.79321221365 3816.9878506020186
1297.6251264704333 3865.9992910649867
1298.4568368516466 4103.690414524722
1299.2883434140658 3964.295055264551
1300.1196462144526 3737.370551503916
1300.9507453095375 3934.463841110567
1301.7816407560313 3946.132846502295
1302.6123326106172 3857.8823027918907
1303.4428209299622 3788.3911276269296
1304.2731057707024 3986.837353969577
1305.1031871894502 3762.692690163071
1305.933065242798 3941.455582255764
1306.7627399873181 3816.1806046941756
1307.5922114795467 4202.249309849202
1308.4214797760123 4305.094248765663
1309.2505449332057 3877.4310195030193
1310.0794070076026 3911.264092037317
1310.9080660556538 4037.883568714923
1311.736522133786 4102.310800123722
1312.5647752983987 3869.1848511681214
1313.3928256058734 3748.8033980460277
1314.2206731125661 4070.13772877772
1315.048317874809 4045.359929037078
1315.8757599489109 3797.257733523578
1316.7029993911547 3810.6075632021993
1317.5300362578055 3992.612801085846
1318.356870605101 3706.6296835511835
1319.183502489257 3777.71142579692
1320.0099319664623 3780.6712722823613
1320.836159092889 3980.219145197402
1321.66218392468 3939.481137561618
1322.4880065179532 3619.8146078166747
1323.3136269288134 3737.827648898064
1324.1390452133292 3990.30171084636
1324.9642614275563 4050.0105134528812
1325.7892756275214 3872.0635306251
1326.6140878692295 3709.5295429203056
1327.4386982086617 4231.103760599504
1328.2631067017755 3852.902183850319
1329.0873134045069 3884.155308299692
1329.911318372764 3785.883811821038
1330.735121662441 3863.2905805032738
1331.558723329399 3768.5873621572755
1332.3821234294774 3751.492154166253
1333.2053220185007 3897.8265065442974
1334.0283191522612 3686.245898300659
1334.851114886529 3926.101304414101
1335.6737092770582 3691.233167803701
1336.4961023795695 3785.564876225834
1337.3182942497697 3656.4304579543905
1338.1402849433325 3769.0876659239193
1338.962074515921 3671.9038039485386
1339.7836630231632 3613.8286466878803
1340.6050505206676 4019.9136863525664
1341.426237064028 3934.7621575007943
1342.2472227088037 3721.90263123824
1343.0680075105338 3674.658029987346
1343.888591524741 3785.1268674444386
1344.7089748069138 3975.4922294212747
1345.5291574125276 3675.4425654975394
1346.3491393970307 3601.0138930686726
1347.168920815846 3837.3162093853243
1347.9885017243778 3903.5987105503846
1348.8078821780036 3744.8855719286125
1349.6270622320844 3738.7989734854273
1350.4460419419447 3597.8456384787146
1351.2648213629054 3801.4765130580295
1352.0834005502438 3571.7083400455253
1352.90177955923 3604.5449232861683
1353.7199584451064 3826.976981836494
1354.5379372630887 3749.445155830097
1355.355716068374 3643.6730399240687
1356.1732949161305 3516.400091757097
1356.9906738615155 3753.008127335853
1357.8078529596478 3721.782174003956
1358.6248322656375 3789.7861170149263
1359.441611834567 3599.113535560829
1360.2581917214866 3761.409270768683
1361.0745719814367 3644.638144417847
1361.890752669433 3570.821404666944
1362.7067338404577 3531.5998805169197
1363.5225155494845 3807.8110018939065
1364.3380978514506 3835.094719326314
1365.1534808012839 3416.608875587066
1365.9686644538815 3269.2826483347844
1366.783648864117 3725.90624876296
1367.5984340868417 3785.6484283374493
1368.413020176893 3650.1602821363276
1369.2274071890715 3485.132614567665
1370.0415951781652 3761.703901170052
1370.8555841989346 3623.8572122007877
1371.6693743061223 3506.428915418185
1372.48296555444 3324.871479918051
1373.2963579985844 3637.2115192590454
1374.1095516932255 3591.815774461184
1374.9225466930166 3261.681267174913
1375.7353430525782 3579.835144003699
1376.5479408265164 3390.821074545142
1377.36034006941 3566.3635425670464
1378.1725408358216 3593.0582786176396
1378.9845431802805 3406.4651568574964
1379.796347157304 3814.0213271947387
1380.6079528213813 3565.774905448378
1381.4193602269788 3292.586023827286
1382.230569428546 3304.720023453757
1383.0415804805016 3616.6362857818203
1383.852393437246 3605.349917433491
1384.6630083531563 3549.4931186988033
1385.4734252825892 3426.9284706013823
1386.2836442798798 3470.815853564864
1387.0936653993322 3476.5070008931602
1387.9034886952395 3439.6295930424253
1388.713114221864 3532.381887464883
1389.5225420334482 3519.0532011813257
1390.331772184214 3376.8472224588913
1391.1408047283585 3146.0370841677595
1391.9496397200564 3330.831128065654
1392.758277213461 3573.480303933697
1393.5667172627054 3503.163204824542
1394.3749599218918 3332.8109097326624
1395.1830052451114 3147.137244046654
1395.9908532864265 3350.413138386448
1396.7985040998774 3526.767369009164
1397.6059577394808 3241.9062071393273
1398.4132142592352 3307.4559905319065
1399.2202737131156 3252.972092743414
1400.027136155073 3559.209581418489
1400.8338016390353 3263.549564517113
1401.6402702189134 3295.808255996754
1402.446541948586 3334.9656275627676
1403.2526168819204 3238.2847627804094
1404.058495072757 3296.0682618938854
1404.8641765749107 3265.53289895464
1405.6696614421799 3390.76010453462
1406.4749497283356 3675.916137810961
1407.280041487129 3253.505681610716
1408.084936772295 3150.6879027660307
1408.8896356375335 3473.887179968303
1409.6941381365323 3389.535833084034
1410.498444322955 3116.680842536879
1411.3025542504402 3204.532481204518
1412.106467972606 3403.4362905488256
1412.9101855430508 3416.6634391573143
1413.7137070153458 3031.474514055948
1414.5170324430437 3244.148936018797
1415.320161879672 3366.8766257393604
1416.1230953787435 3552.5919848965873
1416.925832993742 3166.3116467370564
1417.7283747781275 3137.6266899291923
1418.5307207853439 3269.098402303441
1419.3328710688093 3235.3437652038565
1420.134825681922 2981.211477830683
1420.9365846780584 3086.9767090131695
1421.7381481105713 3482.1161615418505
1422.539516032788 3275.207064810548
1423.3406884980232 3135.289542247396
1424.1416655595604 3098.682739974665
1424.942447270665 3091.560234364383
1425.7430336845828 3231.087180510067
1426.5434248545298 3019.0989330698426
1427.3436208337116 3241.445974396386
1428.143621675301 3305.8582980770598
1428.9434274324558 3444.3088683579795
1429.7430381583108 2942.7149751983034
1430.5424539059713 3131.612292759501
1431.3416747285337 3532.22624372391
1432.1407006790632 3267.155504153213
1432.9395318106053 3190.719453062781
1433.7381681761835 3121.9791530974176
1434.5366098288014 3267.448690263787
1435.3348568214424 3349.2786659754324
1436.1329092070573 3167.6711064137266
1436.9307670385879 3222.2223074741983
1437.7284303689503 3285.3522854603807
1438.5258992510335 3387.7666053621933
1439.3231737377118 3252.652801114075
1440.1202538818306 3170.7970710603754
1440.9171397362225 3206.082605483849
1441.7138313536925 3141.3236548830882
1442.5103287870243 3042.847110378084
1443.3066320889775 2996.661711372961
1444.1027413122956 3325.1699289887365
1444.8986565096966 3138.3247156282805
1445.694377733882 3071.7681149566465
1446.4899050375207 3040.4595186196734
1447.2852384732687 3193.675446762546
1448.0803780937622 3326.908119083821
1448.8753239516063 2978.5618515162096
1449.6700760993954 2878.590656189433
1450.464634589689 2953.953880809234
1451.2589994750397 3282.2830181341583
1452.0531708079689 3003.362760371652
1452.8471486409799 2917.8532698100785
1453.6409330265524 3276.1938579454363
1454.4345240171442 3002.9039064307385
1455.2279216651987 2971.481799060871
1456.0211260231263 3031.4514268765947
1456.8141371433194 3191.1357016189004
1457.6069550781594 3107.7202564077547
1458.3995798799897 2887.3702144662125
1459.1920116011424 2994.5964172693934
1459.98425029393 2929.4946046312384
1460.7762960106338 2933.4223942322146
1461.5681488035225 3039.6726194380403
1462.3598087248392 3103.51363036903
1463.1512758268036 3316.4879805161227
1463.942550161617 2916.5708158921143
1464.7336317814625 2880.6094655412244
1465.524520738496 3011.5118615944543
1466.3152170848552 2890.3076005487624
1467.1057208726506 3023.7205278943247
1467.8960321539817 2935.632446590993
1468.6861509809169 2866.6375884939316
1469.4760774055085 2861.824613767053
1470.265811479785 2940.028426259119
1471.055353255755 2720.4673938899414
1471.844702785409 2853.579867301208
1472.6338601207044 2750.4287844479823
1473.4228253135934 3015.204358177862
1474.2115984159936 2834.781122513704
1475.0001794798063 2615.5766617789313
1475.7885685569145 2906.545862033533
1476.576765699172 2783.3134632129772
1477.3647709584238 2817.145720112504
1478.1525843864802 3143.792839917288
1478.9402060351367 2910.7027117060697
1479.7276359561693 2927.8550601057295
1480.514874201328 2815.5999812482064
1481.3019208223468 2661.744023550105
1482.0887758709323 2651.829352857743
1482.8754393987747 3005.417487148797
1483.6619114575406 2728.3380409667852
1484.4481920988783 2801.9335329241
1485.2342813744108 2910.6230083717523
1486.0201793357446 3091.202291990647
1486.8058860344572 2709.5705521216623
1487.591401522117 2850.675873928095
1488.3767258502594 2694.077945685385
1489.1618590704056 2843.1672335666126
1489.9468012340494 2444.5206891809207
1490.7315523926754 2905.863173295726
1491.5161125977356 2892.2933221671656
1492.3004819006637 2866.1414149889483
1493.084660352877 2601.5570382884785
1493.8686480057622 2874.380060955144
1494.6524449106964 3097.379426481088
1495.4360511190262 3014.4086518648496
1496.219466682087 2832.799762490095
1497.0026916511779 2877.456524250235
1497.7857260775945 2842.6391283626845
1498.5685700125996 2951.3582099821624
1499.3512235074395 2663.9327541574576
1500.133686613337 2633.147123949825
1500.9159593814966 2678.4892801610367
1501.698041863101 2631.3114471846748
1502.4799341093094 2584.194613906236
1503.2616361712662 2534.4395710928975
1504.043148100087 2839.9817270743424
1504.8244699468742 2829.182665542854
1505.6056017626997 2533.148813162273
1506.3865435986281 2545.873791630044
1507.1672955056893 2808.5045876877734
1507.9478575348967 2613.9603595256062
1508.7282297372512 2960.0975858874253
1509.5084121637192 2715.586983761942
1510.2884048652577 2786.0404044226234
1511.0682078927948 2600.499954132075
1511.8478212972423 2652.8310919495802
1512.6272451294917 2679.4274279879673
1513.4064794404076 2724.6010979660614
1514.1855242808433 2844.3423464438347
1514.9643797016215 2728.7421290313987
1515.743045753552 2794.263467764491
1516.5215224874191 2792.354133588655
1517.2998099539836 2536.1200243173093
1518.077908203999 2689.105151287352
1518.8558172881785 2635.87311263111
1519.633537257234 2858.4046830492453
1520.4110681618404 2788.4778097325957
1521.1884100526604 2683.138618118436
1521.9655629803365 2640.0317628895154
1522.7425269954856 2905.1636680915412
1523.5193021487103 3043.3405338737703
1524.2958884905856 2623.5390897391176
1525.0722860716687 2700.9015837561706
1525.848494942502 2635.9860207803413
1526.624515153595 2647.6788640231293
1527.4003467554485 2649.53066046179
1528.175989798534 2789.094949532708
1528.9514443333064 2797.7731574336185
1529.726710410203 2976.358548999568
1530.5017880796331 2571.712158147019
1531.276677391992 2611.5948396043846
1532.0513783976457 2829.141134815532
1532.825891146953 2654.925063455629
1533.6002156902414 2796.6658761532694
1534.3743520778207 2695.6818076172663
1535.1483003599806 2758.449229231533
1535.9220605869923 2672.8754910940524
1536.6956328091019 2675.842197345478
1537.4690170765407 2636.2233319882685
1538.242213439511 2791.3859903482066
1539.015221948208 2646.593213289522
1539.78804265279 2628.3181570466977
1540.560675603405 2497.5087842834846
1541.3331208501804 2757.044074653987
1542.1053784432224 2840.035588009937
1542.8774484326168 2663.8470144119865
1543.649330868422 2709.852819884472
1544.4210258006842 2696.626328625986
1545.1925332794308 2723.397463166149
1545.9638533546604 2646.0477187047736
1546.7349860763552 2546.268220284671
1547.5059314944829 2933.292198956609
1548.27668965898 2652.9622497651826
1549.0472606197673 2685.609482111191
1549.817644426752 2629.861142134194
1550.5878411298072 2808.8746278367794
1551.3578507787988 2617.248084925006
1552.1276734235635 2485.0145701427305
1552.8973091139233 2686.967026172164
1553.6667578996767 2826.2578496338597
1554.436019830604 2582.1514175728466
1555.20509495646 2617.3254500791377
1555.9739833269869 2538.032832806207
1556.7426849919011 2515.385023115107
1557.511200000903 2881.8487232892676
1558.2795284036674 2696.232092089607
1559.0476702498509 2476.0403735995756
1559.8156255890954 2721.1201063838334
1560.5833944710157 2944.388521664096
1561.3509769452048 2477.1342660560485
1562.1183730612447 2620.2379899070256
1562.8855828686865 2564.0483292432255
1563.6526064170703 2940.3598359418215
1564.4194437559127 2835.6669029842665
1565.1860949347047 2522.162147790036
1565.9525600029283 2866.0089375651023
1566.7188390100328 2982.8446643283564
1567.4849320054564 2513.3915981732544
1568.250839038612 2543.306521566019
1569.0165601588997 2591.7113663093533
1569.7820954156887 2805.628171681297
1570.5474448583373 2607.347828360812
1571.31260853618 2544.9534463682703
1572.0775864985299 2346.716636358094
1572.8423787946813 2625.870883029504
1573.6069854739108 2497.7786184547144
1574.371406585471 2639.1854199765876
1575.1356421785986 2706.8863484593326
1575.899692302506 2574.73722734298
1576.6635570063845 2641.149778823116
1577.4272363394157 2530.501677161087
1578.190730350747 2408.0452261547393
1578.9540390895163 2735.9665677853263
1579.7171626048384 2314.9469186622964
1580.480100945806 2433.0247732582106
1581.2428541614918 2568.0470519634687
1582.0054223009538 2641.6780707462767
1582.767805413223 2611.9351950452165
1583.5300035473156 2618.4449098716727
1584.292016752228 2844.440555551117
1585.0538450769309 2742.784978356666
1585.8154885703807 2385.644256728843
1586.5769472815136 2483.3293916795647
1587.3382212592405 2680.8000083601696
1588.099310552463 2842.5011642959153
1588.8602152100484 2795.112463293454
1589.6209352808564 2703.683803971708
1590.3814708137234 2604.273616539979
1591.14182185746 2677.0036269744305
1591.9019884608679 2598.4760751214844
1592.6619706727215 2337.4460458594517
1593.4217685417734 2680.8569572229835
1594.1813821167616 2774.8200127781265
1594.9408114464022 2350.3985719981097
1595.7000565793933 2588.7867586832017
1596.459117564409 2743.596328392915
1597.2179944501113 2525.2432918344225
1597.9766872851324 2465.399659881575
1598.735196118092 2735.1307226808653
1599.4935209975883 2680.9015359741306
1600.2516619721973 2743.3897795322405
1601.0096190904787 2498.310598985689
1601.7673924009723 2556.9437607912523
1602.524981952196 2513.330748492754
1603.2823877926476 2566.6619666870492
1604.0396099708087 2362.3559617114593
1604.7966485351371 2321.464789407893
1605.5535035340745 2533.688955987756
1606.3101750160404 2809.456727079444
1607.0666630294363 2463.48697481014
1607.822967622642 2333.397023047687
1608.5790888440224 2617.349803672382
1609.3350267419137 2697.596234000269
1610.0907813646445 2567.75431108053
1610.8463527605145 2557.410387325506
1611.601740977805 2672.7707545653975
1612.356946064785 2640.8231552820116
1613.1119680696902 2312.810219342198
1613.8668070407512 2410.0444895964115
1614.6214630261748 2476.554068090801
1615.375936074137 2778.445400183184
1616.1302262328118 2536.594650030151
1616.8843335503425 2606.471645887645
1617.638258074854 2483.0328734190643
1618.391999854457 2525.9330213648345
1619.1455589372363 2679.6619812910726
1619.8989353712623 2511.2433372436517
1620.65212920458 2312.043462145517
1621.4051404852235 2495.4603730057884
1622.1579692611976 2622.9569757542668
1622.9106155804966 2328.880139302143
1623.663079491087 2469.857561949384
1624.4153610409248 2645.6558347780497
1625.1674602779385 2372.2674583145717
1625.9193772500403 2369.928683411676
1626.6711120051277 2790.206768689789
1627.4226645910676 2569.65534886133
1628.174035055721 2291.5517242562987
1628.9252234469168 2556.571846082885
1629.676229812474 2355.0911840395843
1630.4270542001905 2920.9117030366856
1631.1776966578382 2537.528778116488
1631.9281572331747 2399.1233197307342
1632.678435973945 2550.324150098558
1633.4285329278573 2584.832664055196
1634.1784481426203 2285.149703030891
1634.9281816659113 2457.216219666206
1635.677733545388 2660.2052711851215
1636.4271038286934 2491.584158161727
1637.176292563452 2530.369655785524
1637.9252997972635 2429.906218832989
1638.674125577716 2524.3850212903376
1639.4227699523672 2800.6665236035738
1640.171232968767 2263.362531955335
1640.9195146744423 2422.108298041339
1641.6676151168977 2711.6316053978744
1642.4155343436178 2782.2741809053914
1643.1632724020765 2457.167782847443
1643.9108293397167 2399.8085582000867
1644.658205203974 2367.5908739408537
1645.4054000422566 2427.1155871346386
1646.1524139019566 2486.4967505868613
1646.8992468304423 2227.363110099741
1647.6458988750728 2395.937074217676
1648.3923700831765 2427.971350254108
1649.1386605020743 2389.7070755944023
1649.8847701790564 2660.5608764131694
1650.6306991614038 2575.094905481866
1651.3764474963682 2622.639615267635
1652.1220152311944 2193.894862378863
1652.867402413096 2471.733371461347
1653.6126090892776 2458.7224683008635
1654.3576353069184 2729.8382327029444
1655.1024811131829 2603.159989345687
1655.8471465552066 2527.1296288103613
1656.5916316801213 2598.7650855636066
1657.3359365350298 2529.831682350253
1658.0800611670165 2412.0435500690814
1658.824005623148 2488.5068063782896
1659.5677699504722 2338.4623896850526
1660.3113541960192 2516.1798252488484
1661.054758406799 2421.3117017223694
1661.7979826297997 2307.856422537893
1662.5410269119966 2304.5220308933713
1663.283891300338 2616.7783501601543
1664.0265758417645 2324.281295622088
1664.7690805831826 2371.4337042944358
1665.5114055714948 2511.889297146382
1666.2535508535748 2338.1742745007205
1666.9955164762814 2163.9459579863315
1667.7373024864555 2402.6468316676214
1668.478908930916 2516.638552988387
1669.220335856462 2251.3842252809873
1669.9615833098778 2379.3509961814843
1670.7026513379296 2257.8345515085343
1671.44353998736 2491.239874475652
1672.1842493048916 2363.344557595375
1672.9247793372379 2291.7192249542763
1673.6651301310812 2501.1720777719906
1674.4053017330934 2328.6136047120767
1675.1452941899242 2149.4527755719937
1675.885107548207 1970.000319411587
1676.6247418545518 2047.2213598243125
1677.3641971555535 2173.9864815254086
1678.1034734977893 2370.4445200026726
1678.8425709278108 2297.819057840567
1679.5814894921605 2486.471674005499
1680.320229237359 2426.43542714459
1681.0587902098978 2533.1371345723096
1681.7971724562685 2315.8678246433756
1682.5353760229264 2121.3268036306076
1683.2734009563173 2470.136055808287
1684.0112473028657 2141.98134712798
1684.7489151089794 2379.3982415312416
1685.4864044210462 2435.8802057214375
1686.2237152854377 2506.2877130954084
1686.960847748498 2576.9314720117245
1687.6978018565642 2253.9669871328406
1688.434577655944 2169.695518530464
1689.1711751929379 2148.4526243855685
1689.9075945138156 2332.6543028865917
1690.6438356648396 2169.8557229232338
1691.3798986922448 1896.1585155278958
1692.1157836422499 2222.415414258189
1692.851490561059 2093.0324989991636
1693.587019494853 2254.1553434696166
1694.3223704897991 1988.6007242605544
1695.0575435920364 1964.1784551355206
1695.792538847696 2044.7821546983091
1696.527356302886 2125.4080505031934
1697.2619960036936 1951.721710944572
1697.9964579961907 1946.0905966793296
1698.730742326432 1783.9221031407142
1699.4648490404488 1869.7873334933952
1700.1987781842563 2031.2271852077738
1700.9325298038548 2187.0306364691496
1701.6661039452174 2337.1926121521956
1702.3995006543082 2208.782103913326
1703.1327199770658 2321.131126477337
1703.865761959416 2028.1470997469976
1704.598626647261 2300.315934595932
1705.3313140864866 2048.3060797364856
1706.0638243229587 1969.0446330715981
1706.7961574025303 2191.210957146396
1707.528313371029 2151.0582776881174
1708.260292274268 1920.221220659633
1708.9920941580403 2099.810078069084
1709.7237190681226 2201.8529141405334
1710.4551670502697 2010.8234967705607
1711.18643815022 1834.2737525039847
1711.9175324136959 1927.9113859920883
1712.6484498863938 2021.6988714755566
1713.379190614005 1757.4271110715151
1714.109754642188 2066.729593773474
1714.8401420165883 2015.6123526058207
1715.570352782839 2057.1168269995146
1716.3003869865497 2098.778072766082
1717.0302446733076 1835.5242659321407
1717.7599258886876 2077.9984875365076
1718.4894306782444 2416.3780101469356
1719.2187590875183 2325.483390284423
1719.9479111620203 2234.3998483377864
1720.6768869472544 1909.364047065444
1721.4056864887025 2251.690807226648
1722.1343098318284 2267.1288154891645
1722.8627570220742 2099.586211132987
1723.591028104871 1868.6710996794725
1724.3191231256242 1850.6869912161014
1725.0470421297232 1961.1460447947907
1725.7747851625427 2152.138689702473
1726.5023522694337 2117.334558180483
1727.2297434957363 2089.117999193339
1727.9569588867635 1794.7124102721223
1728.6839984878152 2150.7776958874356
1729.4108623441734 2131.197401031007
1730.1375505011038 2111.8001213421708
1730.8640630038426 1920.764003375345
1731.5903998976264 1787.1553855143018
1732.316561227657 2021.4360361394938
1733.0425470391274 1789.556190691308
1733.7683573772065 2080.049533855055
1734.4939922870508 1991.3929337073744
1735.2194518137949 1977.767627133974
1735.9447360025606 2012.737299826993
1736.669844898439 1986.6512817547857
1737.3947785465189 1845.9042873585472
1738.1195369918605 1801.7220010465123
1738.8441202795093 1930.053101450913
1739.5685284544943 2033.1893108561067
1740.292761561821 2138.638681954012
1741.0168196464838 2032.7429548577352
1741.7407027534518 2014.0365328795847
1742.464410927687 2067.3964246253818
1743.187944214118 1944.4087138131138
1743.9113026576688 1966.475821101189
1744.634486303241 1894.960671254868
1745.3574951957125 1921.8986092279938
1746.0803293799509 2105.2573586903486
1746.8029889008048 1955.473466846186
1747.5254738031017 1955.0832441729956
1748.2477841316504 1869.0382870057074
1748.969919931249 1849.281786098131
1749.6918812466665 1943.182298431635
1750.4136681226646 2214.590429182613
1751.1352806039777 1910.6993208096142
1751.856718735331 1628.7356784272838
1752.5779825614281 1777.3153396592031
1753.2990721269507 1986.9403095662412
1754.0199874765676 2102.085475842489
1754.7407286549314 1712.4226727546297
1755.4612957066693 1833.6263070124937
1756.1816886763954 1800.282350662992
1756.9019076087097 2017.580461516833
1757.6219525481865 2035.5228603416551
1758.3418235393856 2038.3784370797093
1759.061520626854 1865.6255013406426
1759.7810438551096 2147.018278372463
1760.5003932686614 1718.4168464529635
1761.2195689119999 2071.318237014579
1761.938570829594 1901.2843100343307
1762.657399065898 1952.5709761525518
1763.376053665348 1772.3178825385753
1764.0945346723602 1727.1755666998513
1764.812842131334 1701.7653101143685
1765.5309760866512 1676.4301381000882
1766.2489365826787 1803.2465948347635
1766.9667236637597 1869.6465385807994
1767.684337374223 1550.1416505001503
1768.401777758383 1645.0203792426523
1769.1190448605284 1733.041237707081
1769.836138724937 1717.536807408948
1770.5530593958665 1827.338421441175
1771.2698069175603 2186.6911134496654
1771.9863813342326 2009.502594718464
1772.702782690094 1817.5061054711373
1773.4190110293293 2066.2471512648885
1774.1350663961111 2032.274138217578
1774.8509488345844 1730.768788174079
1775.5666583888924 1964.4398944321288
1776.2821951031437 2065.708415062982
1776.9975590214362 1852.028689131767
1777.7127501878585 2031.7547229459337
1778.4277686464684 1936.3542937919406
1779.1426144413108 2115.795876574025
1779.8572876164162 2069.4843086796313
1780.571788215797 1678.0138211671942
1781.2861162834415 1803.3903926827347
1782.0002718633277 1793.9242323879491
1782.7142549994132 2023.5698161227217
1783.4280657356376 1930.403644530823
1784.141704115922 1830.4925841311451
1784.855170184177 1791.6372756944352
1785.5684639842839 2023.2663204163575
1786.2815855601148 1957.209570194725
1786.9945349555237 1891.0441202640704
1787.707312214343 1673.028173735184
1788.4199173803918 1687.7673688525326
1789.132350497468 1702.6787428172781
1789.8446116093583 1737.663400944765
1790.556700759822 1817.5494115019574
1791.2686179926077 1739.8272961802602
1791.9803633514493 1796.3725054827323
1792.6919368800554 1596.13361089897
1793.4033386221236 1887.7191414499102
1794.1145686213295 1973.1159651600858
1794.8256269213307 2160.930620322225
1795.536513565774 1853.606661221461
1796.247228598284 1522.675099139506
1796.9577720624693 1716.308402739984
1797.6681440019165 1765.7202672547442
1798.3783444602013 1818.467900695591
1799.0883734808776 1875.3581399622085
1799.7982311074884 1908.355523399734
1800.5079173835475 1850.5866019531168
1801.2174323525633 1956.8338020042434
1801.9267760580187 1765.8226854850332
1802.635948543386 1896.7592531916682
1803.3449498521113 1648.239758556539
1804.0537800276325 1952.1080257959925
1804.7624391133668 1821.6664170819436
1805.47092715271 1539.4701299034782
1806.1792441890484 1667.3134686000649
1806.8873902657433 1970.413230174631
1807.5953654261448 1788.334335871316
1808.3031697135812 1630.1140654963815
1809.0108031713662 1691.1403599544956
1809.71826584279 1821.2659776717035
1810.425557771141 1894.891140661584
1811.1326789996747 1808.1570327095828
1811.839629571632 1721.2236619157168
1812.5464095302468 1739.5904396482715
1813.2530189187182 1707.8444196167045
1813.959457780249 1751.1353315392134
1814.6657261580076 1914.6721251621293
1815.371824095153 1745.0757717345346
1816.0777516348262 1549.8833558906128
1816.78350882015 1761.7141091649871
1817.4890956942272 1547.6330152286641
1818.1945123001533 1679.864021628456
1818.8997586809928 1611.2978393042508
1819.6048348798067 1633.1488431736993
1820.3097409396287 1779.064179432436
1821.0144769034796 2159.0775869285612
1821.7190428143622 1959.509723658001
1822.423438715261 1991.348214476698
1823.1276646491478 1674.6033224496186
1823.8317206589727 1848.1284626041208
1824.5356067876692 1824.2309952909964
1825.2393230781581 1826.329262570825
1825.942869573335 1463.5942745161256
1826.646246316086 1620.289116264572
1827.3494533492758 1848.5452393131313
1828.052490715756 1887.6822034178726
1828.7553584583547 1719.908607040295
1829.458056619891 1823.0902588581957
1830.1605852431585 1730.2433763113445
1830.8629443709433 1533.8143468786284
1831.5651340460063 1731.6228165273
1832.2671543110919 1591.676848775704
1832.9690052089318 1896.167520457473
1833.6706867822395 1540.3485453045632
1834.3721990737104 1820.1429995901185
1835.0735421260233 1847.8797378376596
1835.774715981841 1750.7634489759998
1836.4757206838058 1739.802457664781
1837.1765562745459 1729.2767535925236
1837.8772227966747 1541.158128500525
1838.5777202927839 1673.006709674406
1839.2780488054523 1542.8880699672907
1839.9782083772352 1641.7408834882954
1840.6781990506806 1672.063216661331
1841.378020868313 1702.3450996531315
1842.0776738726418 1821.5622538654388
1842.777158106157 1604.677702930505
1843.4764736113375 1615.5635608366497
1844.1756204306403 1887.12294672547
1844.8745986065078 1772.83107818026
1845.5734081813607 1627.4212024707972
1846.2720491976124 1607.006807303235
1846.970521697649 1560.213526876871
1847.6688257238511 1762.2022604762956
1848.3669613185684 1771.0569434068766
1849.0649285241452 1475.1984848499465
1849.7627273829057 1803.4322375365507
1850.460357937156 1651.3668430422745
1851.1578202291857 1436.8803054062364
1851.8551143012664 1637.8909549876398
1852.5522401956569 1759.0859575563204
1853.2491979545957 1594.7854384613677
1853.9459876203055 1430.7299868388209
1854.6426092349902 1552.8637104893207
1855.3390628408451 1611.5327435383715
1856.0353484800362 1937.019010960848
1856.7314661947203 1796.8673007016685
1857.4274160270397 1655.6943149821968
1858.123198019115 1616.3633511316336
1858.8188122130487 1557.064691158314
1859.5142586509319 1694.267489673588
1860.209537374838 1672.1847059043102
1860.9046484268183 1720.3117723755508
1861.599591848917 1967.286232080016
1862.294367683151 1608.2203530713691
1862.988975971528 1577.222832461356
1863.6834167560355 1767.1427534709542
1864.3776900786452 1794.5127725130842
1865.0717959813119 1699.946747005486
1865.7657345059724 1580.8547792550032
1866.4595056945564 1775.7324556979008
1867.1531095889586 1731.7127705974824
1867.846546231076 1641.3667279625054
1868.5398156627743 1939.265579066719
1869.2329179259123 1536.4990470895634
1869.9258530623283 1874.2672755272627
1870.618621113843 1633.8205977480877
1871.3112221222636 1516.6692209456173
1872.0036561293764 1511.7050027428272
1872.695923176956 1723.800734481014
1873.3880233067594 1575.556551599257
1874.0799565605212 1427.0960473907528
1874.7717229799673 1637.8613396249661
1875.4633226068036 1981.233710277766
1876.1547554827175 1782.5395350072533
1876.8460216493859 1571.1687926551479
1877.5371211484617 1634.315544609214
1878.2280540215852 1619.7144932515143
1878.9188203103804 1511.2319207034477
1879.6094200564548 1652.389428561471
1880.299853301396 1551.7034224232477
1880.9901200867826 1896.250510820321
1881.6802204541673 1635.7285225234152
1882.3701544450942 1830.6347791211774
1883.059922101087 1540.2844346651245
1883.7495234636517 1908.8651924211892
1884.4389585742792 1650.1608911709213
1885.1282274744517 1523.8491967837758
1885.8173302056166 1619.3769944351234
1886.506266809225 1715.0348016434823
1887.195037326701 1381.3868592492722
1887.8836417994517 1554.7890123385127
1888.5720802688702 1930.541445116667
1889.260352776333 1796.8707212546171
1889.9484593632042 1928.992021210695
1890.63640007082 1582.8066360535263
1891.3241749405151 1460.3189984931155
1892.0117840135954 1681.4477029207294
1892.6992273313572 1659.4921725347613
1893.3865049350788 1543.9787082515572
1894.0736168660223 1926.7664082160336
1894.7605631654333 1680.6029230462032
1895.4473438745408 1466.4342006056097
1896.133959034556 1617.5748041095308
1896.820408686679 1768.834244607915
1897.506692872088 1973.0389718836254
1898.192811631945 1699.528231550039
1898.8787650073991 1668.8845739749581
1899.5645530395832 1796.5499922364265
1900.2501757696118 1829.4381953949382
1900.9356332385796 1521.0137606972928
1901.620925487574 1606.1205889003952
1902.3060525576602 1691.5004068140545
1902.9910144898859 1782.1545510859044
1903.6758113252872 1499.4202109062858
1904.3604431048789 1717.6528330751935
1905.0449098696663 1827.9737655763172
1905.7292116606295 1500.705203129733
1906.4133485187394 1793.6722642000332
1907.0973204849488 1366.8748452343611
1907.7811276001976 1425.0765481131193
1908.4647699053967 1615.2714971164473
1909.1482474414588 1599.4571530958945
1909.8315602492694 1583.5342690209175
1910.5147083696957 1865.1544969283736
1911.1976918436012 1605.5855859825538
1911.880510711815 1540.5970201474452
1912.5631650151681 1500.768272102705
1913.2456547944657 1460.839843883407
1913.927980090495 1584.5259301508174
1914.6101409440362 1637.3283232408464
1915.2921373958416 1826.9033745797647
1915.9739694866603 1602.7413541862556
1916.655637257214 1856.443813042565
1917.3371407482136 1654.2209601150075
1918.0184800003572 1964.8468688439148
1918.6996550543154 1809.6166087525914
1919.3806659507554 1662.43795420266
1920.0615127303208 1588.3053296250328
1920.7421954336423 1944.933000252841
1921.4227141013343 1862.3600152424165
1922.103068773993 1576.9873288202618
1922.783259492202 1547.1422370561463
1923.4632862965227 1517.3184196786435
1924.1431492275078 1603.9506949191918
1924.8228483256917 1462.44515334397
1925.5023836315922 1555.8411402276333
1926.1817551857057 1732.0427928189806
1926.8609630285227 1492.9067398649179
1927.5400072005123 1693.3160716241086
1928.218887742125 1623.73055589118
1928.8976046938005 1530.6997265582418
1929.5761580959588 1717.0035277336458
1930.2545479890086 1677.599688751417
1930.9327744133352 1407.9471545975773
1931.6108374093164 1637.3054474451226
1932.2887370173066 1947.277566906055
1932.9664732776473 1836.8426396427021
1933.6440462306673 1726.0874544358958
1934.3214559166754 1613.601114631011
1934.9987023759659 1998.5128678499939
1935.675785648813 1768.5379631391904
1936.3527057754836 1340.865132030783
1937.029462796223 1412.5133873876728
1937.70605675126 1484.3476002499572
1938.3824876808085 1444.1323202865024
1939.058755625072 1545.7504269002197
1939.7348606242267 1539.8918909028116
1940.4108027184448 1747.8352110057845
1941.0865819478713 1856.8752087603486
1941.7621983526478 1596.8772881165535
1942.4376519728921 1387.0296192656049
1943.1129428487038 1626.3813103311359
1943.7880710201734 1690.5668846328379
1944.4630365273733 1754.8436732285943
1945.1378394103576 1399.7942368560525
1945.8124797091714 1349.2100471502717
1946.4869574638324 1298.4782432038241
1947.161272714353 1569.83896222638
1947.8354255007234 1674.6111336934337
1948.5094158629272 1539.8479705179693
1949.1832438409183 1674.7304355497483
1949.8569094746435 1796.2947223289302
1950.530412804037 1952.9600074169102
1951.2037538690092 1720.9352809582185
1951.8769327094578 1456.4385655489282
1952.5499493652678 1637.4403132320244
1953.222803876306 1860.49110151986
1953.895496282421 1698.4206415790536
1954.5680266234522 1784.3643175670445
1955.2403949392155 1754.378238301789
1955.9126012695142 1454.1745240200894
1956.5846456541403 1541.9428108790962
1957.2565281328643 1676.7117282737224
1957.9282487454457 1767.742933313532
1958.5998075316202 1760.2178394211974
1959.27120453112 1610.8658068773907
1959.9424397836501 1609.2092308509518
1960.613513328908 1708.5231650913884
1961.2844252065697 1606.408654873248
1961.9551754563017 1504.087065098715
1962.6257641177453 1533.6772612090372
1963.29619123054 1355.811011275243
1963.966456834296 1467.8243744076847
1964.6365609686181 1377.1617530241592
1965.306503673086 1404.523215523246
1965.976284987275 1431.8777220840461
1966.645904950734 1582.44978058156
1967.315363603002 1319.8545457324526
1967.9846609836077 1567.0961214460815
1968.6537971320486 1569.6607335048773
1969.3227720878222 1659.0518207743075
1969.9915858904042 1535.1203014318012
1970.660238579252 1625.5477123490148
1971.3287301938108 1526.3582826768484
1971.997060773514 1510.298004541306
1972.665230357772 1416.2291363718973
1973.3332389859843 1466.7757417929106
1974.0010866975335 1308.4136058866313
1974.6687735317864 1564.480490898275
1975.3362995280932 1676.0423930383768
1976.003664725793 1621.784414239168
1976.6708691642052 1413.1990104642714
1977.3379128826364 1525.602867983838
1978.004795920373 1727.6610416250628
1978.6715183166925 1487.0634200218014
1979.3380801108524 1813.863874015818
1980.0044813420973 1651.8745845376798
1980.6707220496555 1234.7749286380715
1981.3368022727373 1551.2945003222542
1982.0027220505417 1664.515680079004
1982.66848142225 1243.7978071271016
1983.3340804270283 1282.044863131241
1983.999519104027 1525.9194605819262
1984.6647974923835 1553.555680172436
1985.329915631215 1763.0407697897026
1985.99487355963 1567.6885524606316
1986.6596713167146 1848.9234170172126
1987.3243089415428 1543.3452401581749
1987.9887864731754 1830.9906180912399
1988.6531039506553 1325.0143864984832
1989.3172614130071 1379.1649294731553
1989.9812588992481 1433.4306731244603
1990.645096448372 1145.3741870205486
1991.3087740993633 1254.250941228623
1991.9722918911848 1363.3435577097116
1992.635649862792 1590.8370796361185
1993.2988480531185 1617.7408636045993
1993.9618865010852 1537.5193737101006
1994.6247652455968 1457.2037760785338
1995.287484325545 1357.9492774055095
1995.9500437798033 1451.269620829139
1996.6124436472292 1479.5244149384714
1997.2746839666706 1731.7329892663627
1997.936764776954 1520.9662013525412
1998.598686116895 1543.2879564153761
1999.2604480252903 1879.5332712305012
1999.9220505409212 1766.6550255395582
2000.5834937025593 1365.5497652963008
2001.2447775489582 1527.4960580865456
2001.9059021188514 1605.1664784422815
2002.5668674509616 1359.0922726822994
2003.2276735839987 1494.2785460206962
2003.8883205566508 1533.5441817698268
2004.5488084075987 1572.8141533186372
2005.2091371755014 1433.27336674103
2005.8693068990033 1282.2150157084338
2006.5293176167397 1293.6040934720036
2007.1891693673224 1305.1293560978872
2007.848862189354 1282.5562777035263
2008.5083961214223 1472.966244304079
2009.1677712020955 1377.9559120809993
2009.8269874699254 1277.6066804947745
2010.4860449634598 1257.8717899597107
2011.1449437212177 1238.1593192244163
2011.8036837817108 1807.4696600771108
2012.4622651834325 1641.5567140190276
2013.1206879648653 1669.1669473999439
2013.7789521644736 1490.0638498835165
2014.4370578207036 1726.3106699064435
2015.0950049719922 1554.6360746788262
2015.7527936567585 1652.9391801044112
2016.4104239134067 1497.9753809551016
2017.067895780323 1925.3418646625785
2017.725209295886 1883.55375373778
2018.3823644984514 1841.603421664154
2019.0393614263648 1658.2350314954517
2019.6962001179545 1531.7811402313505
2020.3528806115355 1701.0607796043037
2021.0094029454067 1540.1992138479345
2021.6657671578487 1394.943204345649
2022.321973287133 1596.903485013171
2022.9780213715148 1514.6246344765464
2023.6339114492293 1486.8908659727078
2024.2896435585026 1568.742760078223
2024.9452177375442 1474.458340631324
2025.600634024544 1790.6087030044225
2026.2558924576842 1687.8486921529177
2026.9109930751292 1828.1201224295764
2027.565935915025 1874.609575916325
2028.2207210155066 1921.2356202526669
2028.8753484146964 1914.7008001430786
2029.529818150695 1886.8324255838409
2030.1841302615903 1858.752218373233
2030.8382847854573 1412.6050387498794
2031.4922817603601 1509.757382288714
2032.1461212243357 1589.4675749334367
2032.7998032154192 1255.767636825881
2033.4533277716218 1465.635744645492
2034.1066949309443 1341.7422970220455
2034.7599047313688 1369.2609215129473
2035.4129572108704 1628.9466067500784
2036.0658524074006 1495.8128351033388
2036.7185903589016 1553.168214084319
2037.3711711032956 1589.7268836578735
2038.023594678496 1617.6372410179424
2038.675861122394 1520.8807314043684
2039.3279704728757 1451.1833528265074
2039.9799227678031 1381.460577439189
2040.6317180450278 1395.3915570048594
2041.2833563423865 1453.8195139229088
2041.9348376977014 1573.5381290161545
2042.5861621487784 1693.4924616358264
2043.2373297334088 1551.1348676123216
2043.8883404893695 1794.380383919954
2044.5391944544208 1683.3466233299264
2045.1898916663158 1760.8542079482522
2045.8404321627804 1861.817114114882
2046.4908159815368 1698.551757111642
2047.1410431602853 1534.9324807982634
2047.7911137367173 1524.574666633151
2048.441027748504 1338.6243988477474
2049.090785233302 1152.4441966802779
2049.7403862287592 1425.7129613826937
2050.389830772503 1318.5595187092445
2051.0391189021466 1737.1399455484727
2051.688250655294 1636.8990971376445
2052.337226069527 1266.705876735239
2052.986045182417 1695.2726915578623
2053.634708031521 1115.3448939509103
2054.283214654375 1623.5718195079896
2054.931565088511 1126.2713392859994
2055.579759371436 1252.6067566202005
2056.2277975406523 1545.2397056326984
2056.8756796336384 1390.2892185450378
2057.5234056878617 1234.9520631355822
2058.1709757407752 1399.7086972146924
2058.8183898298194 1804.5223736412856
2059.465647992416 1789.0501242725586
2060.1127502659747 1649.9329866084784
2060.759696687888 1617.8087789109454
2061.4064872955405 1585.6930390137409
2062.053122126292 1740.0870333609596
2062.699601217497 1599.3102613709084
2063.345924606485 1458.5676162286647
2063.992092330587 1438.6387186326997
2064.638104427102 1315.4879745316184
2065.283960933324 1463.042051180548
2065.92966188653 1610.7381479827598
2066.5752073239855 1758.0050869216132
2067.2205972829397 1402.9661618976218
2067.86583180062 1665.1549294266176
2068.5109109142522 1353.0237704873564
2069.15583466104 1351.3757700957658
2069.8006030781708 1349.7276119894352
2070.445216202821 1406.178892407051
2071.089674072153 1643.909428648712
2071.7339767233116 1678.8674065135688
2072.3781241934303 1578.1017436464135
2073.0221165196253 1623.3817237158096
2073.6659537390024 1480.3236938628775
2074.3096358886505 1586.2762150055153
2074.953163005637 1453.447856896602
2075.596535127028 1238.1206310693474
2076.2397522898664 1314.4719799929717
2076.882814531182 1419.565092618593
2077.5257218879924 1607.323619562608
2078.1684743973 1335.3525937723211
2078.8110720960885 1331.5899811529212
2079.453515021336 1515.5604373564552
2080.095803209997 1699.703774766366
2080.7379366990135 1618.9894539735942
2081.37991552532 1507.0904614283397
2082.0217397258275 1682.7743105886561
2082.6634093374414 1318.6272295391373
2083.3049243970418 1541.7108876556165
2083.9462849415067 1678.700764057837
2084.587491007689 1562.210056554874
2085.2285426324324 1473.3756090243155
2085.869439852564 1495.4079249267847
2086.510182704902 1295.4790303705
2087.1507712262483 1516.534322747973
2087.791205453381 1319.7300383345278
2088.4314854230743 1640.8370781713231
2089.0716111720867 1500.6127436936308
2089.7115827371617 1247.5190720587063
2090.351400155023 1317.1750869080581
2090.991063462385 1387.0218825212878
2091.6305726959527 1218.3456711725278
2092.2699278924047 1322.1779236132265
2092.9091290884153 1426.2780128351712
2093.548176320641 1344.8820269406792
2094.187069625721 1682.0139481405724
2094.8258090402887 1643.4664581217753
2095.464394600951 1604.8360937933098
2096.102826344313 1422.3823049987373
2096.741104306955 1337.034070930532
2097.379228525453 1251.4986574102754
2098.017199036358 1076.292726797459
2098.6550158762147 1732.7926269922814
2099.2926790815527 1751.2063388089591
2099.9301886888825 1477.8791740110387
2100.5675447347076 1454.6225679956196
2101.2047472555114 1672.780420737647
2101.841796287761 1463.6374278363107
2102.47869186792 1554.167816380053
2103.1154340324265 1353.9725982446787
2103.752022817709 1508.8021797224064
2104.388458260184 1320.0426337431775
2105.024740396251 1453.7552719921473
2105.660869262292 1439.8839348032607
2106.296844894685 1451.6794837660416
2106.93266732978 1463.5374811655165
2107.5683366039284 1359.9547970272222
2108.2038527534532 1561.7479401476078
2108.8392158146726 1647.6794046451218
2109.4744258238843 1616.7203843856146
2110.1094828173755 1585.7051403717805
2110.744386831422 1853.9555573504044
2111.3791379022787 1475.268825574264
2112.01373606619 1818.999082407092
2112.648181359389 1642.4314314077299
2113.28247381809 1588.8743497114845
2113.916613478492 1761.837739591466
2114.550600376786 1575.8355721278972
2115.1844345491445 1473.1552846985287
2115.818116031729 1339.7384222747787
2116.451644860679 1499.4692014857203
2117.085021072133 1313.2168072673712
2117.718244702204 1229.0386687489095
2118.3513157869984 1287.5426624374238
2118.984234362604 1326.5302283322274
2119.617000465092 1463.4011860372102
2120.249614130529 1471.287699849868
2120.8820753949585 1479.1892121210903
2121.5143842944162 1422.7704546243638
2122.14654086492 1484.1824312094739
2122.7785451424734 1516.367559571378
2123.4103971630702 1580.7747443995634
2124.042096962681 1645.5055884873732
2124.6736445772767 1677.2551777082438
2125.305040042802 1414.0597652802567
2125.936283395191 1450.6049748695482
2126.567374670365 1433.9350062251233
2127.198313904233 1392.3000186930942
2127.8291011326855 1395.6991588895394
2128.4597363916037 1398.9395532147294
2129.0902197168507 1350.4322683256823
2129.720551144279 1567.9882412958736
2130.3507307097225 1785.750518057063
2130.980758449008 1739.5514847441113
2131.6106343979427 1391.509732226693
2132.2403585923203 1709.0797004826686
2132.8699310679276 1893.3858534503518
2133.499351860526 1583.4099543153866
2134.1286210058715 1502.9832986150213
2134.7577385397053 1692.4766973028254
2135.3867044977487 1882.2520486881672
2136.0155189157176 1961.0021433159586
2136.644181829308 1820.8579209308632
2137.2726932742025 1570.3515628080952
2137.901053286074 1405.4457429324825
2138.5292619005777 1240.3277847442212
2139.1573191533535 1423.5736254401113
2139.7852250800315 1585.8022789820848
2140.4129797162295 1703.049855201838
2141.0405830975433 1171.78331093904
2141.6680352595613 1256.7497566648594
2142.2953362378576 1341.893298113385
2142.9224860679915 1451.8501355732396
2143.549484785508 1462.1228552525233
2144.1763324259373 1488.8621393900903
2144.803029024799 1329.3560381479733
2145.429574617594 1366.056147536453
2146.0559692398165 1636.262838906542
2146.682212926942 1363.128963540285
2147.308305714432 1534.3563911091667
2147.9342476377333 1676.460618005593
2148.5600387322847 1823.7816046047933
2149.185679033506 1580.4103719865102
2149.8111685768017 1447.6778698806802
2150.4365073975678 1456.4247351770396
2151.061695531187 1280.2910527088488
2151.686733013021 1431.6241952427013
2152.311619878423 1583.3532356485707
2152.9363561627342 1611.8882038461693
2153.560941901278 1630.8094205071554
2154.1853771293663 1649.6238855763427
2154.809661882293 1545.6886463833855
2155.433796195348 1854.9873261579487
2156.0577801037944 1803.300245122071
2156.681613642895 1751.3801742455034
2157.3052968478896 1339.175289363947
2157.928829754006 1716.6617645632134
2158.552212396462 1646.5531777756573
2159.1754448104566 1558.4715996907403
2159.7985270311783 1302.9425307554418
2160.4214590938027 1030.4676683032699
2161.0442410334927 1333.2143631576487
2161.6668728853874 1122.5481883596376
2162.289354684628 1339.4312963793727
2162.911686466332 1330.304664650916
2163.533868265602 1631.9365646621304
2164.1559001175337 1667.6879300919488
2164.7777820572046 1703.428114670578
2165.399514119681 1558.0702736660185
2166.021096340013 1243.5729477951454
2166.6425287532384 1684.0395723297956
2167.263811394385 1194.872899934263
2167.8849442984574 1823.8252860444986
2168.505927500455 1315.893507201812
2169.126761035366 1604.6002278825758
2169.7474449381552 1477.2103320351891
2170.367979243778 1093.0780516278332
2170.9883639871823 1832.429571688992
2171.608599203293 1338.878862556869
2172.2286849270276 2035.9066275807756
2172.8486211932886 2087.3061966560076
2173.4684080369625 1586.673222556451
2174.0880454929265 1282.5982298672018
2174.7075335960417 1144.1759726400169
2175.3268723811543 1302.328972710047
2175.9460618831 1460.8983321659682
2176.565102136701 1493.2764724158783
2177.1839931767627 1533.739605872317
2177.802735038078 1574.3317047368737
2178.421327755432 1339.4642388235568
2179.0397713635866 1363.8803308909332
2179.658065897298 1224.144857466466
2180.276211391305 1581.1066385580577
2180.8942078803357 1433.1256281671513
2181.5120553991 1557.9794406296728
2182.129753982299 1268.7398454415877
2182.7473036646206 1525.2159463431735
2183.3647044807367 1487.989834692596
2183.9819564653044 1518.682820704349
2184.599059652968 1549.5024799880275
2185.216014078367 1694.3934059981596
2185.832819776113 1732.913341086977
2186.4494767808137 1771.4255587785096
2187.065985127063 1439.0142514017668
2187.682344849436 1413.3246401991373
2188.298555982501 1433.5673285601404
2188.9146185608097 1453.7537772712144
2189.530532618901 1624.702101007055
2190.1462981912937 1636.8898346280891
2190.761915312507 1631.4637732463907
2191.377384017036 1376.910801765604
2191.9927043393654 1594.901385704675
2192.6078763139667 1773.8076962148116
2193.2228999753006 1296.2443942918267
2193.837775357808 1457.5076500346245
2194.452502495922 1090.8901136915933
2195.0670814240602 1468.7001050292058
2195.6815121766285 1202.799466017786
2196.2957947880186 1177.931175605906
2196.9099292926057 1153.0167831877193
2197.523915724758 1576.4448804913582
2198.137754118825 1473.4786784846033
2198.7514445091456 1803.1524732171988
2199.3649869300443 1898.3637111445005
2199.9783814158327 1993.877052322902
2200.5916280008096 1996.314597286783
2201.2047267192593 1655.325068273045
2201.8176776054515 1472.9764061371711
2202.430480693649 1326.2836068373751
2203.0431360180955 1771.499777509262
2203.6556436130195 1782.1840533477382
2204.268003512645 1160.0763001383334
2204.8802157511727 1418.5547305585528
2205.492280362796 1428.2923243254054
2206.1041973816937 1438.0931866980097
2206.715966842032 1510.3097060437185
2207.3275887779655 1519.4748934030788
2207.93906322363 1621.3065297677863
2208.550390213153 1638.7058497506725
2209.1615697806465 1438.874281483883
2209.7726019602105 1567.0321399219242
2210.3834867859277 1302.811298828167
2210.9942242918787 1395.3169064200622
2211.6048145121167 1571.1273833281568
2212.2152574806914 2158.2719019299457
2212.825553231638 1340.5834604917147
2213.435701798975 2276.25226130791
2214.045703216707 1513.3144526338124
2214.655557518832 1140.494809001926
2215.2652647393297 1203.892103245964
2215.874824912169 1308.7423067691466
2216.4842380713 1413.9771630901162
2217.09350425067 1309.0320861230732
2217.7026234842033 1765.0714022783427
2218.311595805819 1703.1140165143938
2218.9204212494133 1438.1545855544114
2219.52909984888 1810.0393254583123
2220.137631638092 1784.7786232585593
2220.7460166509154 1759.352475011244
2221.354254921198 1376.7647506680623
2221.9623464827764 1607.6787254654973
2222.5702913694713 1360.651324717936
2223.178089615096 1407.209688784303
2223.7857412534486 1453.8552380204846
2224.39324631831 1216.0739333923134
2225.000604843457 1485.3502271434031
2225.607816862641 1765.1381005074356
2226.214882409611 1692.898199933028
2226.8218015180973 1811.2100673141365
2227.4285742218217 1403.1170496953505
2228.0352005544864 1541.4271681262028
2228.6416805497847 1226.6342186553554
2229.248014241399 1438.7817068009697
2229.8542016629945 1598.2519785791344
2230.460242848223 1757.9225685367219
2231.0661378307304 1933.0627257970093
2231.671886644139 1587.950276272499
2232.277489322065 1242.4441127305322
2232.8829458981127 887.0674603173744
2233.48825640587 1452.0640621931389
2234.0934208789095 2186.6601848518885
2234.6984393507955 1790.466648491994
2235.3033118550793 1727.5772773655942
2235.9080384252975 1453.1446929133858
2236.5126190949723 1152.0774090901725
2237.1170538976166 1442.2746272536415
2237.721342866729 1093.9899243140449
2238.32548603579 1374.3922214935342
2238.9294834382763 1561.5025676396892
2239.533335107646 1638.961099811992
2240.1370410773434 1480.3569334585663
2240.740601380803 1208.4610592107479
2241.3440160514474 1539.9860080707176
2241.9472851226783 1758.8509552158423
2242.550408627896 1604.3191473307213
2243.1533866004793 1453.2372675693066
2243.756219073799 1301.9215094543533
2244.3589060812064 1257.3258669718816
2244.961447656049 1072.3828484735193
2245.5638438316564 1318.7299565178512
2246.166094641343 1562.6129070276806
2246.7682001184166 1512.2999237568897
2247.3701602961664 1461.91145036819
2247.971975207871 1611.7444126154328
2248.5736448867974 1526.4199034331143
2249.175169366197 1440.8696499236269
2249.7765486793123 1601.3426074478173
2250.3777828593684 1541.5780079965596
2250.9788719395783 1451.8121098011384
2251.579815953146 1524.3878489133006
2252.1806149332606 1335.8463958729417
2252.781268913097 1515.8454001484072
2253.381777925817 1404.704806147359
2253.9821420045737 1809.2001748288355
2254.5823611825035 1680.1864843399442
2255.1824354927303 1594.45285944045
2255.782364968365 1380.5838552665205
2256.38214964251 1166.4618622861797
2256.9817895482483 1219.829854980591
2257.5812847186553 1360.3914950160763
2258.180635186791 1226.2757680340792
2258.779840985704 1491.9667994100214
2259.37890214843 1736.3305395189461
2259.97781870799 1532.2556935771331
2260.5765906973957 1685.9115246790511
2261.175218149645 1560.6581830827604
2261.773701097718 1542.3943600240325
2262.3720395745895 1378.936835495717
2262.970233613216 1284.7518689295382
2263.568283246548 1441.7069353872735
2264.1661885075137 1350.345682880246
2264.763949429038 1399.8250137855077
2265.3615660440246 1848.4126606866387
2265.959038385374 1257.5249268868652
2266.5563664859637 1861.6794210247815
2267.153550378669 1227.4736283598531
2267.7505900963424 1831.197879431685
2268.3474856718312 1340.8260761604156
2268.9442371379664 1532.7415730842574
2269.5408445275643 1374.0490356953746
2270.1373078734377 1327.3757652717943
2270.7336272083758 1280.6065944876618
2271.32980256516 1274.3057734237477
2271.925833976562 1439.6390112124668
2272.5217214753357 1320.6444932828852
2273.117465094223 1201.3850507859843
2273.7130648659586 1433.180052653144
2274.308520823257 1288.3810287335511
2274.903832998827 1557.6737564454368
2275.4990014253563 1358.7299041820202
2276.094026135528 1622.397451411905
2276.6889071620117 1651.6904107198802
2277.2836445374614 1680.960795508217
2277.878238294519 1637.459685922305
2278.472688465812 1405.657277569067
2279.066995083962 1173.4573074423238
2279.6611581815705 1402.2956840215954
2280.255177791232 1689.7011240840395
2280.8490539455233 1977.6217036626156
2281.442786677013 1914.0173897895252
2282.0363760182554 1615.46750615583
2282.6298220017943 1384.9906338233952
2283.223124660155 1440.2475029019813
2283.816284025859 1495.7019593284947
2284.4093001314086 1758.4110112637427
2285.002173009292 1726.8409800115362
2285.5949026919952 1695.1943890624298
2286.1874892119777 1706.5627157301806
2286.7799326016993 1647.2330212174613
2287.3722328936 1246.6204028513298
2287.964390120109 1233.6866390177286
2288.556404313642 1574.9320640292756
2289.1482755066027 1822.1198986766983
2289.7400037313873 1544.4160307039836
2290.3315890203703 1386.202544006409
2290.9230314059205 1352.5496643682316
2291.5143309203904 1318.8842835404316
2292.1054875961236 1418.1481666295872
2292.6965014654506 1910.4836235473272
2293.287372560684 1384.4224285018176
2293.878100914131 1427.9362230964173
2294.468686558086 1471.5889231046058
2295.059129524827 1533.6555980639191
2295.649429846617 1753.488963400209
2296.239587555716 1422.2025607569917
2296.8296026843636 1632.6822679854947
2297.419475264791 1492.8982953810482
2298.0092053292137 1961.8486398165528
2298.598792909839 1821.0915334499114
2299.1882380388597 1728.02497031797
2299.777540748455 2062.5338293218615
2300.3667010707904 1725.5429602893262
2300.9557190380256 1888.5902463405891
2301.544594682302 1577.4089075337392
2302.1333280357503 1265.8683167465585
2302.721919130485 1416.0068041511988
2303.3103679986198 2051.9923898243155
2303.898674672242 1887.7058742650806
2304.486839183437 1473.7861518721802
2305.0748615642697 1396.1940208793108
2305.6627418468015 1613.866034983495
2306.2504800630704 1379.8175975415156
2306.8380762451143 1546.3489519212048
2307.425530424949 1665.5096167948213
2308.012842634582 1784.9308113930408
2308.6000129060103 1923.2708409206127
2309.187041271214 2357.6099462709685
2309.773927762164 2163.5379924408453
2310.3606724108213 1969.0666183947621
2310.9472752491274 1265.493144002365
2311.5337363090184 1756.7796426636737
2312.120055622414 1345.4522114050474
2312.706233221221 1602.4231559723903
2313.2922691373424 1134.1556611412127
2313.8781634026564 1304.5219857830086
2314.463916049037 1475.2845543044982
2315.049527108342 1731.9496835828445
2315.6349966124235 1892.0523241166502
2316.2203245931123 1816.780124476242
2316.8055110822315 1611.746137914576
2317.3905561115935 1406.2176220610008
2317.9754597129977 1371.3979064837417
2318.560221918229 1330.7159238183215
2319.1448427590603 1289.970592246311
2319.729322267256 1258.30789998944
2320.313660474563 1366.2140057559395
2320.8978574127195 1550.175159520276
2321.481913113452 1734.7004547844094
2322.0658276084705 1269.9613091912934
2322.6496009294806 1575.8375567042674
2323.233233108165 1487.7312966989543
2323.8167241762058 1583.6516648694776
2324.4000741652617 1560.649990927809
2324.983283106987 1964.187174993695
2325.5663510330232 2096.068433854158
2326.1492779749933 1699.2882589581063
2326.7320639645204 1680.701355515102
2327.3147090332004 2004.2935671653236
2327.897213212629 1616.648618058322
2328.4795765343843 1849.962353937046
2329.0617990300307 1973.6420996161567
2329.643880731124 2097.4999008490986
2330.22582166921 1609.8137758714097
2330.807621875816 1398.4642431494156
2331.3892813824623 1186.8971837239337
2331.9708002206517 1310.1410804159534
2332.5521784218818 1797.14996939743
2333.133416017634 1687.6439860954197
2333.7145130393765 1577.9540585797615
2334.295469518571 1780.6932230106645
2334.876285486658 1849.154194145761
2335.456960975076 1885.3516759610234
2336.037496015242 1921.6627247586089
2336.6178906385667 1674.0110946722077
2337.198144876451 1576.5928541256712
2337.778258760278 1593.8839679831258
2338.3582323214214 1597.4714930619043
2338.938065591243 1601.0272475694483
2339.517758601087 2007.316671876586
2340.0973113822965 1714.8316643232533
2340.676723966193 1535.508481600274
2341.255996384094 1573.341066386693
2341.835128667295 1716.674810616792
2342.4141208470883 1638.8298058931396
2342.992972954751 1676.8743405936461
2343.5716850215467 1656.0326969946702
2344.1502570787306 930.5155514018788
2344.7286891575386 1264.8984242231916
2345.3069812892045 1454.6315211648212
2345.885133504944 1644.573062072785
2346.4631458359618 1384.5826174772255
2347.04101831345 1355.8800426314676
2347.6187509685915 1403.798396088553
2348.196343832553 1593.0530802751366
2348.7737969364935 1630.6775296894073
2349.351110311558 1285.8647235475294
2349.9282839888765 1260.4943614983863
2350.5053179995757 1240.3943277999037
2351.0822123747585 1353.3545378740635
2351.658967145526 1745.0979953290384
2352.2355823429643 1250.4320575445552
2352.812057998144 1674.5256657072525
2353.3883941421263 1430.2349591435373
2353.9645908059647 1667.3308678858175
2354.540648020693 1464.9103397768188
2355.116565817336 1279.7112467317006
2355.6923442269126 1384.3279774662017
2356.2679832804224 1489.1661837313202
2356.8434830088518 1586.2362659296627
2357.41884344318 1417.9706016826124
2357.994064614377 1644.3646157649596
