#exp_cfg={"servo_angle": 0.0, "laser_lim": 100.0, "servo_angle_to": 18.0, "laser_wup": 0.0, "bt_dev": "EnSpectr-25AE3", "laser_wdn_max": 0.0, "frames": 10.0, "servo_used": 0, "servo_calib_use": 0, "laser_wdn_min": 0.0, "servo_pix_from": 90.0, "cooler_tout": 300.0, "servo_angle_from": 0.0, "servo_calib": "[-1.9174921013161362e-09, 3.9322238269163779e-05, -0.27385609119055809, 653.59552119713567]", "laser_autoctl": 0, "servo_pix_to": 3682.0, "laser_pw": 100.0, "cooler_on": 0, "laser_volt": 4.0, "cooler_autoctl": 0, "cooler_curr": 70.0, "cooler_startup": 10.0, "laser_fixed_pw": 0, "gain": 1.3, "offset": 2.53059635486, "servo_calib_degree": 3.0, "laser_curr": 55.0, "shutter": 8200.0, "servo_calib_step": 1.0, "laser_fixed_curr": 0, "exp": 2000.0, "ccd_volt": 4.7, "bt_addr": "00:06:66:62:5A:E3", "servo_delay": 500.0, "laser_autooff": 1}
#proc_cfg={"flat_auto_wnd": 200.0, "flat_auto_fr": 200.0, "flat_auto_shift": 5.0, "yconv": 1, "flatten": 1, "flatten_strength": 100.0, "xfrom": 300.0, "auto_max_frame": 2000.0, "auto_signal": 48000.0, "flat_auto_tol": 0.1, "autoclip": 1, "xrel_range": 0.0, "flat_auto_to": 4000.0, "intensity_adj": 1.0, "xrel": 7852.0, "rmhot": 1, "flat_auto_slit": 4.999999999999997, "auto_ini_exp": 300.0, "auto_off": 0, "xto": 2860.0, "flat_auto_ref": "", "flat_auto_rank": 1, "autobackg": 0, "xrel_adj": 0.0, "auto_black_lvl": 1, "base_wnd": 100.0, "sub_baseline": 0, "xconv": 2, "auto_max_exp": 1000.0, "auto_total_exp": 10000.0, "auto_exp": 0, "rmripple": 0, "black_lvl": 8280.5, "shutter_clip_adj": 0.0, "auto_bckg": 0, "flat_auto_thr": 0.9, "subbackg": 1}
316.8218498245369 17500.334142128562
317.89969571804795 17396.048679641204
318.977263876126 17482.41139480664
320.05455438786703 17226.174927396707
321.1315673423287 17154.394321853506
322.2083028285215 17227.269867906773
323.2847609354267 16977.984780486117
324.3609417519747 16965.901649683306
325.43684536705587 16883.649898252224
326.5124718695279 16858.24341935102
327.58782134820103 16692.130245592634
328.66289389184385 16749.68697422553
329.7376895891921 16538.091859149772
330.8122085289342 16613.750028294664
331.88645079971866 16576.41133502915
332.9604164901575 16488.89287312199
334.03410568881554 16376.525338591036
335.1075184842266 16428.02921718629
336.18065496487543 16257.832039305673
337.2535152192122 16253.490136282417
338.32609933564163 16384.303694020946
339.39840740253203 16197.040963102718
340.4704395082099 16199.783920651342
341.5421957409617 16112.101042888517
342.6136761890357 16198.755853101942
343.6848809406365 16071.26969573813
344.75581008392874 15932.982160263613
345.82646370703696 15926.599356249313
346.8968418980512 15916.289223667449
347.96694474501055 15943.2220134703
349.0367723359268 15826.249395893057
350.106324758759 15773.811326120946
351.1756021014353 15661.968302888406
352.2446044518383 15699.808753679867
353.31333189781435 15818.083491746007
354.38178452716966 15680.784533091235
355.449962427665 15663.372705088517
356.51786568702846 15596.874350314316
357.58549439294256 15759.358785304998
358.6528486330535 15714.712879395844
359.71992849496564 15653.292457348283
360.7867340662433 15690.337149500536
361.8532654344144 15732.84051809074
362.9195226869597 15723.76886980843
363.9855059113288 15669.799815892675
365.05121519492604 15502.674068973789
366.11665062511565 15747.809273177885
367.1818122892273 15646.762002396445
368.2467002745434 15705.584289589697
369.31131466831175 15697.34673547261
370.375655557742 15625.281555628422
371.4397230299983 15664.824548973784
372.5035171722102 15582.62646160718
373.5670380714637 15611.772161331473
374.6302858148101 15661.56276196767
375.6932604892554 15686.60789786497
376.7559621817709 15653.637646981446
377.81839097928605 15537.2885540175
378.8805469686886 15539.343840476828
379.94243023683157 15644.676601186704
381.0040408705263 15531.107036495068
382.0653789565458 15342.676765834909
383.1264445816196 15431.506753333058
384.1872378324406 15395.078525038014
385.2477587956637 15469.75750578224
386.3080075579037 15329.573878318955
387.3679842057336 15212.786254303093
388.4276888256918 15265.91133113204
389.48712150426945 15176.591876291137
390.54628232792857 15227.123673441241
391.6051713830857 15080.021389004169
392.66378875611736 15192.774329621796
393.7221345333637 15158.690200199393
394.7802088011249 14997.325473459927
395.838011645661 15103.69287905133
396.89554315319765 15020.85235022492
397.9528034099112 14855.835577002188
399.00979250194723 14872.681513950325
400.06651051541485 14849.714901096188
401.1229575363741 14829.746861381855
402.17913365085224 14737.24143478283
403.23503894483656 14890.119748607438
404.2906735042761 14802.86772836847
405.3460374150818 14549.994139258453
406.401130763119 14594.749453023464
407.455953634224 14752.17262806023
408.5105061141876 14619.298201573136
409.56478828876243 14459.841507655778
410.6188002436629 14392.174666845694
411.6725420645689 14388.560033901676
412.72601383711117 14458.883203650252
413.77921564689314 14508.750548784781
414.8321475794728 14405.506322752815
415.88480972036814 14331.943223986751
416.93720215506437 14319.162049293995
417.9893249690049 14336.942990508742
419.04117824759123 14221.115194371432
420.09276207619223 14227.160505301916
421.144076540133 14279.851724036003
422.1951217247042 14221.360823440977
423.24589771515275 14226.690773545148
424.2964045966928 14175.95800465807
425.34664245449494 14118.830424329415
426.3966113736933 14181.246428815935
427.4463114393875 13998.71244706214
428.49574273662984 14013.659767911775
429.5449053504417 13939.17091987238
430.5937993658026 14051.700209153965
431.6424248676558 13930.390237778896
432.6907819409007 13874.35636506155
433.73887067040596 13879.563325657777
434.7866911409965 14004.81156167353
435.8342434374608 13886.147516946585
436.88152764455117 13862.327041882876
437.9285438469724 13842.290051258246
438.9752921294057 13872.170000639944
440.02177257648145 13886.140032878044
441.06798527279716 13703.557454661248
442.1139303029122 13850.106552692401
443.1596077513459 13848.957862156452
444.2050177025794 13760.852723747952
445.25016024105753 13759.82418276131
446.2950354511886 13765.689110023344
447.33964341733736 13795.361875354738
448.383984223834 13675.378691775204
449.4280579549686 13591.905180127393
450.471864694995 13671.265111140645
451.5154045281306 13749.605128561516
452.5586775385509 13676.036316137883
453.60168381039693 13605.436856237511
454.64442342776783 13787.29407487504
455.6868964747264 13728.962882773714
456.7291030353008 13565.477241364319
457.77104319347563 13666.704382789016
458.8127170332027 13582.317183956562
459.854124638392 13638.424365331453
460.895266092919 13763.208301639988
461.93614148061897 13762.065172253624
462.97675088529104 13753.51411050577
464.01709439069236 13706.875127352472
465.0571720805492 13610.842964714227
466.0969840385442 13686.584880492786
467.1365303483253 13894.409704594062
468.17581109350067 13723.947155989648
469.2148263576437 13587.75001155966
470.2535762242878 13691.373861044864
471.29206077693016 13882.091914836437
472.33028009902773 13863.316990780024
473.3682342740012 13809.071119484937
474.40592338523857 13844.012955738286
475.4433475160804 13858.88194285855
476.4805067498364 13910.626770404255
477.51740116978 13951.549194296244
478.5540308591426 14007.914707676206
479.59039590112116 14233.023420962112
480.6264963788726 14258.947745844427
481.6623323755193 14423.08257030322
482.6979039741436 14494.831205365263
483.7332112577915 14713.66018592849
484.76825430947247 14868.198396014335
485.80303321215797 14932.47802006562
486.837548048783 15101.021503392407
487.8717989022425 15272.867287133486
488.90578585539697 15216.299690872902
489.9395089910686 15346.452021728925
490.97296839203955 15262.005769553556
492.00616414106116 15156.89051721634
493.0390963208429 15081.355693882544
494.0717650140559 15075.16903433408
495.10417030333883 14949.728756650922
496.1363122712901 14900.703693184458
497.16819100046814 14661.766782368242
498.1998065734024 14512.020585383663
499.2311590725767 14444.917445349474
500.26224858044407 14185.666329277776
501.2930751794156 13963.926878992434
502.3236389518679 14065.703935015708
503.35393998014115 13763.128901060209
504.38397834653733 13727.91281443244
505.4137541333221 13748.185692532355
506.4432674227228 13521.88928744307
507.4725182969323 13531.242120129882
508.5015068381035 13514.489816618874
509.53023312835467 13504.126612941322
510.55869724976765 13451.388627664972
511.58689928438434 13332.41470890948
512.6148393142121 13282.817208787697
513.6425174212218 13402.54060231738
514.6699336873462 13341.433040921745
515.6970881944835 13341.315115301779
516.7239810244901 13277.811679502669
517.7506122591931 13318.414804185313
518.7769819803761 13276.137618893868
519.8030902697901 13286.06814858181
520.8289372091476 13303.981566520082
521.8545228801249 13398.945255491743
522.8798473643619 13323.566507018284
523.9049107434621 13287.241550999091
524.9297130989908 13262.216598432384
525.9542545124805 13291.509766972333
526.9785350654201 13222.478966058645
528.0025548392696 13252.918704197558
529.0263139154504 13127.32477587747
530.0498123753423 13179.945399352233
531.073050300296 13147.288574778024
532.0960277716204 13020.28141025535
533.1187448705896 13044.395337414417
534.1412016784416 12991.077461187568
535.1633982763833 12969.420703501966
536.1853347455726 12862.765121996805
537.2070111671401 12861.289449379101
538.2284276221817 12774.554937915742
539.2495841917516 12669.556388882676
540.2704809568677 12638.963174040226
541.2911179985167 12652.462185739194
542.3114953976419 12602.445716981909
543.3316132351592 12566.899054358033
544.3514715919409 12527.88893358194
545.3710705488247 12508.92345318023
546.3904101866156 12371.519480096
547.4094905860784 12514.183908466997
548.4283118279418 12417.380756205692
549.4468739929034 12525.681249501311
550.4651771616191 12408.77236583491
551.4832214147063 12376.564284517961
552.501006832761 12462.16034867867
553.5185334963226 12443.15475232235
554.5358014859103 12524.581047382992
555.5528108820035 12453.071414505981
556.5695617650363 12382.477204587392
557.5860542154242 12443.70526011742
558.6022883135283 12302.23919858432
559.6182641396881 12303.994311845585
560.6339817741991 12399.282940261175
561.6494412973225 12494.913063305296
562.6646427892883 12520.736032344179
563.6795863302796 12235.090214745904
564.694272000459 12357.651042010699
565.7086998799423 12511.646223126645
566.7228700488104 12349.323903414814
567.7367825871115 12311.755619358917
568.7504375748576 12385.143804285337
569.7638350920224 12413.267672612203
570.7769752185486 12394.987604853795
571.7898580343353 12396.895826498156
572.802483619258 12310.232664224182
573.8148520531431 12601.456930213379
574.8269634157932 12592.7774485135
575.8388177869692 12449.626842735735
576.8504152463938 12579.984060730996
577.8617558737587 12758.229418875606
578.8728397487175 12661.184152657775
579.883666950891 12779.9201499215
580.8942375598654 12869.209103175433
581.9045516551851 13015.094290056299
582.9146093163617 13253.502557752738
583.924410622878 13082.61078673777
584.9339556541727 13136.259332092512
585.9432444896538 13258.277068595027
586.9522772086875 13039.21844974067
587.9610538906127 13207.526444885607
588.9695746147318 13187.89229626358
589.9778394603054 13196.231863194393
590.985848506567 13148.4418480684
591.9936018327098 13009.129085795055
593.0010995178891 12831.327076720541
594.0083416412344 12920.632617366147
595.0153282818283 12660.761171184142
596.0220595187293 12641.863690913227
597.0285354309508 12585.574057360162
598.0347560974806 12531.30066431249
599.0407215972609 12508.90204520492
600.0464320092051 12436.89248162614
601.0518874121954 12492.097987572388
602.0570878850685 12414.601424639075
603.062033506636 12473.35061744321
604.0667243556636 12502.878558264129
605.0711605108936 12387.979920797705
606.0753420510264 12734.026012933427
607.0792690547278 12553.549400323644
608.082941600629 12543.408854760306
609.0863597673306 12657.73247425129
610.0895236333909 12695.17143103915
611.0924332773357 12867.753560532046
612.0950887776617 12819.867726616698
613.0974902128219 12936.133587492473
614.0996376612384 13192.191960091077
615.1015312013005 13250.522394051255
616.1031709113595 13440.597250923402
617.1045568697336 13291.633870484282
618.1056891547069 13563.278697862677
619.1065678445229 13713.388935326398
620.1071930173985 14062.116653140562
621.1075647515099 14191.975283443782
622.1076831250048 14255.98130867249
623.1075482159849 14469.426494262918
624.1071601025305 14477.260425312616
625.1065188626781 14744.396865623614
626.105624574433 15000.437184590239
627.1044773157682 15125.911059761991
628.1030771646128 15183.960263986297
629.1014241988742 15400.343349535924
630.0995184964158 15529.648839315787
631.0973601350688 15583.564540750933
632.0949491926294 15680.663075408778
633.0922857468631 15449.077946275847
634.089369875499 15586.721831603969
635.0862016562278 15504.491202224079
636.0827811667077 15216.053610940518
637.0791084845641 15316.061642546905
638.0751836873878 15018.587799630632
639.0710068527369 14999.92155433662
640.0665780581294 14683.552753857992
641.0618973810506 14547.774198700494
642.0569648989604 14406.322021269356
643.0517806892676 14092.21834565441
644.0463448293649 14005.519587418716
645.040657396592 13771.240313318258
646.0347184682723 13603.923236813536
647.0285281216875 13337.507738280861
648.0220864340772 13224.138818969595
649.0153934826558 13156.871802831349
650.0084493446047 13059.497070185018
651.0012540970674 12934.970784517296
651.9938078171526 12725.41980545548
652.9861105819346 12721.524360030566
653.9781624684565 12813.729870458046
654.9699635537254 12448.281732248111
655.9615139147136 12574.644886322967
656.9528136283589 12325.638349135797
657.9438627715699 12482.25893890794
658.9346614212154 12285.495631846181
659.925209654135 12074.918691741277
660.9155075471263 12113.136679983669
661.9055551769616 12086.575214628458
662.895352620375 12307.041619919202
663.8848999540678 11897.895916160505
664.8741972547068 11958.26450424278
665.863244598926 11973.682321868942
666.8520420633213 11994.44398513799
667.8405897244611 11865.445057303228
668.8288876588758 11694.319683760503
669.8169359430613 11854.777944318586
670.8047346534822 11787.244695700874
671.7922838665672 11755.995142824684
672.7795836587156 11796.23060484533
673.766634106285 11948.56168495795
674.7534352856092 11681.95318762842
675.7399872729766 11667.417450884464
676.7262901446538 11658.212003494078
677.712343976862 11697.610490038187
678.6981488457986 11724.477912917535
679.6837048276229 11491.654965287713
680.6690119984596 11651.854242356501
681.6540704344043 11569.09142944275
682.6388802115107 11492.896022538942
683.6234414058108 11529.819197781246
684.6077540932874 11440.204557159814
685.591818349907 11460.873080990443
686.575634251587 11453.490668547767
687.5592018742263 11436.177684792367
688.5425212936734 11173.899681394108
689.5255925857564 11538.124169567844
690.5084158262707 11331.875483772765
691.4909910909646 11329.346156570587
692.4733184555644 11199.614996426299
693.4553979957618 11315.868416642807
694.4372297872123 11278.064244661302
695.4188139055404 11200.389350600011
696.4001504263324 11075.024913706511
697.3812394251509 11257.0199249734
698.3620809775111 11332.492312091217
699.3426751589104 11191.537353680127
700.3230220448004 11101.088031139745
701.3031217106054 11127.613188037085
702.2829742317172 11403.4875310448
703.2625796834873 10996.933734039783
704.2419381412474 11038.023228962209
705.22104968028 11163.040374609282
706.1999143758458 11184.643997481147
707.178532303169 11114.840034497482
708.1569035374378 11218.799676362403
709.1350281538107 11258.521359471892
710.1129062274158 11203.989764640515
711.0905378333373 11476.335614879546
712.0679230466376 11468.085290513322
713.0450619423427 11617.359200680725
714.0219545954424 11790.332423387586
714.9986010808989 11619.92134284059
715.9750014736292 11771.045200273596
716.9511558485392 11953.151176246185
717.9270642804786 12020.028376782253
718.9027268442787 12070.169679163362
719.8781436147328 12005.289917385451
720.8533146666014 11963.493751628343
721.828240074612 11985.245799014347
722.8029199134635 11910.829923391406
723.7773542578125 11853.68143383736
724.751543182294 11712.449416176887
725.7254867615029 11775.226887879753
726.6991850700015 11528.878053203971
727.6726381823228 11553.315952441877
728.6458461729599 11511.347427930064
729.6188091163858 11410.481369400355
730.5915270870246 11451.919295695605
731.5640001592856 11311.296105605172
732.536228407529 11389.478445638151
733.5082119060917 11391.573505973656
734.4799507292755 11302.670796143986
735.4514449513481 11234.385985635403
736.4226946465496 11419.954062322911
737.3936998890786 11398.294052839998
738.3644607531078 11174.866431068349
739.3349773127793 11232.558315742728
740.3052496421951 11179.00048048376
741.27527781543 11129.341939079506
742.2450619065221 10931.7476018243
743.2146019894826 11007.02635329584
744.183898138288 10962.562188829426
745.1529504268801 10847.984942204099
746.1217589291682 10716.783049960159
747.0903237190341 10759.251356821353
748.058644870318 10740.758568612902
749.0267224568397 10665.655047072214
749.994556552374 10465.572493103286
750.9621472306771 10506.632912401383
751.9294945654583 10552.386321232181
752.8965986304011 10510.116860782333
753.8634594991636 10473.131148713157
754.8300772453586 10518.52512843655
755.7964519425768 10434.5474311027
756.762583664371 10592.258332630048
757.7284724842611 10628.134429862333
758.6941184757416 10474.805279640876
759.6595217122667 10460.902258820306
760.6246822672638 10518.626933820902
761.5896002141235 10329.211549682459
762.5542756262093 10475.46561375079
763.5187085768503 10511.55451637105
764.4828991393406 10479.831799907863
765.4468473869474 10414.610346737283
766.4105533929032 10435.451754923986
767.3740172304078 10387.615277844645
768.3372389726283 10335.837800293903
769.3002186926988 10285.80103806459
770.2629564637282 10224.358020290754
771.2254523587872 10202.100198682989
772.1877064509154 10150.668228918179
773.1497188131179 9915.186316847761
774.1114895183728 9930.080902480378
775.0730186396268 9934.324550492607
776.0343062497905 9847.757703002973
776.9953524217381 9843.099275158156
777.9561572283274 9878.056507151316
778.9167207423689 9815.19043022693
779.8770430366476 9705.49287494633
780.8371241839159 9738.890849596684
781.7969642568951 9696.873384435858
782.7565633282757 10091.051082842914
783.7159214707099 9736.047565290184
784.6750387568281 9863.033101616435
785.6339152592227 9832.194806997597
786.5925510504512 9704.36860959709
787.5509462030477 9802.15709329992
788.5091007895098 9734.340183763274
789.4670148823006 9764.114784370615
790.4246885538596 9754.380029562688
791.3821218765861 9724.970130848806
792.3393149228505 9663.076885093704
793.2962677649975 9865.44999063519
794.2529804753303 9842.13608832355
795.20945312613 9758.163196904597
796.1656857896378 9735.674902148658
797.1216785380675 9796.545954687817
798.0774314435985 9997.301334024067
799.0329445783846 10080.808339421525
799.9882180145414 10053.017352354307
800.9432518241574 10027.736192236573
801.89804607929 10195.33813028415
802.852600851962 10233.87357716842
803.8069162141637 10225.315313065637
804.760992237856 10353.48273651701
805.714828994971 10397.059748513759
806.6684265574077 10429.710096529983
807.6217849970271 10360.898296314628
808.574904385674 10336.48569047592
809.527784795142 10345.00873373501
810.4804262972102 10492.140798829463
811.4328289636178 10169.351748554487
812.3849928660748 9976.475193122456
813.3369180762638 9989.03437461004
814.2886046658241 10116.705469936569
815.2400527063783 9869.592144661252
816.1912622695108 9805.108004327474
817.1422334267718 9796.133542024112
818.0929662496856 9688.005415565647
819.0434608097457 9388.86492820277
819.9937171784059 9477.292031244144
820.9437354271013 9397.326092584213
821.8935156272255 9569.747634459243
822.8430578501484 9351.556585488815
823.7923621672016 9141.64442376401
824.7414286496896 9223.3161505782
825.6902573688876 9293.280762256032
826.6388483960363 9213.491120358614
827.5872018023492 9106.712746063562
828.5353176590033 9243.052411254532
829.4831960371503 9046.867488949118
830.4308370079016 9029.599090016216
831.3782406423525 9139.537291289278
832.3254070115545 9160.75107055359
833.2723361865319 9004.540995526455
834.2190282382799 8894.399859749652
835.1654832377644 9028.903277088948
836.1117012559116 8903.020642496282
837.0576823636256 9108.996768002686
838.003426631778 8837.45530852628
838.9489341312074 8870.364073743734
839.8942049327197 9108.104199331636
840.8392391070975 9082.142751223104
841.7840367250865 8911.634712654415
842.7285978573982 8830.640299044075
843.672922574724 8965.995205064026
844.6170109477152 8815.884324900097
845.560863046996 8930.149588294558
846.5044789431595 8921.237117902601
847.4478587067697 8831.221947926897
848.3910024083561 9009.98229230168
849.333910118421 8846.04306720154
850.2765819074339 8686.057228820575
851.2190178458332 8968.712592344624
852.161218004032 8882.778203379832
853.1031824524016 8884.517427924466
854.0449112612987 8779.49959826357
854.9864045010327 8891.471832483667
855.9276622418947 8796.734308946969
856.8686845541379 8896.405374303156
857.8094715079915 8862.660653214449
858.7500231736467 9109.634456078631
859.690339621271 8906.857435113216
860.6304209209939 8945.35584731345
861.5702671429244 8807.35201313684
862.5098783571284 8971.057612939412
863.4492546336569 8909.972064906524
864.3883960425155 8862.496507754711
865.3273026536863 8963.437758130174
866.2659745371238 8786.690140417468
867.2044117627465 9159.988331781507
868.1426144004472 9064.277322514445
869.0805825200823 9083.438492830213
870.0183161914847 9100.124295229078
870.9558154844526 9153.767673499922
871.8930804687552 9235.747113929541
872.8301112141307 9023.587174403916
873.7669077902865 9328.957877646717
874.7034702669062 9416.003286135121
875.6397987136315 9376.624850804303
876.5758932000863 9451.203826867852
877.5117537958522 9467.862571776293
878.4473805704911 9460.86339880044
879.3827735935283 9435.349793272999
880.3179329344603 9514.463197906636
881.2528586627541 9475.43218408864
882.1875508478479 9605.88781365011
883.1220095591489 9463.616814907346
884.0562348660296 9350.85659833108
884.9902268378391 9462.667839657477
885.9239855438955 9397.91740941606
886.8575110534839 9167.228152082713
887.7908034358588 9290.995775157247
888.7238627602474 9232.935327110159
889.6566890958475 9180.556035025751
890.5892825118208 9012.757059947498
891.5216430773125 9094.996637343374
892.4537708614189 9038.352966349978
893.3856659332196 8870.983472646647
894.3173283617652 8778.78071811032
895.2487582160684 8913.187294551713
896.179955565116 8828.4408172018
897.110920477864 8726.731143150962
898.0416530232451 8669.162581869414
898.9721532701478 8614.82189808018
899.9024212874428 8736.774950141542
900.8324571439662 8532.859042906708
901.7622609085302 8592.382400071621
902.6918326499072 8475.26974668456
903.6211724368477 8532.410131413835
904.5502803380696 8648.494312582468
905.4791564222614 8655.36669591916
906.4078007580792 8337.812744915103
907.3362134141571 8353.490087303568
908.2643944590909 8671.540776175832
909.1923439614493 8358.781258619149
910.1200619897754 8390.679626225417
911.0475486125779 8606.353746933377
911.9748038983344 8428.723693833726
912.9018279155007 8413.742819798978
913.8286207324982 8303.640968724503
914.7551824177117 8391.467550391797
915.6815130395116 8384.069180466726
916.6076126662283 8234.93860912497
917.533481366163 8276.884541241992
918.4591192075914 8314.062299353598
919.3845262587565 8598.369882483801
920.3097025878706 8231.367829165883
921.2346482631237 8243.649612567195
922.1593633526682 8218.618369215943
923.0838479246304 8318.502374704192
924.0081020471061 8490.762986660227
924.9321257881656 8133.125211339587
925.8559192158464 8276.326231065847
926.7794823981512 8154.5639117588125
927.7028154030686 8145.124039393903
928.6259182985414 8119.6580324645065
929.5487911524906 8362.69532330411
930.4714340328119 8334.200479610208
931.3938470073608 8092.296735738868
932.3160301439748 8169.674721510733
933.2379835104548 8188.530451976681
934.1597071745709 8218.965075475837
935.0812012040769 8211.427264288355
936.002465666681 8225.44205902534
936.9235006300696 8283.938053191287
937.8443061619055 8281.338168260403
938.7648823298077 8054.0042889678325
939.6852292013809 8131.908174654501
940.6053468441951 8310.873961113046
941.5252353257874 8096.986903783746
942.4448947136698 8180.404147388736
943.364325075323 8209.455183239696
944.2835264782043 8155.138612153243
945.2024989897309 8133.706417310929
946.1212426773054 8196.925871115438
947.0397576082851 8308.306733222353
947.9580438500125 8428.444388088114
948.8761014697939 8292.443837183291
949.7939305349064 8339.884434698874
950.7115311125999 8114.648816854458
951.6289032700952 8082.667292735052
952.5460470745875 8325.183663184851
953.4629625932339 8161.94024769373
954.3796498931715 8314.273335760969
955.2961090415029 8265.95039416456
956.2123401053068 8212.529075950564
957.1283431516276 8237.356565792823
958.0441182474842 8131.535791832261
958.9596654598663 8317.822976216019
959.8749848557309 8171.207301760408
960.7900765020167 8190.123138653847
961.7049404656209 8055.3262745132815
962.6195768134185 8194.621396715844
963.5339856122537 8240.248315492197
964.4481669289453 8304.711959209013
965.3621208302793 8169.349533631945
966.2758473830145 8104.536536126478
967.1893466538822 8294.52048703127
968.1026187095813 8167.075075333237
969.0156636167867 8132.499301636283
969.9284814421426 8230.668803686607
970.8410722522622 8159.850977871347
971.753436113735 8169.529240016675
972.6655730931161 8148.901520016816
973.5774832569368 8270.320387224649
974.4891666716958 8078.3260227620385
975.4006234038698 8102.511881375208
976.3118535198955 8149.1979430129695
977.2228570861935 8240.130371101053
978.1336341691494 8210.037264862687
979.0441848351202 8059.713415155219
979.9545091504333 8300.67319892656
980.864607181391 8291.748827337664
981.7744789942699 8295.841324525083
982.6841246553086 8246.20442376201
983.5935442307236 8255.286643578384
984.5027377867027 8285.543074143106
985.4117053894024 8319.049675114973
986.3204471049557 8221.463624389507
987.2289629994648 8340.500764363422
988.1372531390007 8409.355706161876
989.0453175896091 8332.839647788733
989.9531564173067 8345.936606971507
990.860769688079 8259.786258735056
991.7681574678918 8297.4296935849
992.6753198226706 8391.401031495308
993.582256818323 8336.904935699173
994.4889685207218 8275.290223579625
995.3954549957143 8565.499323115684
996.301716309119 8482.259009700896
997.2077525267232 8434.094459914846
998.1135637142943 8394.67513395866
999.0191499375615 8531.563972541453
999.924511262232 8547.504971362725
1000.8296477539861 8501.982679681265
1001.7345594784656 8408.867028686136
1002.6392465012996 8293.54140786048
1003.5437088880753 8449.567260427832
1004.4479467043584 8507.039452442226
1005.3519600156869 8181.8152767302045
1006.2557488875718 8464.388974553169
1007.1593133854858 8430.640085758729
1008.0626535748888 8321.303199112637
1008.9657695212009 8201.149917872548
1009.8686612898182 8435.933088187161
1010.7713289461135 8454.150510770454
1011.6737725554212 8376.470796656147
1012.5759921830577 8336.862255946855
1013.4779878943027 8327.091203605472
1014.379759754418 8388.036962394397
1015.2813078286254 8228.5071190073
1016.18263218213 8060.533555717457
1017.0837328801026 8116.04281322748
1017.9846099876886 8232.58293411281
1018.8852635700023 8107.037662297764
1019.7856936921362 7888.588181185561
1020.6859004191447 8213.652706749777
1021.5858838160675 7995.4510618226095
1022.4856439479063 7914.140062679146
1023.3851808796389 7839.087053163351
1024.2844946762143 8094.005984167236
1025.183585402554 7989.296673512826
1026.082453123554 7754.244078688159
1026.9810979040776 7990.846416393285
1027.8795198089647 7890.9783257849895
1028.777718903024 7860.763010730446
1029.6756952510368 7869.191363120592
1030.5734489177648 7912.662534936487
1031.4709799679313 7833.578441509718
1032.3682884662358 8116.87431998426
1033.2653744773506 7670.928265095763
1034.1622380659192 7710.5159178653485
1035.058879296559 7908.465883396579
1035.9552982338591 7992.404651079893
1036.8514949423825 7851.953745439003
1037.7474694866614 7893.066001563401
1038.6432219312028 7793.465246740864
1039.5387523404825 8056.450157560267
1040.4340607789582 7994.861266046524
1041.3291473110476 7883.6144663555415
1042.2240120011465 8079.992208608031
1043.1186549136273 8050.806503205284
1044.0130761128294 7924.793650256128
1044.9072756630649 7948.860095587312
1045.8012536286205 8022.681653545801
1046.6950100737577 8170.559275203994
1047.588545062701 8217.23080469084
1048.481858659663 8169.311563190911
1049.3749509288118 8377.538731593255
1050.2678219343034 8137.19975414145
1051.1604717402515 8145.307206652253
1052.0529004107575 7979.994480157596
1052.9451080098825 8272.39714162697
1053.8370946016694 8152.277755999441
1054.7288602501267 8251.265242610258
1055.6204050192446 8110.915942037625
1056.511728972977 8261.88118157673
1057.402832175254 8152.271838612369
1058.2937146899785 8091.839823272079
1059.1843765810263 8044.029012436158
1060.0748179122456 8174.9063381623955
1060.9650387474576 8103.309970396311
1061.855039150456 8150.115965394505
1062.7448191850071 8095.957528388144
1063.6343789148505 8062.912172141097
1064.5237184037014 8276.907108432595
1065.412837715241 7967.75259469688
1066.3017369131267 7982.034328917049
1067.190416060992 8048.901773641383
1068.0788752224398 7991.322151781419
1068.9671144610438 8078.323815508445
1069.8551338403558 8135.766108873383
1070.7429334239023 8130.115523940459
1071.6305132751695 7847.815194794837
1072.517873457633 8168.677388612654
1073.4050140347335 7923.950960104569
1074.2919350698776 7889.515341949368
1075.1786366264623 7890.737511953934
1076.0651187678395 7911.271122489137
1076.95138155735 7784.276566184008
1077.8374250582929 7772.096095371073
1078.7232493339507 7856.240088998707
1079.608854447577 7826.221856483428
1080.4942404623907 7707.971316991767
1081.3794074415982 7762.265489740482
1082.2643554483657 7757.980913386494
1083.149084545841 7818.768812126013
1084.033594797138 7605.831458897385
1084.9178862653516 7641.021325711571
1085.8019590135427 7882.138537366581
1086.6858131047484 7564.543063601867
1087.5694486019802 7726.986651543664
1088.4528655682225 7663.549563664505
1089.3360640664287 7834.235534928475
1090.2190441595321 7690.73616425753
1091.1018059104317 7708.098720101021
1091.98434938201 7771.052410057152
1092.866674637111 7843.158538902802
1093.748781738559 7647.187032763589
1094.6306707491512 7496.508794296313
1095.5123417316554 7742.391189168974
1096.3937947488157 7617.977777131938
1097.2750298633455 7603.744044529069
1098.156047137938 7614.570390080682
1099.0368466352556 7667.930117322071
1099.9174284179317 7736.530716600622
1100.7977925485757 7572.292027576119
1101.6779390897755 7480.143879059653
1102.5578681040806 7621.695789492151
1103.4375796540226 7577.942403059341
1104.3170738021054 7561.080336499152
1105.1963506108077 7428.31834743714
1106.0754101425773 7443.794068735905
1106.9542524598382 7610.030547869581
1107.8328776249855 7517.894973170032
1108.7112857003904 7480.053149536146
1109.5894767483987 7521.604022758684
1110.4674508313292 7732.031069778814
1111.3452080114657 7568.983047015281
1112.2227483510815 7771.382725660968
1113.1000719124077 7862.0155555265865
1113.9771787576592 7875.199665674087
1114.854068949022 7793.673752510162
1115.7307425486542 7973.511542059775
1116.6071996186893 8003.99911251367
1117.483440221229 8274.776604973227
1118.3594644183577 8010.446147470697
1119.235272272128 8144.45559078112
1120.1108638445658 8330.549946699693
1120.9862391976712 8493.10392451124
1121.8613983934229 8444.566527514435
1122.7363414937627 8437.561233858083
1123.6110685606182 8602.767425407807
1124.485579655884 8690.250272865163
1125.359874841426 8635.605625762544
1126.2339541790916 8619.836710039674
1127.1078177306936 8863.56042845966
1127.9814655580267 8667.52348073499
1128.854897722851 8765.358664564477
1129.7281142869106 8594.805133038726
1130.6011153119125 8710.204346503213
1131.473900859548 8879.246139155792
1132.3464709914697 8634.612605456266
1133.2188257693178 8624.589518837898
1134.0909652546961 8525.835210159048
1134.96288950919 8401.727930607658
1135.8345985943506 8554.223127893196
1136.7060925717087 8307.287009758495
1137.57737150277 8330.032288924445
1138.4484354490069 8414.647145281811
1139.3192844718778 8253.20321294303
1140.1899186327992 7939.004763694548
1141.060337993178 8217.838165499605
1141.930542614382 7959.235898994399
1142.8005325577597 7946.73723623703
1143.670307884635 7591.210801180236
1144.5398686563003 7785.284488443804
1145.409214934025 7782.242330361018
1146.2783467790541 7429.786269795169
1147.1472642526023 7597.189941513386
1148.0159674158622 7636.715472721988
1148.8844563300026 7485.841459164572
1149.7527310561618 7326.194466463321
1150.6207916554504 7211.4872938616145
1151.4886381889592 7241.778398291819
1152.3562707177498 7407.659340030781
1153.2236893028585 7291.31547112607
1154.090894005296 7154.907729504305
1154.9578848860474 7167.0776495310465
1155.8246620060709 7164.196136258301
1156.6912254262988 7060.92751655061
1157.5575752076438 7065.984471700031
1158.42371141098 7331.986599656071
1159.2896340971656 7224.699705626079
1160.1553433270346 7186.619337666823
1161.0208391613887 7094.281261455636
1161.8861216610057 7055.1540046201235
1162.75119088664 7140.222472126132
1163.6160468990201 7086.574660388238
1164.4806897588442 6940.395178813681
1165.3451195267917 7101.599912219953
1166.2093362635114 6990.307131088872
1167.0733400296285 7055.971551073814
1167.9371308857444 6940.441946066798
1168.8007088924278 6956.814708767406
1169.6640741102328 6990.941749408007
1170.5272265996773 6914.125078285664
1171.390166421259 6820.513327752435
1172.252893635452 7094.840120071467
1173.1154083026995 7237.617175021852
1173.977710483421 7094.55026328564
1174.8398002380145 6834.9521485433015
1175.7016776268483 7099.715904115836
1176.563342710264 6937.497327124261
1177.4247955485826 6978.080470162761
1178.2860362020947 7069.550300780364
1179.147064731069 6819.135185125003
1180.0078811957483 7107.162362933594
1180.8684856563486 7034.128037869514
1181.7288781730604 7061.755388406552
1182.589058806052 7052.634559510263
1183.4490276154593 7278.682970144083
1184.3087846614017 7129.094196886281
1185.1683300039676 7117.014766676059
1186.027663703222 7339.91235144572
1186.8867858192025 7088.797575820067
1187.7456964119228 7195.140096762998
1188.6043955413716 7270.151133264951
1189.4628832675116 7340.398280493851
1190.3211596502842 7420.370153317961
1191.179224749596 7448.588489997708
1192.0370786253388 7312.941919383624
1192.8947213373758 7560.7596197185585
1193.7521529455407 7613.468692745254
1194.6093735096438 7283.673437204178
1195.466383089477 7394.61601549688
1196.3231817447977 7416.056093896506
1197.1797695353398 7673.103052850151
1198.0361465208189 7392.140842746829
1198.8923127609214 7416.25602838912
1199.7482683153048 7588.924728369797
1200.6040132436028 7633.170335910603
1201.459547605431 7343.060053155369
1202.3148714603722 7440.096112959922
1203.1699848679855 7423.350886525256
1204.0248878878065 7554.096349176392
1204.8795805793507 7043.727215466369
1205.7340630020935 7425.8429953052155
1206.5883352155033 7455.73433668903
1207.4423972790064 7373.623268566762
1208.2962492520237 7201.646842290992
1209.1498911939307 7257.610846257451
1210.0033231640937 7253.586960374008
1210.8565452218427 7253.966255336495
1211.7095574264913 6957.577984856619
1212.5623598373222 6933.845739073644
1213.4149525135963 6851.361302862077
1214.2673355145507 7118.833427201872
1215.1195088993936 6936.069914282512
1215.9714727273113 6867.667734116818
1216.8232270574663 7158.256687525913
1217.6747719489904 6652.779141831544
1218.5261074609934 6725.266757118235
1219.3772336525653 7016.537662472348
1220.2281505827668 6950.434701089982
1221.0788583106296 7013.479329487028
1221.9293568951707 6680.743794546773
1222.7796463953746 6689.5885818364595
1223.629726870202 6831.532000101533
1224.4795983785934 6863.57394011031
1225.3292609794553 6801.805920627111
1226.1787147316809 6631.145496806434
1227.0279596941327 6704.809252731107
1227.8769959256424 6614.0842011053055
1228.7258234850306 6867.239795018459
1229.5744424310833 6566.215726059699
1230.422852822563 6794.172104006112
1231.2710547182105 6871.7771497966
1232.119048176739 6754.312053758082
1232.9668332568417 6481.3078551230665
1233.8144100171812 6822.719933266495
1234.6617785163999 6772.074702972542
1235.508938813111 6494.537989620968
1236.3558909659114 6571.9602882556665
1237.2026350333617 6769.275780961272
1238.049171074008 6862.752879794866
1238.8954991463652 6530.827933462582
1239.741619308932 6692.645601601699
1240.587531620169 5742.133009146349
1241.4332361385277 6774.8853745367915
1242.2787329224248 6614.932376645181
1243.1240220302534 6551.395126786889
1243.9691035203869 6526.311617510433
1244.813977451171 6814.365343450253
1245.6586438809263 6765.1607716113895
1246.5031028679496 6409.8289480920375
1247.3473544705157 6746.413589877295
1248.1913987468706 6717.687160328756
1249.0352357552383 6389.0615736844065
1249.8788655538228 6591.663442205523
1250.7222882007918 6647.775107632219
1251.565503754302 6739.039710866741
1252.4085122724755 6308.333955595343
1253.2513138134182 6759.609574474232
1254.0939084352049 6656.129304983539
1254.9362961958905 6641.283736019626
1255.7784771535007 6689.324565111543
1256.6204513660432 6644.456089104146
1257.4622188915 6855.084862432386
1258.3037797878242 6574.303675440472
1259.1451341129468 6460.378218011116
1259.9862819247755 6652.012815468387
1260.8272232811978 6612.446767809781
1261.6679582400666 6808.17970033988
1262.5084868592203 6447.4546050774625
1263.34880919647 6493.772296277992
1264.1889253095997 6664.579898786564
1265.0288352563712 6666.8389934613615
1265.8685390945266 6501.691704313462
1266.7080368817751 6710.971350887017
1267.5473286758115 6811.919091006557
1268.386414534294 6761.735899050264
1269.2252945148703 6342.210218833895
1270.0639686751547 6537.2066629985375
1270.9024370727402 6521.738246853809
1271.7406997651997 6492.562391290916
1272.5787568100714 6348.773604664752
1273.4166082648808 6493.9791170015105
1274.2542541871244 6461.404919750818
1275.091694634275 6786.4783791386435
1275.9289296637817 6420.6830896166875
1276.7659593330663 6576.604635741525
1277.6027836995308 6510.0608765315865
1278.4394028205552 6637.082710491481
1279.2758167534867 6603.27775215003
1280.112025555658 6474.217158621121
1280.9480292843746 6477.306048050747
1281.7838279969128 6308.387962840854
1282.6194217505326 6439.61005871338
1283.4548106024686 6308.292224906197
1284.289994609926 6406.182792875299
1285.1249738300921 6569.172635595276
1285.959748320127 6363.155146589364
1286.7943181371702 6443.097911714458
1287.6286833383328 6516.443915833276
1288.4628439807038 6548.373838363933
1289.2968001213521 6326.083879894659
1290.1305518173194 6376.941392662582
1290.9640991256183 6493.090648629864
1291.7974421032523 6341.080963097657
1292.630580807183 6296.395428229365
1293.463515294361 6494.241399068226
1294.29624562171 6686.491391049302
1295.12877184613 6304.027373855968
1295.961094024493 6259.481070143531
1296.79321221365 6496.967087567509
1297.6251264704333 6616.1983949770265
1298.4568368516466 6763.356266140421
1299.2883434140658 6536.245235394474
1300.1196462144526 6357.333048933177
1300.9507453095375 6578.722367873401
1301.7816407560313 6648.042165475119
1302.6123326106172 6608.117376320687
1303.4428209299622 6428.750059773245
1304.2731057707024 6804.6147447253825
1305.1031871894502 6496.362636036472
1305.933065242798 6731.610375821777
1306.7627399873181 6590.926006436212
1307.5922114795467 7068.037361524545
1308.4214797760123 7004.72995828865
1309.2505449332057 6678.592876615459
1310.0794070076026 6733.323729704491
1310.9080660556538 6881.800166968128
1311.736522133786 6863.070450692481
1312.5647752983987 6605.895474884473
1313.3928256058734 6487.025896669948
1314.2206731125661 6796.754700841366
1315.048317874809 6822.796596866145
1315.8757599489109 6813.111649236092
1316.7029993911547 6799.393559310059
1317.5300362578055 7024.988136241661
1318.356870605101 6625.582798972963
1319.183502489257 6674.120109116304
1320.0099319664623 6852.89556607832
1320.836159092889 6930.878650338376
1321.66218392468 6953.950273449116
1322.4880065179532 6654.170275175379
1323.3136269288134 6692.677266160153
1324.1390452133292 6982.956531579337
1324.9642614275563 7013.946148212794
1325.7892756275214 6855.082716665216
1326.6140878692295 6604.100922457835
1327.4386982086617 7294.567869899099
1328.2631067017755 6874.09055687354
1329.0873134045069 6838.840410172952
1329.911318372764 6787.312121867142
1330.735121662441 6811.598860908212
1331.558723329399 6699.408630092128
1332.3821234294774 6674.9373994119715
1333.2053220185007 6743.584938495027
1334.0283191522612 6737.860798272393
1334.851114886529 6861.494554997151
1335.6737092770582 6603.261281923025
1336.4961023795695 6686.078630650169
1337.3182942497697 6562.4703504185845
1338.1402849433325 6621.561463490718
1338.962074515921 6419.321988121879
1339.7836630231632 6443.692095000286
1340.6050505206676 6998.931249424076
1341.426237064028 6768.980652957827
1342.2472227088037 6486.008489657028
1343.0680075105338 6400.5950979281215
1343.888591524741 6608.378364982508
1344.7089748069138 6711.877142200681
1345.5291574125276 6563.695112054821
1346.3491393970307 6278.884521390075
1347.168920815846 6703.553699905431
1347.9885017243778 6684.765504885586
1348.8078821780036 6417.432484948839
1349.6270622320844 6627.606409120357
1350.4460419419447 6369.548232613952
1351.2648213629054 6628.28975077848
1352.0834005502438 6273.351330179108
1352.90177955923 6435.4182242890765
1353.7199584451064 6617.137780195022
1354.5379372630887 6599.722199617655
1355.355716068374 6490.461091240891
1356.1732949161305 6266.650569481908
1356.9906738615155 6403.5073129135035
1357.8078529596478 6398.773670726852
1358.6248322656375 6588.897857403035
1359.441611834567 6422.447110948197
1360.2581917214866 6548.616727402847
1361.0745719814367 6392.513565080369
1361.890752669433 6363.5594853800285
1362.7067338404577 6328.645703158084
1363.5225155494845 6497.749784032726
1364.3380978514506 6569.774142130799
1365.1534808012839 6161.659724397634
1365.9686644538815 6093.438032767961
1366.783648864117 6524.365937074533
1367.5984340868417 6514.296774391259
1368.413020176893 6473.772221472622
1369.2274071890715 6116.027351054224
1370.0415951781652 6559.134804328809
1370.8555841989346 6310.97682093606
1371.6693743061223 6342.555614940879
1372.48296555444 6057.815712723484
1373.2963579985844 6404.185493849056
1374.1095516932255 6383.241297397928
1374.9225466930166 5993.8820201383405
1375.7353430525782 6351.982881402962
1376.5479408265164 6235.013144470838
1377.36034006941 6331.579467308927
1378.1725408358216 6295.257721296684
1378.9845431802805 5998.5318760436985
1379.796347157304 6653.196364100765
1380.6079528213813 6324.207705572304
1381.4193602269788 6092.832434493799
1382.230569428546 6113.593033384309
1383.0415804805016 6495.814870060889
1383.852393437246 6416.467811886363
1384.6630083531563 6318.781617360872
1385.4734252825892 6138.7369759315325
1386.2836442798798 6181.488936780677
1387.0936653993322 6210.1970563780815
1387.9034886952395 6120.976825446106
1388.713114221864 6239.333354737146
1389.5225420334482 6168.636225793881
1390.331772184214 6083.740943467241
1391.1408047283585 5944.760947610852
1391.9496397200564 6033.711774643105
1392.758277213461 6403.259846392788
1393.5667172627054 6341.674517830591
1394.3749599218918 6183.787126624261
1395.1830052451114 5842.512750937849
1395.9908532864265 6018.123907108236
1396.7985040998774 6249.485437488746
1397.6059577394808 5857.416385578988
1398.4132142592352 5993.700931160821
1399.2202737131156 5992.203067047363
1400.027136155073 6227.051569441635
1400.8338016390353 5961.419913223096
1401.6402702189134 6032.112042067761
1402.446541948586 6037.897787999526
1403.2526168819204 5794.630719706818
1404.058495072757 5951.967319438235
1404.8641765749107 5872.873978424351
1405.6696614421799 6028.482990441673
1406.4749497283356 6374.601195037298
1407.280041487129 5832.662500985603
1408.084936772295 5593.074218474568
1408.8896356375335 6010.908671139366
1409.6941381365323 5962.244780802968
1410.498444322955 5676.414326168595
1411.3025542504402 5786.381022739142
1412.106467972606 5895.593574312947
1412.9101855430508 5798.701267343049
1413.7137070153458 5592.887201385385
1414.5170324430437 5808.133551814613
1415.320161879672 5965.344924027006
1416.1230953787435 6047.713569059362
1416.925832993742 5634.497288257981
1417.7283747781275 5546.687757086566
1418.5307207853439 5748.758614755826
1419.3328710688093 5694.967089540901
1420.134825681922 5431.323177952711
1420.9365846780584 5557.0291429880945
1421.7381481105713 5955.082573355035
1422.539516032788 5696.273333486135
1423.3406884980232 5508.358000672605
1424.1416655595604 5427.625015498607
1424.942447270665 5500.5446944121995
1425.7430336845828 5710.795217674022
1426.5434248545298 5393.758173635486
1427.3436208337116 5653.866822229777
1428.143621675301 5580.94178856908
1428.9434274324558 5781.707249470581
1429.7430381583108 5356.013900446972
1430.5424539059713 5563.175034150458
1431.3416747285337 5974.817636594046
1432.1407006790632 5695.505193523506
1432.9395318106053 5563.126129642668
1433.7381681761835 5361.069324042865
1434.5366098288014 5670.271832544276
1435.3348568214424 5697.484286806259
1436.1329092070573 5352.510716866365
1436.9307670385879 5566.505680814375
1437.7284303689503 5653.403422490248
1438.5258992510335 5732.590050085459
1439.3231737377118 5633.312395215041
1440.1202538818306 5459.603782704239
1440.9171397362225 5467.786006835167
1441.7138313536925 5374.799470281218
1442.5103287870243 5267.4624952966915
1443.3066320889775 5210.687549196032
1444.1027413122956 5581.687020004711
1444.8986565096966 5392.73867874767
1445.694377733882 5429.914823547923
1446.4899050375207 5231.3014298764665
1447.2852384732687 5373.403136900708
1448.0803780937622 5516.635390653507
1448.8753239516063 5275.91441170634
1449.6700760993954 5065.06410151418
1450.464634589689 5317.721455976331
1451.2589994750397 5632.8664795328505
1452.0531708079689 5190.7976171223545
1452.8471486409799 5222.85457990413
1453.6409330265524 5484.693578238658
1454.4345240171442 5202.565775813327
1455.2279216651987 5192.350679636411
1456.0211260231263 5231.330382341504
1456.8141371433194 5373.494850060436
1457.6069550781594 5341.515287525331
1458.3995798799897 5071.807654890824
1459.1920116011424 5236.399832341359
1459.98425029393 5028.965132985295
1460.7762960106338 5099.552593140708
1461.5681488035225 5153.873453536947
1462.3598087248392 5238.413799613567
1463.1512758268036 5320.643119586619
1463.942550161617 5093.426099063867
1464.7336317814625 5123.0720962888945
1465.524520738496 5187.191760827597
1466.3152170848552 5044.670258747585
1467.1057208726506 5111.73018084301
1467.8960321539817 5101.019087971707
1468.6861509809169 4948.512703471958
1469.4760774055085 5109.980298643192
1470.265811479785 5130.176988308823
1471.055353255755 4887.611315285836
1471.844702785409 4941.356002381191
1472.6338601207044 4883.700164412488
1473.4228253135934 5211.681211671383
1474.2115984159936 4838.661040420635
1475.0001794798063 4694.08531159969
1475.7885685569145 4989.961698315397
1476.576765699172 4975.284498800037
1477.3647709584238 4921.238569908272
1478.1525843864802 5222.299477704696
1478.9402060351367 5149.80116584816
1479.7276359561693 5144.162918879395
1480.514874201328 4934.595080011318
1481.3019208223468 4775.932440231101
1482.0887758709323 4682.568372957073
1482.8754393987747 5083.831763729898
1483.6619114575406 4830.841296175234
1484.4481920988783 4960.549961124064
1485.2342813744108 5096.467251885351
1486.0201793357446 5301.409524179429
1486.8058860344572 4959.648855812734
1487.591401522117 4947.377097993076
1488.3767258502594 4907.890602114864
1489.1618590704056 4912.356009177779
1489.9468012340494 4651.204755717825
1490.7315523926754 5062.875307918804
1491.5161125977356 5097.135575399032
1492.3004819006637 4976.511138736638
1493.084660352877 4786.508934972679
1493.8686480057622 5034.999895985713
1494.6524449106964 5367.237500320012
1495.4360511190262 5250.957140121492
1496.219466682087 5018.084306048885
1497.0026916511779 5059.21866124648
1497.7857260775945 5052.563372711163
1498.5685700125996 5055.459630110074
1499.3512235074395 4851.8572441807455
1500.133686613337 4836.127575053754
1500.9159593814966 4823.468235216369
1501.698041863101 5511.387392680885
1502.4799341093094 4756.599903350919
1503.2616361712662 4703.63127899392
1504.043148100087 5045.162570508759
1504.8244699468742 5087.385581426575
1505.6056017626997 4909.036556871897
1506.3865435986281 4828.861921937851
1507.1672955056893 4995.490424534984
1507.9478575348967 4809.881831789713
1508.7282297372512 5213.337214190555
1509.5084121637192 4879.7352512307525
1510.2884048652577 4912.8916928138515
1511.0682078927948 4783.757350743811
1511.8478212972423 4826.214774914549
1512.6272451294917 4907.028052998316
1513.4064794404076 5026.291620423241
1514.1855242808433 4959.281409381921
1514.9643797016215 4977.671598953755
1515.743045753552 5002.091595803476
1516.5215224874191 5029.6752605213605
1517.2998099539836 4644.791264926417
1518.077908203999 4977.945015627852
1518.8558172881785 4907.8058239618385
1519.633537257234 4990.383139626918
1520.4110681618404 4961.680262128733
1521.1884100526604 5033.304050966395
1521.9655629803365 4912.597631915395
1522.7425269954856 5149.557156078247
1523.5193021487103 5420.497157523924
1524.2958884905856 4807.071061618027
1525.0722860716687 4843.1373305079405
1525.848494942502 4920.284821837141
1526.624515153595 4914.563215868543
1527.4003467554485 5037.814026436709
1528.175989798534 5097.873309222496
1528.9514443333064 4943.23889861342
1529.726710410203 5204.538897575091
1530.5017880796331 4814.312006777478
1531.276677391992 4811.254412677683
1532.0513783976457 5039.432948232244
1532.825891146953 4988.145073013983
1533.6002156902414 5053.4224948807505
1534.3743520778207 4962.997587176891
1535.1483003599806 4968.949459159715
1535.9220605869923 4918.73589244733
1536.6956328091019 5140.45711459105
1537.4690170765407 4880.166967482946
1538.242213439511 5054.410101354457
1539.015221948208 5039.901836569902
1539.78804265279 4915.57404360725
1540.560675603405 4776.736598308475
1541.3331208501804 5195.48170226871
1542.1053784432224 5092.299169333578
1542.8774484326168 5069.053362974738
1543.649330868422 4999.445667544175
1544.4210258006842 4968.355946843063
1545.1925332794308 4951.706226771461
1545.9638533546604 4936.564128682
1546.7349860763552 4788.606464267084
1547.5059314944829 5347.154977178384
1548.27668965898 4896.231882815865
1549.0472606197673 4974.29554433138
1549.817644426752 4910.1016206419345
1550.5878411298072 5122.079352442548
1551.3578507787988 5011.202406558231
1552.1276734235635 4807.565418487311
1552.8973091139233 5009.145183015193
1553.6667578996767 5183.370528900787
1554.436019830604 4885.915559748263
1555.20509495646 4976.222231666741
1555.9739833269869 4735.240840361115
1556.7426849919011 4845.928646914551
1557.511200000903 5131.775898426507
1558.2795284036674 5050.896844593361
1559.0476702498509 5000.770384139804
1559.8156255890954 5135.770805217684
1560.5833944710157 5262.865899359855
1561.3509769452048 4943.35219919276
1562.1183730612447 4902.8305749740875
1562.8855828686865 4958.1091174676585
1563.6526064170703 5303.633008447833
1564.4194437559127 5332.070571239345
1565.1860949347047 4902.531199424564
1565.9525600029283 5354.975531305029
1566.7188390100328 5485.928859846051
1567.4849320054564 4938.320966391224
1568.250839038612 4907.079399026972
1569.0165601588997 5069.146775592648
1569.7820954156887 5010.368364071867
1570.5474448583373 5021.233153682673
1571.31260853618 4952.227831996425
1572.0775864985299 4735.767524623558
1572.8423787946813 5010.868292838274
1573.6069854739108 4864.01467631474
1574.371406585471 5016.471250018255
1575.1356421785986 5019.96383316364
1575.899692302506 4952.945965037132
1576.6635570063845 5043.496053283706
1577.4272363394157 4864.64306261765
1578.190730350747 4815.968856381478
1578.9540390895163 4926.330807007983
1579.7171626048384 4636.274236289359
1580.480100945806 4754.601183710931
1581.2428541614918 4710.374202588641
1582.0054223009538 4950.511310098881
1582.767805413223 4815.652216629232
1583.5300035473156 4876.070030634459
1584.292016752228 5066.931758129913
1585.0538450769309 4939.793570487072
1585.8154885703807 4621.2523687507955
1586.5769472815136 4700.595087674639
1587.3382212592405 4878.430906217944
1588.099310552463 4973.30106226928
1588.8602152100484 4771.095823259782
1589.6209352808564 4891.09225962979
1590.3814708137234 4728.729399233518
1591.14182185746 5120.454211806739
1591.9019884608679 4748.746178401465
1592.6619706727215 4508.193256590888
1593.4217685417734 4810.159105562101
1594.1813821167616 5024.110614253819
1594.9408114464022 4608.32474398584
1595.7000565793933 4748.426060580787
1596.459117564409 4814.739743522872
1597.2179944501113 4632.042713314823
1597.9766872851324 4693.934800295224
1598.735196118092 4828.241300374129
1599.4935209975883 4957.045755860954
1600.2516619721973 5020.054920382527
1601.0096190904787 4770.2935529745655
1601.7673924009723 4698.138815187276
1602.524981952196 4549.413151435971
1603.2823877926476 4652.3476006529
1604.0396099708087 4560.182756033044
1604.7966485351371 4491.601197819468
1605.5535035340745 4641.326234820564
1606.3101750160404 4921.124357718754
1607.0666630294363 4524.40850161248
1607.822967622642 4477.01537323155
1608.5790888440224 4706.71949457524
1609.3350267419137 4806.1025975922585
1610.0907813646445 4604.334154404206
1610.8463527605145 4550.647386777438
1611.601740977805 4806.6032293877015
1612.356946064785 4628.711395390346
1613.1119680696902 4311.376962247736
1613.8668070407512 4504.402672059345
1614.6214630261748 4505.2817481099755
1615.375936074137 4738.823483977807
1616.1302262328118 4550.612657873639
1616.8843335503425 4586.891972747116
1617.638258074854 4415.002981034823
1618.391999854457 4512.07796105188
1619.1455589372363 4830.1390826738825
1619.8989353712623 4575.745857827866
1620.65212920458 4225.539829370619
1621.4051404852235 4360.2387751522465
1622.1579692611976 4364.559709715585
1622.9106155804966 4246.281447190919
1623.663079491087 4371.5169012931865
1624.4153610409248 4608.554976954227
1625.1674602779385 4255.529863534715
1625.9193772500403 4235.488687323681
1626.6711120051277 4629.061572769101
1627.4226645910676 4409.288722141631
1628.174035055721 4234.045685174435
1628.9252234469168 4507.632028857288
1629.676229812474 4305.126184774367
1630.4270542001905 4658.859892207569
1631.1776966578382 4454.329511454819
1631.9281572331747 4390.473382600741
1632.678435973945 4531.4686739026065
1633.4285329278573 4366.707537869809
1634.1784481426203 4001.639738626601
1634.9281816659113 4397.130485740749
1635.677733545388 4506.098520124868
1636.4271038286934 4235.125820731291
1637.176292563452 4388.611872513398
1637.9252997972635 4258.220234726172
1638.674125577716 4502.745600955099
1639.4227699523672 4754.195938047532
1640.171232968767 4025.5595815344896
1640.9195146744423 4323.328019054048
1641.6676151168977 4552.953562389963
1642.4155343436178 4483.046957941281
1643.1632724020765 4281.197406699053
1643.9108293397167 4303.026349169737
1644.658205203974 4202.442580171813
1645.4054000422566 4852.723140583567
1646.1524139019566 4219.7121060225445
1646.8992468304423 3991.624780936716
1647.6458988750728 4256.121928829141
1648.3923700831765 4333.09528216931
1649.1386605020743 4215.56814869206
1649.8847701790564 4382.341679022864
1650.6306991614038 4431.449098310814
1651.3764474963682 4458.188861561139
1652.1220152311944 4010.1410837211033
1652.867402413096 4364.433854700861
1653.6126090892776 4337.189730248033
1654.3576353069184 4529.500681614944
1655.1024811131829 4369.104235711032
1655.8471465552066 4251.696928128305
1656.5916316801213 4483.297580632436
1657.3359365350298 4419.260896441565
1658.0800611670165 4295.346484416541
1658.824005623148 4261.623075463676
1659.5677699504722 4077.5086486084424
1660.3113541960192 4351.514084743925
1661.054758406799 4246.498191142896
1661.7979826297997 4059.5621064089582
1662.5410269119966 4031.0549621263685
1663.283891300338 4334.194677598587
1664.0265758417645 3978.1383869194638
1664.7690805831826 4239.795881819159
1665.5114055714948 4339.842870296278
1666.2535508535748 4557.296365075281
1666.9955164762814 3919.6528633057096
1667.7373024864555 4206.659608340231
1668.478908930916 4255.3408790277035
1669.220335856462 4036.0510811471213
1669.9615833098778 4074.223856764364
1670.7026513379296 3964.443349767057
1671.44353998736 4181.86225381242
1672.1842493048916 4126.318515711977
1672.9247793372379 4070.2632885344856
1673.6651301310812 4159.973112189926
1674.4053017330934 4028.9320586403583
1675.1452941899242 4153.006604149458
1675.885107548207 3590.097253068879
1676.6247418545518 3586.653776768732
1677.3641971555535 3798.104135688422
1678.1034734977893 4046.3053477330127
1678.8425709278108 3911.224342052118
1679.5814894921605 4114.806789746037
1680.320229237359 4104.135273856822
1681.0587902098978 4061.573694792918
1681.7971724562685 3738.718582410238
1682.5353760229264 3658.1820725780117
1683.2734009563173 3943.052515288783
1684.0112473028657 3532.125302642954
1684.7489151089794 3883.040415136226
1685.4864044210462 3985.308593458621
1686.2237152854377 3442.3901270717383
1686.960847748498 3832.77581917547
1687.6978018565642 3557.178109764906
1688.434577655944 3528.387683681985
1689.1711751929379 3442.374593168387
1689.9075945138156 3637.209291441478
1690.6438356648396 3580.2460477752393
1691.3798986922448 3132.536595891285
1692.1157836422499 3499.152148117103
1692.851490561059 3367.8559740590185
1693.587019494853 3464.2688537789245
1694.3223704897991 3240.32638246679
1695.0575435920364 3185.956846234937
1695.792538847696 3690.7215700731676
1696.527356302886 3316.2612087544935
1697.2619960036936 3034.9608376425494
1697.9964579961907 3111.0300534106473
1698.730742326432 2803.854906412881
1699.4648490404488 3041.7958571131085
1700.1987781842563 3201.685743080988
1700.9325298038548 3367.6891424617525
1701.6661039452174 3489.954031523742
1702.3995006543082 3318.240747641316
1703.1327199770658 3412.974614113487
1703.865761959416 3081.8302067957743
1704.598626647261 3373.1931034278723
1705.3313140864866 2965.3083928582787
1706.0638243229587 3078.3499913398928
1706.7961574025303 3267.579119462447
1707.528313371029 3068.980880417451
1708.260292274268 2809.367234042975
1708.9920941580403 2971.1626663947222
1709.7237190681226 3164.039757023903
1710.4551670502697 3083.8793938396125
1711.18643815022 2800.5822160408384
1711.9175324136959 3460.7942615026463
1712.6484498863938 3110.687304503206
1713.379190614005 2724.7143995774927
1714.109754642188 2826.8548023034446
1714.8401420165883 2875.884303703023
1715.570352782839 3567.5992483244795
1716.3003869865497 3072.933336290511
1717.0302446733076 2799.399133455895
1717.7599258886876 2995.775328225353
1718.4894306782444 3289.4473651092144
1719.2187590875183 2840.442196394898
1719.9479111620203 3220.3444904713224
1720.6768869472544 2909.6117682561867
1721.4056864887025 3267.022486611234
1722.1343098318284 3224.1351158853095
1722.8627570220742 2955.4159356165155
1723.591028104871 2762.773002295588
1724.3191231256242 2675.6563921875177
1725.0470421297232 2966.461905671601
1725.7747851625427 3134.0816532535437
1726.5023522694337 3133.768083165446
1727.2297434957363 2956.1977826813045
1727.9569588867635 2572.535747325937
1728.6839984878152 3036.0676759367307
1729.4108623441734 2551.825364681778
1730.1375505011038 2943.7800060367335
1730.8640630038426 2777.564054444608
1731.5903998976264 2850.4398147155853
1732.316561227657 2932.9109747016546
1733.0425470391274 2717.2321069013337
1733.7683573772065 2865.421299755776
1734.4939922870508 2744.284665910434
1735.2194518137949 2887.475131709022
1735.9447360025606 2865.596121157766
1736.669844898439 2775.613732313774
1737.3947785465189 2640.9779504903245
1738.1195369918605 2500.511576253044
1738.8441202795093 2724.1823185516223
1739.5685284544943 2917.3883537564516
1740.292761561821 2897.903968373904
1741.0168196464838 2852.981805599303
1741.7407027534518 2804.880299517898
1742.464410927687 2814.2451202688126
1743.187944214118 2787.6396020092757
1743.9113026576688 2707.4013360674485
1744.634486303241 2775.520210729494
1745.3574951957125 2726.2824120649084
1746.0803293799509 2906.508794066042
1746.8029889008048 2829.9015320976387
1747.5254738031017 2907.489252231039
1748.2477841316504 2537.5479156680653
1748.969919931249 2817.509339510038
1749.6918812466665 2744.5304705625663
1750.4136681226646 2791.430188723219
1751.1352806039777 2834.5858772703536
1751.856718735331 2502.386257000718
1752.5779825614281 2539.2923840254
1753.2990721269507 2909.963824457077
1754.0199874765676 2784.8265678273465
1754.7407286549314 2539.334557057932
1755.4612957066693 2625.5336342439086
1756.1816886763954 2599.995661219684
1756.9019076087097 2807.0451037142716
1757.6219525481865 2691.036022620049
1758.3418235393856 2781.9729421703464
1759.061520626854 2750.5922877564585
1759.7810438551096 2962.672691724007
1760.5003932686614 2520.3283772510276
1761.2195689119999 3001.423891800273
1761.938570829594 2685.120899536503
1762.657399065898 2696.015012605962
1763.376053665348 2439.2384652805904
1764.0945346723602 2576.1470868982133
1764.812842131334 2952.6078020767372
1765.5309760866512 2508.6662168727626
1766.2489365826787 2443.1575440055935
1766.9667236637597 2549.607645563538
1767.684337374223 2421.0753949854147
1768.401777758383 2352.4497864547243
1769.1190448605284 2485.5440334994205
1769.836138724937 2443.9413514781327
1770.5530593958665 2637.043590092354
1771.2698069175603 2975.0848868058797
1771.9863813342326 2863.1599230327724
1772.702782690094 2516.917982433571
1773.4190110293293 2763.176828613491
1774.1350663961111 2732.237045361534
1774.8509488345844 2374.6644459060553
1775.5666583888924 2600.039480223039
1776.2821951031437 2766.4801308515794
1776.9975590214362 2639.636885270806
1777.7127501878585 2794.306622310386
1778.4277686464684 2743.5063976475253
1779.1426144413108 2817.0041778792433
1779.8572876164162 2848.2917650090344
1780.571788215797 2362.806831103201
1781.2861162834415 2642.3307976002275
1782.0002718633277 2515.4555101177316
1782.7142549994132 2681.402365334535
1783.4280657356376 2675.102323672427
1784.141704115922 2483.8978197699926
1784.855170184177 2565.068322018943
1785.5684639842839 2693.867481849188
1786.2815855601148 2184.0035220945965
1786.9945349555237 2633.8080202089473
1787.707312214343 2429.30431724523
1788.4199173803918 2412.65188054168
1789.132350497468 2396.180550115946
1789.8446116093583 2555.2679541679654
1790.556700759822 2452.337903246513
1791.2686179926077 2449.3672229964013
1791.9803633514493 2526.264981706422
1792.6919368800554 2293.4067323135605
1793.4033386221236 2634.7446376203843
1794.1145686213295 2709.503459755778
1794.8256269213307 2873.553472846196
1795.536513565774 2686.554870091573
1796.247228598284 2160.5435034500756
1796.9577720624693 2410.6492539157043
1797.6681440019165 2592.2254413534547
1798.3783444602013 2468.98175781997
1799.0883734808776 2634.3300002876454
1799.7982311074884 2565.8444821619187
1800.5079173835475 2537.4893849990726
1801.2174323525633 2598.8820153822667
1801.9267760580187 2587.543686125813
1802.635948543386 2551.273678931527
1803.3449498521113 2381.732551301652
1804.0537800276325 2567.7302987998205
1804.7624391133668 2497.2814709529735
1805.47092715271 2238.7067729432874
1806.1792441890484 2313.119586646965
1806.8873902657433 2649.011455486464
1807.5953654261448 2523.861870768805
1808.3031697135812 2410.201140508888
1809.0108031713662 2470.9552283662406
1809.71826584279 2434.4035118226366
1810.425557771141 2356.087633448983
1811.1326789996747 2391.24875959183
1811.839629571632 2426.3195517468803
1812.5464095302468 2394.1713414722412
1813.2530189187182 2568.779454167491
1813.959457780249 2372.908086355794
1814.6657261580076 2689.495698093019
1815.371824095153 2601.2472096872784
1816.0777516348262 2698.4944683673225
1816.78350882015 2095.298059125221
1817.4890956942272 2180.8435371504147
1818.1945123001533 2356.935791703459
1818.8997586809928 2433.6160791830434
1819.6048348798067 2398.1162430865284
1820.3097409396287 2422.891027816055
1821.0144769034796 2799.876004453866
1821.7190428143622 2556.9653554839233
1822.423438715261 2669.6290659259075
1823.1276646491478 2383.345707078686
1823.8317206589727 2529.35775927631
1824.5356067876692 2482.947527284728
1825.2393230781581 2512.0890869107834
1825.942869573335 2225.9935031954756
1826.646246316086 2283.6434150719
1827.3494533492758 2500.274248084074
1828.052490715756 2454.6124644159604
1828.7553584583547 2544.4466863013654
1829.458056619891 2596.5320536662084
1830.1605852431585 2306.938550242322
1830.8629443709433 2266.533235946562
1831.5651340460063 2438.5323043800654
1832.2671543110919 2275.3218386705616
1832.9690052089318 2521.985562849153
1833.6706867822395 2110.8519136576147
1834.3721990737104 2536.3132927327897
1835.0735421260233 2466.6043294370384
1835.774715981841 2262.660938512584
1836.4757206838058 2730.556393810841
1837.1765562745459 2324.0321449725407
1837.8772227966747 2131.038513832634
1838.5777202927839 2382.518703391289
1839.2780488054523 2414.567804049451
1839.9782083772352 2240.857819888833
1840.6781990506806 2701.289210252025
1841.378020868313 2370.6608314524096
1842.0776738726418 2447.372408575472
1842.777158106157 2324.0327338631264
1843.4764736113375 2293.5478807702393
1844.1756204306403 2388.2927709511605
1844.8745986065078 2413.6590423278494
1845.5734081813607 2193.8008034504232
1846.2720491976124 2258.9216197342726
1846.970521697649 2171.9474500001998
1847.6688257238511 2349.2607793139414
1848.3669613185684 2362.795019184682
1849.0649285241452 2022.403422514694
1849.7627273829057 2380.375322225012
1850.460357937156 2318.3986113398555
1851.1578202291857 1975.2191857053022
1851.8551143012664 2511.0022693861765
1852.5522401956569 2300.6246402777674
1853.2491979545957 2547.082489887464
1853.9459876203055 2155.0575651112604
1854.6426092349902 2273.207216350432
1855.3390628408451 2167.623889869197
1856.0353484800362 2551.2917769566166
1856.7314661947203 2449.586807872676
1857.4274160270397 2128.3332348662175
1858.123198019115 2273.5666262766053
1858.8188122130487 2110.9377045831634
1859.5142586509319 2312.6678156274866
1860.209537374838 2248.594634657408
1860.9046484268183 2313.6461153486066
1861.599591848917 2504.6425530629576
1862.294367683151 2100.801974431424
1862.988975971528 2330.977444784501
1863.6834167560355 2308.2857019476132
1864.3776900786452 2561.5297239471615
1865.0717959813119 2173.8996758608546
1865.7657345059724 2120.5392345906193
1866.4595056945564 2470.2547219438998
1867.1531095889586 2321.993736428448
1867.846546231076 2050.3565805126113
1868.5398156627743 2525.281844256155
1869.2329179259123 2186.0491908436957
1869.9258530623283 2162.523416538029
1870.618621113843 2138.912363500541
1871.3112221222636 2026.5588118432509
1872.0036561293764 2198.529251783034
1872.695923176956 2296.002157418464
1873.3880233067594 2440.218732539036
1874.0799565605212 1999.2768906331225
1874.7717229799673 2163.7917365086073
1875.4633226068036 2515.5138397410733
1876.1547554827175 2394.8997428072885
1876.8460216493859 2164.6000238571764
1877.5371211484617 2275.955770592944
1878.2280540215852 2237.1066042666653
1878.9188203103804 2059.1814335223
1879.6094200564548 2323.9096842191975
1880.299853301396 2106.7104387783256
1880.9901200867826 2505.801194105508
1881.6802204541673 2332.7514315274557
1882.3701544450942 2343.343582350456
1883.059922101087 2076.4801491031226
1883.7495234636517 2493.4874836757867
1884.4389585742792 2171.071010268416
1885.1282274744517 2194.803957696356
1885.8173302056166 2270.2708068513193
1886.506266809225 2345.8419444232272
1887.195037326701 2000.1231749574495
1887.8836417994517 2275.811737163958
1888.5720802688702 2585.0266798752973
1889.260352776333 2345.366193977697
1889.9484593632042 2415.2276286113542
1890.63640007082 2134.848187592631
1891.3241749405151 2089.9417765467288
1892.0117840135954 2279.2758275186175
1892.6992273313572 2167.0817255618035
1893.3865049350788 2059.181503419902
1894.0736168660223 2159.379907278514
1894.7605631654333 2259.659250193775
1895.4473438745408 1969.3081988006118
1896.133959034556 2544.190009502077
1896.820408686679 2322.895642402392
1897.506692872088 2556.3221802292805
1898.192811631945 2237.071298241835
1898.8787650073991 2238.381053397673
1899.5645530395832 2356.449017476666
1900.2501757696118 2370.7061583356217
1900.9356332385796 2095.293121568002
1901.620925487574 2659.9831829508184
1902.3060525576602 2386.542784053235
1902.9910144898859 2413.3875056352035
1903.6758113252872 2086.755159931464
1904.3604431048789 2299.248546450281
1905.0449098696663 2362.8293562891986
1905.7292116606295 2161.12267351893
1906.4133485187394 2348.8905092166724
1907.0973204849488 1866.9328916955546
1907.7811276001976 2025.4218601338016
1908.4647699053967 2199.748879788621
1909.1482474414588 2108.4039950886395
1909.8315602492694 2016.7788728554995
1910.5147083696957 2411.787222069466
1911.1976918436012 2089.2323983820374
1911.880510711815 2041.1889663662591
1912.5631650151681 2075.4056806807835
1913.2456547944657 2109.615619678963
1913.927980090495 2134.161784427424
1914.6101409440362 2134.750363598371
1915.2921373958416 2256.3419738933235
1915.9739694866603 2209.9427494796537
1916.655637257214 2484.4495918030952
1917.3371407482136 2241.051434652746
1918.0184800003572 2493.761715885902
1918.6996550543154 2361.1629546890304
1919.3806659507554 2276.5109380183385
1920.0615127303208 2256.601373939302
1920.7421954336423 2469.6649763260702
1921.4227141013343 2441.2730608012903
1922.103068773993 2238.951279220808
1922.783259492202 2383.4164822109924
1923.4632862965227 2183.744820623264
1924.1431492275078 2094.7695031049525
1924.8228483256917 1929.3651497276587
1925.5023836315922 2186.314999307551
1926.1817551857057 2343.4000549099483
1926.8609630285227 2500.827507806255
1927.5400072005123 2292.6000231261223
1928.218887742125 2084.127736886583
1928.8976046938005 1988.7329487478498
1929.5761580959588 2330.2232592673113
1930.2545479890086 2251.1340324210746
1930.9327744133352 1879.710182661811
1931.6108374093164 2143.498217319332
1932.2887370173066 2476.678016841633
1932.9664732776473 2342.8098834476295
1933.6440462306673 2208.5492857397103
1934.3214559166754 2116.4373836311634
1934.9987023759659 2383.608763557618
1935.675785648813 2414.5057038513196
1936.3527057754836 2459.6848470942546
1937.029462796223 2504.985208904257
1937.70605675126 2063.0026519337175
1938.3824876808085 2038.6456463276295
1939.058755625072 2228.544654977665
1939.7348606242267 2139.5696369093084
1940.4108027184448 2232.7119847883373
1941.0865819478713 2360.4669800210754
1941.7621983526478 2113.484161570218
1942.4376519728921 1920.5071544127745
1943.1129428487038 1945.6767752135668
1943.7880710201734 2316.4227964994675
1944.4630365273733 2259.3334523148123
1945.1378394103576 1851.9031859243648
1945.8124797091714 1863.4011637411957
1946.4869574638324 1874.8568018201172
1947.161272714353 1971.1774731762084
1947.8354255007234 2248.2048272322813
1948.5094158629272 2147.7892037097954
1949.1832438409183 2250.3264406919416
1949.8569094746435 2250.4063551273766
1950.530412804037 2381.311375851993
1951.2037538690092 2435.8142337556014
1951.8769327094578 2071.949660367423
1952.5499493652678 2071.7752581652826
1953.222803876306 2374.920446633188
1953.895496282421 2206.432287837273
1954.5680266234522 2138.863303939566
1955.2403949392155 2288.4333156697744
1955.9126012695142 1934.93770124757
1956.5846456541403 2182.065887372669
1957.2565281328643 2058.4954797598157
1957.9282487454457 2245.5410025519705
1958.5998075316202 2309.7397229776116
1959.27120453112 2125.5796012765754
1959.9424397836501 2118.456532234692
1960.613513328908 2167.216702799047
1961.2844252065697 2406.333095921454
1961.9551754563017 1956.6322901514627
1962.6257641177453 2082.826923895839
1963.29619123054 1973.1667479541588
1963.966456834296 1985.2363088585778
1964.6365609686181 1920.4722726431064
1965.306503673086 1860.490084386746
1965.976284987275 1800.3933252387894
1966.645904950734 2169.021517183065
1967.315363603002 1788.3471218646578
1967.9846609836077 2105.8451559961964
1968.6537971320486 2010.8906814680454
1969.3227720878222 2058.9571809877334
1969.9915858904042 2068.495433308214
1970.660238579252 2058.318991008054
1971.3287301938108 2091.753960139046
1971.997060773514 1895.9849105506266
1972.665230357772 1786.3201950229054
1973.3332389859843 1973.7940496019964
1974.0010866975335 1922.8842289229135
1974.6687735317864 2112.033163599427
1975.3362995280932 2149.610774204157
1976.003664725793 2114.623055303768
1976.6708691642052 1788.0798948972053
1977.3379128826364 2038.0551786188232
1978.004795920373 2368.867660971122
1978.6715183166925 2390.1479506082524
1979.3380801108524 1731.6279023963477
1980.0044813420973 2048.8381437035328
1980.6707220496555 1631.000760752698
1981.3368022727373 1955.800892905579
1982.0027220505417 2124.330093072341
1982.66848142225 1647.9961393009282
1983.3340804270283 1762.7412722923957
1983.999519104027 2067.243383366892
1984.6647974923835 2090.4107373875686
1985.329915631215 2141.7275882696185
1985.99487355963 1926.6349993943363
1986.6596713167146 2202.165597999307
1987.3243089415428 1788.114821791256
1987.9887864731754 2324.984439139291
1988.6531039506553 1813.373408393883
1989.3172614130071 2404.686497093851
1989.9812588992481 1947.9015823803595
1990.645096448372 1737.187733281235
1991.3087740993633 2003.042360403005
1991.9722918911848 1898.4699980540706
1992.635649862792 1974.2965933119085
1993.2988480531185 2069.598968381373
1993.9618865010852 1958.315487061987
1994.6247652455968 1846.8937058105544
1995.287484325545 1751.118596108638
1995.9500437798033 1975.411791208079
1996.6124436472292 1935.881796904226
1997.2746839666706 2090.511624590076
1997.936764776954 1915.9990984278302
1998.598686116895 1772.8055312439046
1999.2604480252903 2336.032568217067
1999.9220505409212 2192.8654448100833
2000.5834937025593 1928.965150083745
2001.2447775489582 1987.5395080985459
2001.9059021188514 1932.754101975807
2002.5668674509616 1906.5697725025457
2003.2276735839987 1885.3408697473158
2003.8883205566508 2201.610056014714
2004.5488084075987 1911.7231525638108
2005.2091371755014 1914.0684363362896
2005.8693068990033 1777.8470266223108
2006.5293176167397 1791.1889371510329
2007.1891693673224 1804.7152792738889
2007.848862189354 1814.7986523124825
2008.5083961214223 1929.961632779718
2009.1677712020955 1730.454750317444
2009.8269874699254 1818.9709576384728
2010.4860449634598 2489.487697008883
2011.1449437212177 1672.3860133999638
2011.8036837817108 2296.656518596553
2012.4622651834325 2170.1836419722276
2013.1206879648653 2119.9566862855813
2013.7789521644736 1837.0695150169129
2014.4370578207036 2142.723065860577
2015.0950049719922 1861.1005974657608
2015.7527936567585 2154.984436163242
2016.4104239134067 1904.635658011354
2017.067895780323 1862.9333655298838
2017.725209295886 1821.0577169190929
2018.3823644984514 2247.857994109452
2019.0393614263648 1984.318960984449
2019.6962001179545 2012.527623161226
2020.3528806115355 2028.0265612288913
2021.0094029454067 1982.7890255911418
2021.6657671578487 1729.2116175406827
2022.321973287133 1977.6310498130963
2022.9780213715148 1879.8428253858158
2023.6339114492293 2043.5950343769357
2024.2896435585026 2028.561722583709
2024.9452177375442 1956.5510006525499
2025.600634024544 2237.940874566534
2026.2558924576842 2128.385906273674
2026.9109930751292 2032.5440121691408
2027.565935915025 1901.6963739644605
2028.2207210155066 2335.8312531652928
2028.8753484146964 2343.043674059895
2029.529818150695 2267.4249633274053
2030.1841302615903 2191.4148077912614
2030.8382847854573 1773.078413869466
2031.4922817603601 2000.9088125455687
2032.1461212243357 1979.3899362246575
2032.7998032154192 1841.3310647056128
2033.4533277716218 1853.1239572447405
2034.1066949309443 1761.4530764579806
2034.7599047313688 1834.409639918791
2035.4129572108704 2074.649178710578
2036.0658524074006 2018.9446535555671
2036.7185903589016 1877.207034284463
2037.3711711032956 2025.4384888756954
2038.023594678496 1847.2792125278906
2038.675861122394 1840.266375712184
2039.3279704728757 1755.4291598707077
2039.9799227678031 1670.5600197536994
2040.6317180450278 1900.0088405474241
2041.2833563423865 1991.2892382662037
2041.9348376977014 2309.611788095742
2042.5861621487784 2048.6256028572925
2043.2373297334088 2224.8931843836144
2043.8883404893695 2073.3249074783007
2044.5391944544208 2060.851849909576
2045.1898916663158 2180.055304948193
2045.8404321627804 2303.7251083014617
2046.4908159815368 1872.080422719752
2047.1410431602853 1949.4195622344591
2047.7911137367173 2030.0808374011897
2048.441027748504 2110.721701204247
2049.090785233302 1758.2925604963777
2049.7403862287592 1842.139283223351
2050.389830772503 1742.474965188397
2051.0391189021466 1642.766038486055
2051.688250655294 1922.420275332734
2052.337226069527 1652.5031935409988
2052.986045182417 2166.873510023521
2053.634708031521 1503.9520904799153
2054.283214654375 2183.856639571676
2054.931565088511 1617.0889788471138
2055.579759371436 1748.3699762347999
2056.2277975406523 2019.9373432030632
2056.8756796336384 2073.451622979839
2057.5234056878617 1651.4362688599826
2058.1709757407752 1887.7207896355692
2058.8183898298194 2220.2045900322323
2059.465647992416 2145.911351419972
2060.1127502659747 2220.9900965278216
2060.759696687888 2105.6372983321507
2061.4064872955405 1990.27956864462
2062.053122126292 1700.4156276417016
2062.699601217497 2027.8525705628472
2063.345924606485 1801.0428930456583
2063.992092330587 1932.1050574865556
2064.638104427102 1655.9388440928287
2065.283960933324 1791.1426595834214
2065.92966188653 1926.4828609626777
2066.5752073239855 2064.7949061703052
2067.2205972829397 1595.0773940732013
2067.86583180062 1902.8412778281465
2068.5109109142522 1847.9544186500723
2069.15583466104 1939.8769741090414
2069.8006030781708 1616.213936900496
2070.445216202821 1774.190869718017
2071.089674072153 2213.845525254983
2071.7339767233116 2011.8611880135218
2072.3781241934303 2008.2273465416813
2073.0221165196253 1956.6904212855861
2073.6659537390024 1766.9807146716587
2074.3096358886505 2062.7804204225067
2074.953163005637 1900.5086658225641
2075.596535127028 1693.4687210866505
2076.2397522898664 1618.9950188504147
2076.882814531182 1883.5173698248514
2077.5257218879924 2014.2591292178615
2078.1684743973 1596.874377316715
2078.8110720960885 1588.6830422126675
2079.453515021336 1766.4910217276688
2080.095803209997 1944.4576710947465
2080.7379366990135 1889.168334047302
2081.37991552532 2030.4706340753041
2082.0217397258275 1960.1317690896117
2082.6634093374414 1946.743720256683
2083.3049243970418 1933.4210940376893
2083.9462849415067 2066.043367069766
2084.587491007689 1867.9178444254915
2085.2285426324324 2059.868431892705
2085.869439852564 1888.271164971297
2086.510182704902 1766.168058199139
2087.1507712262483 1809.3803342197946
2087.791205453381 1571.1209799649375
2088.4314854230743 2001.4255735553493
2089.0716111720867 1861.4966551826606
2089.7115827371617 1527.4069839606304
2090.351400155023 1596.142178283434
2090.991063462385 1665.0806861260796
2091.6305726959527 1582.8522200244317
2092.2699278924047 1673.0683672194039
2092.9091290884153 1763.5375132877325
2093.548176320641 1535.3078006667931
2094.187069625721 1879.6657544841516
2094.8258090402887 1594.8773968014646
2095.464394600951 1925.9937801579358
2096.102826344313 1935.1586430524196
2096.741104306955 1929.0851800395217
2097.379228525453 1828.9211894250238
2098.017199036358 1969.2911907623159
2098.6550158762147 2109.951078303784
2099.2926790815527 1929.3726130567563
2099.9301886888825 1823.9652706074598
2100.5675447347076 1838.9154783028505
2101.2047472555114 2097.7262761494835
2101.841796287761 1835.7122361877566
2102.47869186792 2035.7722687582823
2103.1154340324265 1725.6600823212752
2103.752022817709 1804.8118258549748
2104.388458260184 1719.9158066176533
2105.024740396251 1935.088780067609
2105.660869262292 1645.0385083770932
2106.296844894685 1957.3902534950375
2106.93266732978 1917.8341006318126
2107.5683366039284 1657.9942882729702
2108.2038527534532 1837.3813591559622
2108.8392158146726 1981.2499290573699
2109.4744258238843 1747.073205308629
2110.1094828173755 1829.9026794134356
2110.744386831422 2264.690990854437
2111.3791379022787 1969.763920141081
2112.01373606619 2091.935747081313
2112.648181359389 1952.0075734649781
2113.28247381809 1913.3846241369597
2113.916613478492 1766.6873209141554
2114.550600376786 1827.1074133915627
2115.1844345491445 1807.3591131426394
2115.818116031729 1625.6466161423746
2116.451644860679 1911.121033641402
2117.085021072133 1560.6974101106796
2117.718244702204 1787.9214093379264
2118.3513157869984 1685.7060896784035
2118.984234362604 1651.6878999201995
2119.617000465092 1686.0577644237692
2120.249614130529 1746.7667511558193
2120.8820753949585 1807.5745779805384
2121.5143842944162 1645.9621566049784
2122.14654086492 1668.2956185203097
2122.7785451424734 2006.5934419992748
2123.4103971630702 2010.0431474889551
2124.042096962681 2013.7220034424033
2124.6736445772767 1948.5384670310862
2125.305040042802 1599.2774390603483
2125.936283395191 1867.293591591971
2126.567374670365 1785.5512529623186
2127.198313904233 1731.949636519065
2127.8291011326855 1638.3080485259093
2128.4597363916037 1544.2758562070137
2129.0902197168507 1794.2822664082128
2129.720551144279 2037.0704746687206
2130.3507307097225 2280.0673041597543
2130.980758449008 2170.6431638498634
2131.6106343979427 2110.834321952704
2132.2403585923203 2050.8488656022246
2132.8699310679276 2011.9418368589836
2133.499351860526 1954.2326886757787
2134.1286210058715 1774.0527502170867
2134.7577385397053 1974.3087886799701
2135.3867044977487 2174.871393050934
2136.0155189157176 2262.5624330318647
2136.644181829308 2050.0009987872936
2137.2726932742025 1784.6292485017239
2137.901053286074 1705.173840694672
2138.5292619005777 1625.6601532638351
2139.1573191533535 1707.4874873115714
2139.7852250800315 1984.394338003698
2140.4129797162295 1908.1929905011955
2141.0405830975433 1521.9877164390632
2141.6680352595613 1542.3496261170103
2142.2953362378576 1562.7680988139598
2142.9224860679915 1671.6766857138769
2143.549484785508 1672.047624350891
2144.1763324259373 1659.7501898222386
2144.803029024799 1739.874993396624
2145.429574617594 1629.8353676699785
2146.0559692398165 1869.7993588920394
2146.682212926942 1749.2601893663843
2147.308305714432 1789.8309007548864
2147.9342476377333 2051.639325368278
2148.5600387322847 2255.1710522248886
2149.185679033506 1922.9294434921217
2149.8111685768017 1726.7176001222724
2150.4365073975678 1527.8313870357879
2151.061695531187 1684.853772747431
2151.686733013021 1707.5537707688168
2152.311619878423 1730.4114332960075
2152.9363561627342 1770.6208288737566
2153.560941901278 1487.9344017876758
2154.1853771293663 1944.614696544851
2154.809661882293 1873.0052850528314
2155.433796195348 2213.349009802259
2156.0577801037944 2059.0442200215707
2156.681613642895 1904.37984626952
2157.3052968478896 1658.1528719437022
2157.928829754006 1968.8494861948354
2158.552212396462 2008.2526494754352
2159.1754448104566 1898.4490844345135
2159.7985270311783 1598.015244315485
2160.4214590938027 1204.535875352231
2161.0442410334927 1315.1489093225925
2161.6668728853874 1413.7795009073886
2162.289354684628 1512.646852169069
2162.911686466332 1635.6496536316383
2163.533868265602 2109.789735210423
2164.1559001175337 2234.7358491983578
2164.7777820572046 1790.3385396349709
2165.399514119681 1819.0062732551407
2166.021096340013 1634.630559063929
2166.6425287532384 2144.3204263410853
2167.263811394385 2142.898120929006
2167.8849442984574 2141.6494130238198
2168.505927500455 1677.077629572434
2169.126761035366 1915.289080670335
2169.7474449381552 1538.6416304751858
2170.367979243778 1797.2025647171388
2170.9883639871823 2056.5378953285735
2171.608599203293 1668.2875197907347
2172.2286849270276 2289.5427943605164
2172.8486211932886 2259.692570752347
2173.4684080369625 1793.54108652395
2174.0880454929265 1446.1903152453135
2174.7075335960417 1463.8418479601803
2175.3268723811543 1445.829010578955
2175.9460618831 1427.7920303776057
2176.565102136701 1872.50024386685
2177.1839931767627 1751.4820029836605
2177.802735038078 1630.1690882584433
2178.421327755432 1537.8171020669483
2179.0397713635866 1594.48449410064
2179.658065897298 1525.7808237082884
2180.276211391305 1721.4193083999858
2180.8942078803357 1607.0506708527032
2181.5120553991 1773.623685380736
2182.129753982299 1475.2379615105535
2182.7473036646206 1707.782088553567
2183.3647044807367 1844.133040963926
2183.9819564653044 1409.0221308434225
2184.599059652968 1658.6235588373718
2185.216014078367 2119.2773686943497
2185.832819776113 2100.2426898966078
2186.4494767808137 2081.042657827523
2187.065985127063 1707.005383518679
2187.682344849436 1689.7066200451613
2188.298555982501 2073.6087394549786
2188.9146185608097 1840.5393087699445
2189.530532618901 1833.870081407357
2190.1462981912937 1723.887041804046
2190.761915312507 1816.4882778893339
2191.377384017036 1804.4773922885288
2191.9927043393654 1733.9217917010446
2192.6078763139667 1374.0763843917553
2193.2228999753006 1518.1602055224023
2193.837775357808 1662.5617774795567
2194.452502495922 1352.259003338125
2195.0670814240602 1700.1990898149227
2195.6815121766285 1392.0250606716704
2196.2957947880186 1386.5633669301767
2196.9099292926057 1381.0954735985765
2197.523915724758 1760.7459778125572
2198.137754118825 1678.6280780937427
2198.7514445091456 2107.769889742736
2199.3649869300443 2164.6917807467094
2199.9783814158327 2221.8375312165167
2200.5916280008096 2209.337817057024
2201.2047267192593 1911.548579337638
2201.8176776054515 1897.31841757863
2202.430480693649 1599.8192954293668
2203.0431360180955 1948.0675681552038
2203.6556436130195 1971.5133752285506
2204.268003512645 1830.594302831883
2204.8802157511727 1689.3705177320412
2205.492280362796 2059.477480679888
2206.1041973816937 1887.502776407835
2206.715966842032 1853.820819921953
2207.3275887779655 1853.6452886718587
2207.93906322363 1944.671552235157
2208.550390213153 1894.888350125073
2209.1615697806465 1854.5353751006235
2209.7726019602105 1667.1586099681194
2210.3834867859277 1460.866802687085
2210.9942242918787 1611.3523113227445
2211.6048145121167 1823.9910431119074
2212.2152574806914 2593.5476920961323
2212.825553231638 2569.208629213407
2213.435701798975 2545.0139374012815
2214.045703216707 1814.7919562625043
2214.655557518832 1386.9542942352848
2215.2652647393297 1376.8513573518096
2215.874824912169 1260.4904724836558
2216.4842380713 1597.2622767381722
2217.09350425067 1395.8089193809772
2217.7026234842033 1810.6514980047014
2218.311595805819 1985.4956151074537
2218.9204212494133 1732.3002581567907
2219.52909984888 2286.069214694794
2220.137631638092 1382.6556119746463
2220.7460166509154 2025.7935195195873
2221.354254921198 1326.5800041749221
2221.9623464827764 1689.4843940268172
2222.5702913694713 1866.3054494827934
2223.178089615096 2086.595680687319
2223.7857412534486 1623.6800656751698
2224.39324631831 1427.8312363714147
2225.000604843457 1667.0201936495669
2225.607816862641 1938.305805426667
2226.214882409611 1769.4419308604186
2226.8218015180973 1801.0930892312888
2227.4285742218217 1711.1646503757445
2228.0352005544864 1894.5182708877292
2228.6416805497847 1307.71605265869
2229.248014241399 1731.4091359357462
2229.8542016629945 1304.7454088009563
2230.460242848223 1772.4246366453
2231.0661378307304 1596.4205096037886
2231.671886644139 1420.2531444048734
2232.277489322065 1514.1237725485366
2232.8829458981127 1305.75094460934
2233.48825640587 1692.0896788852613
2234.0934208789095 2163.369774728232
2234.6984393507955 1950.6955243421955
2235.3033118550793 2001.6136877603476
2235.9080384252975 1651.5287102155708
2236.5126190949723 1463.0206109733836
2237.1170538976166 1573.764051960526
2237.721342866729 1320.628886163417
2238.32548603579 1586.582941788004
2238.9294834382763 1789.9749522360114
2239.533335107646 1680.0015432034052
2240.1370410773434 1795.7361278041085
2240.740601380803 1500.5983314396615
2241.3440160514474 1682.4973839293875
2241.9472851226783 1997.0526207113994
2242.550408627896 1724.9902888372228
2243.1533866004793 1959.1593567921427
2243.756219073799 1719.096556854347
2244.3589060812064 1627.6537497558254
2244.961447656049 1540.5062504407874
2245.5638438316564 1731.1159828502987
2246.166094641343 1746.0689699629384
2246.7682001184166 1550.8039183883154
2247.3701602961664 1676.857553724182
2247.971975207871 1825.4194875142161
2248.5736448867974 2035.1337069247802
2249.175169366197 1671.3047264574884
2249.7765486793123 1726.3327035283023
2250.3777828593684 1705.3875409358789
2250.9788719395783 1729.004182603357
2251.579815953146 1740.6262964509867
2252.1806149332606 1401.5055359060739
2252.781268913097 1675.614366783516
2253.381777925817 1542.1591353801525
2253.9821420045737 1880.9589794700867
2254.5823611825035 1873.1587676673964
2255.1824354927303 1853.4122864739045
2255.782364968365 1650.2035408410495
2256.38214964251 1446.7649617930667
2256.9817895482483 1471.8398964983708
2257.5812847186553 1458.7217444661658
2258.180635186791 1445.6325483486216
2258.779840985704 1591.211960995973
2259.37890214843 1628.721127459264
2259.97781870799 2175.4735675260717
2260.5765906973957 2083.949101127786
2261.175218149645 1675.3472717773057
2261.773701097718 1856.556085353611
2262.3720395745895 1663.1329301288872
2262.970233613216 1460.2504682327856
2263.568283246548 1644.596313101111
2264.1661885075137 1417.0153904858066
2264.763949429038 1436.2161047944871
2265.3615660440246 1445.5571385175945
2265.959038385374 1454.917715953704
2266.5563664859637 1965.0058103567694
2267.153550378669 1498.154611214585
2267.7505900963424 1917.9493451239446
2268.3474856718312 1471.8334382847308
2268.9442371379664 1738.593826884046
2269.5408445275643 1540.4269790580584
2270.1373078734377 1791.1311948825455
2270.7336272083758 1627.8378861023828
2271.32980256516 1395.2762952117778
2271.925833976562 1810.590115984855
2272.5217214753357 1650.5418904866558
2273.117465094223 1490.13984365568
2273.7130648659586 1477.7657411835537
2274.308520823257 1656.1876023712593
2274.903832998827 1793.36108914699
2275.4990014253563 1603.8968575999265
2276.094026135528 1938.793410781133
2276.6889071620117 1690.3106342709384
2277.2836445374614 1832.4840221455775
2277.878238294519 1673.0503282009304
2278.472688465812 1539.6123606893304
2279.066995083962 1405.9209919542163
2279.6611581815705 1481.3910927560685
2280.255177791232 1439.0445017387178
2280.8490539455233 1718.9999266974592
2281.442786677013 1999.5209840336381
2282.0363760182554 1797.524888102956
2282.6298220017943 1497.1372009257043
2283.223124660155 1478.448803472898
2283.816284025859 1459.7996489095472
2284.4093001314086 1859.9911618894323
2285.002173009292 1461.6395111972608
2285.5949026919952 1837.7414887144598
2286.1874892119777 1631.286156906404
2286.7799326016993 1517.7073413457124
2287.3722328936 1403.7863192142743
2287.964390120109 1260.431101105305
2288.556404313642 1796.9558555964845
2289.1482755066027 2140.466377541669
2289.7400037313873 1708.4492390458122
2290.3315890203703 1414.6152073523522
2290.9230314059205 1714.3090606924306
2291.5143309203904 1617.7009519622693
2292.1054875961236 1634.9401870809475
2292.6965014654506 1972.2558283814392
2293.287372560684 1639.6849133504816
2293.878100914131 1581.8894720193516
2294.468686558086 1524.0215401097498
2295.059129524827 1672.0395089023827
2295.649429846617 1801.2598188648838
2296.239587555716 1650.1534860818251
2296.8296026843636 1584.8117965034205
2297.419475264791 1579.9465945166064
2298.0092053292137 1574.9742861944653
2298.598792909839 1843.4914293091601
2299.1882380388597 1639.9574441767866
2299.777540748455 1911.9122765517677
2300.3667010707904 1709.50910967975
2300.9557190380256 1853.2951167036426
2301.544594682302 2231.5274648777563
2302.1333280357503 2070.4992284141836
2302.721919130485 1909.334375042091
2303.3103679986198 2138.819434479206
2303.898674672242 1939.1951613368255
2304.486839183437 1657.3677909498867
2305.0748615642697 1731.4659525833547
2305.6627418468015 1630.0016699017829
2306.2504800630704 1560.7375605761538
2306.8380762451143 1596.4822338450506
2307.425530424949 1695.462277744531
2308.012842634582 1794.6562985315693
2308.6000129060103 1968.7080257928603
2309.187041271214 1728.8868838087678
2309.773927762164 2070.8280056388885
2310.3606724108213 1877.8750284799585
2310.9472752491274 1529.6173270488364
2311.5337363090184 1988.5819162063804
2312.120055622414 1608.597370966159
2312.706233221221 1756.252505980846
2313.2922691373424 1288.1755360266648
2313.8781634026564 1428.3813396166856
2314.463916049037 1568.9077895369594
2315.049527108342 1848.7080267405272
2315.6349966124235 2170.298339475949
2316.2203245931123 2040.9544114544278
2316.8055110822315 1784.1937953403885
2317.3905561115935 1526.8184137907351
2317.9754597129977 1421.0150765381773
2318.560221918229 1377.905165692585
2319.1448427590603 1334.7274226896816
2319.729322267256 1334.6507088586372
2320.313660474563 1371.1990511589256
2320.8978574127195 1608.4094178775144
2321.481913113452 1846.3277365857716
2322.0658276084705 1398.4277130769715
2322.6496009294806 1625.9602806601383
2323.233233108165 1752.0867277845632
2323.8167241762058 1607.1085168783889
2324.4000741652617 1572.3944509818248
2324.983283106987 1781.0716335819768
2325.5663510330232 1924.5059841801526
2326.1492779749933 1581.4209863976878
2326.7320639645204 1692.4994471363927
2327.3147090332004 2081.8886471418464
2327.897213212629 1568.5384718836438
2328.4795765343843 1856.7190503162033
2329.0617990300307 1440.37949088831
2329.643880731124 1537.6873989644632
2330.22582166921 1635.2001551479154
2330.807621875816 1932.825570786858
2331.3892813824623 1203.8483172949261
2331.9708002206517 1282.9944906477233
2332.5521784218818 2028.1226428017658
2333.133416017634 1737.7962219096257
2333.7145130393765 1446.9099466707444
2334.295469518571 1899.9527105291686
2334.876285486658 2019.7108731469264
2335.456960975076 1962.1872001978452
2336.037496015242 1904.5689327998957
2336.6178906385667 1679.1451137473
2337.198144876451 1711.9466113500716
2337.778258760278 1808.3030125762684
2338.3582323214214 1818.1529006904252
2338.938065591243 1827.980032780984
2339.517758601087 2060.675858823946
2340.0973113822965 1837.1734824901328
2340.676723966193 1583.806438474312
2341.255996384094 1725.2900492711476
2341.835128667295 2074.463934823124
2342.4141208470883 1981.410658751567
2342.992972954751 1737.4933858930096
2343.5716850215467 1682.0385758979432
2344.1502570787306 1084.9687680001157
2344.7286891575386 1548.0376474979391
2345.3069812892045 2029.225641125946
2345.885133504944 1776.8087853737507
2346.4631458359618 1567.4089003791935
2347.04101831345 1355.8800426314676
2347.6187509685915 1572.9123532980102
2348.196343832553 1603.520063760621
2348.7737969364935 1669.079783683565
2349.351110311558 1401.1438769617573
2349.9282839888765 1424.7879328385002
2350.5053179995757 1354.0816549270653
2351.0822123747585 1454.8752727497508
2351.658967145526 1412.2604330101808
2352.2355823429643 1369.6564969984572
2352.812057998144 1799.125204335892
2353.3883941421263 1598.8724733251966
2353.9645908059647 1558.3075852450731
2354.540648020693 1517.719724913347
2355.116565817336 1269.137851457904
2355.6923442269126 1481.3577361416503
2356.2679832804224 1694.0355364112795
2356.8434830088518 1900.9420050705671
2357.41884344318 1417.9706016826124
2357.994064614377 1963.2502189838058
