#exp_cfg={"servo_angle": 0.0, "laser_lim": 100.0, "servo_angle_to": 18.0, "laser_wup": 0.0, "bt_dev": "EnSpectr-25AE3", "laser_wdn_max": 0.0, "frames": 10.0, "servo_used": 0, "servo_calib_use": 0, "laser_wdn_min": 0.0, "servo_pix_from": 90.0, "cooler_tout": 300.0, "servo_angle_from": 0.0, "servo_calib": "[-1.9174921013161362e-09, 3.9322238269163779e-05, -0.27385609119055809, 653.59552119713567]", "laser_autoctl": 0, "servo_pix_to": 3682.0, "laser_pw": 100.0, "cooler_on": 0, "laser_volt": 4.0, "cooler_autoctl": 0, "cooler_curr": 70.0, "cooler_startup": 10.0, "laser_fixed_pw": 0, "gain": 1.3, "offset": 2.53059635486, "servo_calib_degree": 3.0, "laser_curr": 55.0, "shutter": 8200.0, "servo_calib_step": 1.0, "laser_fixed_curr": 0, "exp": 2000.0, "ccd_volt": 4.7, "bt_addr": "00:06:66:62:5A:E3", "servo_delay": 500.0, "laser_autooff": 1}
#proc_cfg={"flat_auto_wnd": 200.0, "flat_auto_fr": 200.0, "flat_auto_shift": 5.0, "yconv": 1, "flatten": 1, "flatten_strength": 100.0, "xfrom": 300.0, "auto_max_frame": 2000.0, "auto_signal": 48000.0, "flat_auto_tol": 0.1, "autoclip": 1, "xrel_range": 0.0, "flat_auto_to": 4000.0, "intensity_adj": 1.0, "xrel": 7852.0, "rmhot": 1, "flat_auto_slit": 4.999999999999997, "auto_ini_exp": 300.0, "auto_off": 0, "xto": 2860.0, "flat_auto_ref": "", "flat_auto_rank": 1, "autobackg": 0, "xrel_adj": 0.0, "auto_black_lvl": 1, "base_wnd": 100.0, "sub_baseline": 0, "xconv": 2, "auto_max_exp": 1000.0, "auto_total_exp": 10000.0, "auto_exp": 0, "rmripple": 0, "black_lvl": 8281.5625, "shutter_clip_adj": 0.0, "auto_bckg": 0, "flat_auto_thr": 0.9, "subbackg": 1}
316.8218498245369 27684.274872747315
317.89969571804795 27352.811210594413
318.977263876126 27373.21049830779
320.05455438786703 27224.065977004775
321.1315673423287 27171.04959378407
322.2083028285215 27219.650398895657
323.2847609354267 27096.43969009249
324.3609417519747 27029.967851422076
325.43684536705587 26946.41191413049
326.5124718695279 26841.787409604487
327.58782134820103 26746.332163100997
328.66289389184385 26840.373438745177
329.7376895891921 26664.25765681579
330.8122085289342 26517.280471004044
331.88645079971866 26591.20962378368
332.9604164901575 26439.576133317947
334.03410568881554 26373.74322937098
335.1075184842266 26585.443123415345
336.18065496487543 26403.77536513966
337.2535152192122 26326.465470183688
338.32609933564163 26317.629973339608
339.39840740253203 26171.617730793656
340.4704395082099 26254.436495484646
341.5421957409617 26113.757019374585
342.6136761890357 26191.320175851262
343.6848809406365 26020.609278516327
344.75581008392874 25997.66732848905
345.82646370703696 25840.675414244244
346.8968418980512 25817.92413951397
347.96694474501055 25938.643317395756
349.0367723359268 25894.007330821452
350.106324758759 25784.132251752275
351.1756021014353 25651.398470244836
352.2446044518383 25546.811046017003
353.31333189781435 25756.94727838786
354.38178452716966 25642.344719882774
355.449962427665 25734.82899004271
356.51786568702846 25480.512366388542
357.58549439294256 25734.024961620024
358.6528486330535 25652.03854204986
359.71992849496564 25520.703834548327
360.7867340662433 25610.054168885756
361.8532654344144 25634.917818593305
362.9195226869597 25656.642412443696
363.9855059113288 25485.17925793077
365.05121519492604 25330.58985943076
366.11665062511565 25536.98337537089
367.1818122892273 25450.035729419757
368.2467002745434 25557.49478066289
369.31131466831175 25481.815845359593
370.375655557742 25481.69636829233
371.4397230299983 25449.389453477776
372.5035171722102 25385.63825091296
373.5670380714637 25360.647919713057
374.6302858148101 25397.3849458702
375.6932604892554 25399.456830329444
376.7559621817709 25395.624312880762
377.81839097928605 25232.846250594623
378.8805469686886 25323.164279225886
379.94243023683157 25409.70042360351
381.0040408705263 25223.102408878956
382.0653789565458 25087.12987830584
383.1264445816196 25248.752941796763
384.1872378324406 25120.889840044627
385.2477587956637 25207.125672842772
386.3080075579037 25076.898309417742
387.3679842057336 24980.20292899065
388.4276888256918 25044.151325387975
389.48712150426945 24943.701745870134
390.54628232792857 24831.354983725523
391.6051713830857 24874.063224416725
392.66378875611736 24827.01895784596
393.7221345333637 24838.065568281174
394.7802088011249 24695.07276602004
395.838011645661 24746.036833403843
396.89554315319765 24586.629181473058
397.9528034099112 24550.942799889785
399.00979250194723 24364.206603266946
400.06651051541485 24415.758423651663
401.1229575363741 24297.220710263533
402.17913365085224 24286.48178614501
403.23503894483656 24366.30726297058
404.2906735042761 24238.73060742551
405.3460374150818 24050.325852854483
406.401130763119 24104.14554626589
407.455953634224 24142.119809134438
408.5105061141876 24044.912322719785
409.56478828876243 23793.66581903245
410.6188002436629 23835.657276040056
411.6725420645689 23834.139625804153
412.72601383711117 23853.297701185675
413.77921564689314 23882.707835460547
414.8321475794728 23679.71855137013
415.88480972036814 23596.504597102394
416.93720215506437 23637.926153378554
417.9893249690049 23487.521664252963
419.04117824759123 23407.897879918582
420.09276207619223 23322.44869273014
421.144076540133 23386.409300070558
422.1951217247042 23352.880675193403
423.24589771515275 23278.654284307388
424.2964045966928 23170.187222312
425.34664245449494 23278.027297492397
426.3966113736933 23154.047305127795
427.4463114393875 23037.93421532156
428.49574273662984 23073.825979270347
429.5449053504417 22932.145910080017
430.5937993658026 23079.892121075165
431.6424248676558 22872.484169652205
432.6907819409007 22901.24755397859
433.73887067040596 22943.67299668175
434.7866911409965 22785.884908851698
435.8342434374608 22888.10335895507
436.88152764455117 22701.479350333884
437.9285438469724 22748.46273761851
438.9752921294057 22596.30129795863
440.02177257648145 22702.83545480117
441.06798527279716 22539.066027275418
442.1139303029122 22759.557940043225
443.1596077513459 22588.312391606836
444.2050177025794 22611.048945358707
445.25016024105753 22589.46701248459
446.2950354511886 22576.242460615154
447.33964341733736 22493.012252486456
448.383984223834 22454.99186344215
449.4280579549686 22265.914817869303
450.471864694995 22430.737221209256
451.5154045281306 22362.62725078069
452.5586775385509 22363.971625471353
453.60168381039693 22148.61029900157
454.64442342776783 22400.147881044762
455.6868964747264 22235.62063723366
456.7291030353008 22186.62616771424
457.77104319347563 22274.7816175757
458.8127170332027 22240.928539919576
459.854124638392 22119.524652283715
460.895266092919 22259.749654092357
461.93614148061897 22319.357208482972
462.97675088529104 22309.34853025606
464.01709439069236 22171.309272772163
465.0571720805492 22179.088829236734
466.0969840385442 22218.105761047183
467.1365303483253 22320.673198820692
468.17581109350067 22123.99295015306
469.2148263576437 22080.23181032204
470.2535762242878 22205.928372747156
471.29206077693016 22307.678789392372
472.33028009902773 22246.755585964365
473.3682342740012 22375.427994007136
474.40592338523857 22338.00296523586
475.4433475160804 22279.901325920982
476.4805067498364 22242.409272884397
477.51740116978 22260.76190052352
478.5540308591426 22422.695241042762
479.59039590112116 22604.995180308288
480.6264963788726 22476.633774202404
481.6623323755193 22676.840771126714
482.6979039741436 22690.496749292102
483.7332112577915 22928.364043722435
484.76825430947247 22991.247436629063
485.80303321215797 23085.532408955973
486.837548048783 23120.711865854748
487.8717989022425 23228.724771645004
488.90578585539697 23150.984853369795
489.9395089910686 23328.372307310234
490.97296839203955 23066.96918622824
492.00616414106116 22942.30955844801
493.0390963208429 22856.790904355636
494.0717650140559 22912.593766170656
495.10417030333883 22724.856981147714
496.1363122712901 22629.91979457545
497.16819100046814 22357.92064357803
498.1998065734024 22269.98925385309
499.2311590725767 22095.925409603584
500.26224858044407 21943.696606535264
501.2930751794156 21824.06026913183
502.3236389518679 21955.91111333157
503.35393998014115 21588.740500947955
504.38397834653733 21670.34910612416
505.4137541333221 21532.74076274573
506.4432674227228 21463.92349453093
507.4725182969323 21268.590060289767
508.5015068381035 21356.825124830415
509.53023312835467 21308.56476234565
510.55869724976765 21288.912542185
511.58689928438434 21053.450711050853
512.6148393142121 21132.831306575034
513.6425174212218 21201.304494718777
514.6699336873462 21093.702842455168
515.6970881944835 21106.303639872378
516.7239810244901 20969.956280839702
517.7506122591931 20979.245094480826
518.7769819803761 20985.444323855165
519.8030902697901 21049.738297126583
520.8289372091476 21016.091016036524
521.8545228801249 21139.80922889794
522.8798473643619 21042.9100704039
523.9049107434621 20952.440769960787
524.9297130989908 21076.13246202596
525.9542545124805 20996.12586396505
526.9785350654201 20869.600854213968
528.0025548392696 20919.243569504655
529.0263139154504 20758.336329910882
530.0498123753423 20879.481657575194
531.073050300296 20779.989416932458
532.0960277716204 20622.17965377186
533.1187448705896 20738.239567898716
534.1412016784416 20641.88141799614
535.1633982763833 20582.11723831806
536.1853347455726 20452.62138920206
537.2070111671401 20478.965026263428
538.2284276221817 20416.29176116109
539.2495841917516 20204.62460598098
540.2704809568677 20190.677188729525
541.2911179985167 20283.100523404082
542.3114953976419 20085.413489708255
543.3316132351592 20085.614103338747
544.3514715919409 19997.35607041364
545.3710705488247 20002.349746336324
546.3904101866156 20003.56813313799
547.4094905860784 19932.760703771455
548.4283118279418 19931.185356765684
549.4468739929034 19884.283273734367
550.4651771616191 19734.06595455627
551.4832214147063 19743.84953024072
552.501006832761 19747.57829016558
553.5185334963226 19695.2108884365
554.5358014859103 19766.57431539859
555.5528108820035 19749.15686560458
556.5695617650363 19595.548192956525
557.5860542154242 19705.89372599367
558.6022883135283 19560.69660608817
559.6182641396881 19501.263917542783
560.6339817741991 19461.338614522487
561.6494412973225 19672.086376670086
562.6646427892883 19615.821388629804
563.6795863302796 19479.61004162998
564.694272000459 19378.611807800175
565.7086998799423 19508.03939610241
566.7228700488104 19446.07713080553
567.7367825871115 19310.299934883555
568.7504375748576 19432.26715572727
569.7638350920224 19389.523364282002
570.7769752185486 19344.23018692999
571.7898580343353 19481.662349084294
572.802483619258 19232.809915127742
573.8148520531431 19583.719721898055
574.8269634157932 19472.833435763227
575.8388177869692 19461.32538445344
576.8504152463938 19383.1646084844
577.8617558737587 19566.77369999002
578.8728397487175 19520.40346269781
579.883666950891 19603.277722639832
580.8942375598654 19639.182517962683
581.9045516551851 19760.55405680463
582.9146093163617 19962.51508107201
583.924410622878 19724.336973044272
584.9339556541727 19652.626303776153
585.9432444896538 19936.847557248777
586.9522772086875 19781.212205691896
587.9610538906127 19824.573590515185
588.9695746147318 19721.317195364165
589.9778394603054 19744.059242645355
590.985848506567 19609.277350460245
591.9936018327098 19564.128939555947
593.0010995178891 19452.277235427548
594.0083416412344 19526.548824551235
595.0153282818283 19264.09132060979
596.0220595187293 19217.801175156936
597.0285354309508 19153.92892185336
598.0347560974806 19167.06010017928
599.0407215972609 19078.150630156622
600.0464320092051 19081.07936730098
601.0518874121954 19059.776885728374
602.0570878850685 19094.383860964906
603.062033506636 19016.054602306853
604.0667243556636 18999.51057055219
605.0711605108936 18804.677395445742
606.0753420510264 19209.33475364427
607.0792690547278 19049.82432716082
608.082941600629 18987.857573447804
609.0863597673306 18975.401665804624
610.0895236333909 19131.825831185583
611.0924332773357 19255.206874070966
612.0950887776617 19281.19683313921
613.0974902128219 19235.138857138085
614.0996376612384 19429.307649212682
615.1015312013005 19495.327297326035
616.1031709113595 19626.37853801744
617.1045568697336 19504.79125610262
618.1056891547069 19795.838257393207
619.1065678445229 19943.990907400883
620.1071930173985 20217.160303385535
621.1075647515099 20190.674031901704
622.1076831250048 20199.628217892066
623.1075482159849 20343.961139400046
624.1071601025305 20552.328292109545
625.1065188626781 20553.201647999573
626.105624574433 20961.03974365811
627.1044773157682 20866.85379222703
628.1030771646128 21007.80968927573
629.1014241988742 21118.89015093901
630.0995184964158 21215.37250205023
631.0973601350688 21215.20088010244
632.0949491926294 21362.595552784063
633.0922857468631 20985.67193836724
634.089369875499 20974.796669739117
635.0862016562278 21062.15919608426
636.0827811667077 20779.799281695523
637.0791084845641 20772.458963991674
638.0751836873878 20519.739828666407
639.0710068527369 20423.5984087616
640.0665780581294 20346.09680862289
641.0618973810506 19968.596339102613
642.0569648989604 20195.27331140542
643.0517806892676 19752.18347172579
644.0463448293649 19789.31505799376
645.040657396592 19426.321874554764
646.0347184682723 19446.31687316521
647.0285281216875 19160.211494220588
648.0220864340772 19058.812725826043
649.0153934826558 18902.35574233332
650.0084493446047 18822.988008219603
651.0012540970674 18702.29196668441
651.9938078171526 18593.664020336248
652.9861105819346 18411.50534822275
653.9781624684565 18541.2240867328
654.9699635537254 18130.5742568746
655.9615139147136 18318.936226369995
656.9528136283589 18128.334915455398
657.9438627715699 18271.04082373567
658.9346614212154 18080.637095175854
659.925209654135 17892.70960074562
660.9155075471263 17933.344648477676
661.9055551769616 17974.952792301392
662.895352620375 18085.06780908742
663.8848999540678 17836.720251418777
664.8741972547068 17696.824497737914
665.863244598926 17751.72159241927
666.8520420633213 17769.76841526025
667.8405897244611 17657.80589162954
668.8288876588758 17491.78501830574
669.8169359430613 17658.080480605506
670.8047346534822 17543.71398024802
671.7922838665672 17482.123131234697
672.7795836587156 17547.302096845495
673.766634106285 17682.564275801094
674.7534352856092 17390.240770440978
675.7399872729766 17384.126322417593
676.7262901446538 17278.780701591113
677.712343976862 17321.08522398152
678.6981488457986 17421.885383272518
679.6837048276229 17271.685689455906
680.6690119984596 17234.621073672046
681.6540704344043 17193.12282198897
682.6388802115107 17047.17014821298
683.6234414058108 17157.546116225054
684.6077540932874 17031.299283032196
685.591818349907 17092.351459622492
686.575634251587 17064.300513554612
687.5592018742263 16940.93537578838
688.5425212936734 16773.857784826163
689.5255925857564 17008.458432476873
690.5084158262707 16882.873053410694
691.4909910909646 16863.70399750473
692.4733184555644 16649.71181480046
693.4553979957618 16878.01311576571
694.4372297872123 16758.379698953893
695.4188139055404 16735.937845233635
696.4001504263324 16527.520718666325
697.3812394251509 16647.385081848886
698.3620809775111 16698.011337383556
699.3426751589104 16604.19495963769
700.3230220448004 16501.281545868747
701.3031217106054 16562.21278814006
702.2829742317172 16709.653551981814
703.2625796834873 16388.96645668585
704.2419381412474 16341.904224814702
705.22104968028 16503.035561054334
706.1999143758458 16414.573523597992
707.178532303169 16450.069714541394
708.1569035374378 16482.635453854586
709.1350281538107 16547.023501364747
710.1129062274158 16552.297931012476
711.0905378333373 16762.845534878386
712.0679230466376 16714.187603832015
713.0450619423427 16816.853341343154
714.0219545954424 16960.511502276808
714.9986010808989 16841.63611465886
715.9750014736292 16976.160917263605
716.9511558485392 17162.20664647384
717.9270642804786 17169.252328914266
718.9027268442787 17200.54080254539
719.8781436147328 17113.79816786784
720.8533146666014 17118.692615285345
721.828240074612 17018.34469689267
722.8029199134635 17045.789949615733
723.7773542578125 16810.864184219863
724.751543182294 16762.232243850274
725.7254867615029 16642.037407877113
726.6991850700015 16540.726302261497
727.6726381823228 16423.87802353815
728.6458461729599 16503.918787362614
729.6188091163858 16411.87087787016
730.5915270870246 16424.759290118946
731.5640001592856 16315.490244043773
732.536228407529 16516.167742950485
733.5082119060917 16335.317789927529
734.4799507292755 16343.284520223417
735.4514449513481 16258.658026453782
736.4226946465496 16371.590501998955
737.3936998890786 16332.56445712315
738.3644607531078 16192.096485819846
739.3349773127793 16082.937195252127
740.3052496421951 16174.289259364727
741.27527781543 15926.459505837172
742.2450619065221 15890.972107906931
743.2146019894826 15862.135041697717
744.183898138288 15869.304076974036
745.1529504268801 15721.434901459497
746.1217589291682 15587.515597283962
747.0903237190341 15545.209370837063
748.058644870318 15648.374694550217
749.0267224568397 15418.99255641011
749.994556552374 15395.264075229596
750.9621472306771 15451.349250114825
751.9294945654583 15388.949767277212
752.8965986304011 15373.791427447668
753.8634594991636 15313.62226498987
754.8300772453586 15231.720183527656
755.7964519425768 15248.079516707465
756.762583664371 15314.895506588586
757.7284724842611 15364.03808607751
758.6941184757416 15126.05024132719
759.6595217122667 15245.384482082616
760.6246822672638 15181.521178936218
761.5896002141235 15001.802754002561
762.5542756262093 15048.960889223858
763.5187085768503 15181.3991084466
764.4828991393406 14990.30876188149
765.4468473869474 15058.094737269017
766.4105533929032 14998.185182138837
767.3740172304078 15089.734037217098
768.3372389726283 15026.72822080529
769.3002186926988 14827.472707660758
770.2629564637282 14811.106691788882
771.2254523587872 14824.11077169916
772.1877064509154 14723.80851390029
773.1497188131179 14609.678061501292
774.1114895183728 14530.21157084516
775.0730186396268 14552.159838440091
776.0343062497905 14446.835684177375
776.9953524217381 14369.87895362767
777.9561572283274 14451.378317260494
778.9167207423689 14453.644704852934
779.8770430366476 14224.554345194836
780.8371241839159 14349.254552040957
781.7969642568951 14275.397485144373
782.7565633282757 14560.13462883106
783.7159214707099 14242.637805799557
784.6750387568281 14298.501858887705
785.6339152592227 14298.32936998902
786.5925510504512 14229.104327639707
787.5509462030477 14256.299390629614
788.5091007895098 14313.219632217846
789.4670148823006 14226.415812177689
790.4246885538596 14252.823239456886
791.3821218765861 14233.024520152292
792.3393149228505 14074.058771567372
793.2962677649975 14192.636758482497
794.2529804753303 14325.490108049193
795.20945312613 14212.113493593986
796.1656857896378 14126.854689051168
797.1216785380675 14134.982535392182
798.0774314435985 14279.628917762439
799.0329445783846 14342.7145917296
799.9882180145414 14334.441021983625
800.9432518241574 14277.261822951501
801.89804607929 14526.737099759051
802.852600851962 14516.958232764839
803.8069162141637 14496.962245230496
804.760992237856 14554.749742456153
805.714828994971 14743.503229294913
806.6684265574077 14668.43483546708
807.6217849970271 14637.49534883617
808.574904385674 14630.464279051095
809.527784795142 14693.89975053173
810.4804262972102 14654.987479383843
811.4328289636178 14431.108140493006
812.3849928660748 14279.296551993737
813.3369180762638 14302.112888063315
814.2886046658241 14207.976303428484
815.2400527063783 14109.30393507058
816.1912622695108 13964.628605392409
817.1422334267718 13958.67784934098
818.0929662496856 13757.207382434008
819.0434608097457 13625.888731034462
819.9937171784059 13577.758672729422
820.9437354271013 13587.22814769817
821.8935156272255 13647.789061300424
822.8430578501484 13406.592360162405
823.7923621672016 13270.618310738613
824.7414286496896 13422.746541417931
825.6902573688876 13340.14579513465
826.6388483960363 13329.96201319295
827.5872018023492 13151.544186585408
828.5353176590033 13288.363641093712
829.4831960371503 13185.888973775038
830.4308370079016 13125.895329293033
831.3782406423525 13202.876172028253
832.3254070115545 13168.268799398658
833.2723361865319 13105.739741016554
834.2190282382799 12977.750211618004
835.1654832377644 13103.061110217264
836.1117012559116 13055.649756989986
837.0576823636256 13104.284302868327
838.003426631778 12916.845389676915
838.9489341312074 12912.294754824028
839.8942049327197 13165.404209147606
840.8392391070975 13093.329072371675
841.7840367250865 13048.687996266402
842.7285978573982 12959.072468658665
843.672922574724 13046.566572053325
844.6170109477152 12969.546818449844
845.560863046996 12910.649887004682
846.5044789431595 12911.165908557387
847.4478587067697 12833.119014221062
848.3910024083561 13016.144148182671
849.333910118421 12890.018885040274
850.2765819074339 12843.746844808587
851.2190178458332 12901.775055594322
852.161218004032 12867.297719068669
853.1031824524016 12816.114237287631
854.0449112612987 12763.867804194326
854.9864045010327 12906.250178394705
855.9276622418947 12661.876896092972
856.8686845541379 12741.295589734402
857.8094715079915 12690.482288743013
858.7500231736467 12945.871849538788
859.690339621271 12805.977442087082
860.6304209209939 12825.796721267216
861.5702671429244 12667.845091592226
862.5098783571284 12776.231704683918
863.4492546336569 12746.778635036277
864.3883960425155 12726.203265205784
865.3273026536863 12656.59156238929
866.2659745371238 12649.688366413091
867.2044117627465 12887.482409779564
868.1426144004472 12753.749059954567
869.0805825200823 12772.319631327116
870.0183161914847 12886.746656513582
870.9558154844526 12984.503659692271
871.8930804687552 12829.345554917922
872.8301112141307 12763.802371431388
873.7669077902865 12889.635074879481
874.7034702669062 13059.250825109066
875.6397987136315 12931.442695749955
876.5758932000863 12942.599043588696
877.5117537958522 13089.684352992803
878.4473805704911 12921.716359249484
879.3827735935283 12962.396980427828
880.3179329344603 13019.954658014223
881.2528586627541 13087.37456870831
882.1875508478479 13092.779491958556
883.1220095591489 12837.11210811167
884.0562348660296 12845.207363330592
884.9902268378391 13004.991965556832
885.9239855438955 12817.270913663728
886.8575110534839 12678.592553692204
887.7908034358588 12759.79456114147
888.7238627602474 12778.043524677607
889.6566890958475 12720.632380293693
890.5892825118208 12533.073327864495
891.5216430773125 12562.690049897112
892.4537708614189 12575.515567517758
893.3856659332196 12394.2881450727
894.3173283617652 12360.25202859199
895.2487582160684 12345.209154559017
896.179955565116 12261.963502969706
897.110920477864 12183.97537110771
898.0416530232451 12208.475600994032
898.9721532701478 12065.706014788371
899.9024212874428 12298.725152411957
900.8324571439662 12085.308580885596
901.7622609085302 12063.362379546703
902.6918326499072 11950.415813841775
903.6211724368477 12127.157583184739
904.5502803380696 12150.077426328873
905.4791564222614 12175.269027994404
906.4078007580792 11964.175028037878
907.3362134141571 11866.282624095784
908.2643944590909 12106.216144139142
909.1923439614493 11894.534992995448
910.1200619897754 11794.764217117727
911.0475486125779 12037.836446663681
911.9748038983344 11869.63141869707
912.9018279155007 11800.890513980554
913.8286207324982 11672.541812830339
914.7551824177117 11899.17585990557
915.6815130395116 11792.227550790594
916.6076126662283 11636.332100618825
917.533481366163 11677.970814457105
918.4591192075914 11747.936948448041
919.3845262587565 11842.153852830848
920.3097025878706 11744.805046621179
921.2346482631237 11690.243108669458
922.1593633526682 11805.709533762682
923.0838479246304 11723.617985146951
924.0081020471061 11841.34412192756
924.9321257881656 11574.534984397995
925.8559192158464 11629.109203330798
926.7794823981512 11586.255568859575
927.7028154030686 11601.846155625208
928.6259182985414 11413.359415887437
929.5487911524906 11653.588618314332
930.4714340328119 11580.04261633885
931.3938470073608 11436.861929760575
932.3160301439748 11504.362370306955
933.2379835104548 11508.03097373356
934.1597071745709 11577.878073177184
935.0812012040769 11544.549504630417
936.002465666681 11478.713249674427
936.9235006300696 11641.00849093733
937.8443061619055 11573.901176191252
938.7648823298077 11346.89781790941
939.6852292013809 11438.24209360572
940.6053468441951 11488.821146674982
941.5252353257874 11287.855146728334
942.4448947136698 11467.81001742907
943.364325075323 11406.564210917111
944.2835264782043 11372.692475047075
945.2024989897309 11305.539188904768
946.1212426773054 11312.730826561026
947.0397576082851 11397.57169459237
947.9580438500125 11638.03129694611
948.8761014697939 11423.61168163915
949.7939305349064 11526.373994452424
950.7115311125999 11343.550924762943
951.6289032700952 11288.617789027572
952.5460470745875 11515.626365050759
953.4629625932339 11358.750782780948
954.3796498931715 11429.373516461059
955.2961090415029 11432.514282620501
956.2123401053068 11342.293441548403
957.1283431516276 11396.557963264688
958.0441182474842 11296.872560270824
958.9596654598663 11508.781635277986
959.8749848557309 11351.381447222013
960.7900765020167 11288.172187777087
961.7049404656209 11207.779067390042
962.6195768134185 11417.148475236736
963.5339856122537 11401.288160595117
964.4481669289453 11437.484754193454
965.3621208302793 11274.493970556845
966.2758473830145 11244.828226394584
967.1893466538822 11511.64070054395
968.1026187095813 11312.219683334606
969.0156636167867 11284.474213258552
969.9284814421426 11485.490073066492
970.8410722522622 11376.151980034798
971.753436113735 11324.556357894126
972.6655730931161 11241.18722770896
973.5774832569368 11458.599828840064
974.4891666716958 11228.984724495396
975.4006234038698 11195.958331654492
976.3118535198955 11151.453486249435
977.2228570861935 11479.420721042412
978.1336341691494 11436.968908811705
979.0441848351202 11236.07851374202
979.9545091504333 11334.493118775119
980.864607181391 11395.92987940934
981.7744789942699 11338.75427992874
982.6841246553086 11271.023492702558
983.5935442307236 11355.942355254409
984.5027377867027 11338.215822371621
985.4117053894024 11270.466091497117
986.3204471049557 11300.718546816988
987.2289629994648 11355.817046562343
988.1372531390007 11370.57306156823
989.0453175896091 11374.619207769078
989.9531564173067 11326.967854875766
990.860769688079 11308.244915586327
991.7681574678918 11325.622569526238
992.6753198226706 11291.510560234035
993.582256818323 11287.012340644947
994.4889685207218 11319.602968179763
995.3954549957143 11543.390828081267
996.301716309119 11509.333348504637
997.2077525267232 11421.301875281946
998.1135637142943 11367.601997006574
999.0191499375615 11483.374963007134
999.924511262232 11397.35852977387
1000.8296477539861 11517.021640288089
1001.7345594784656 11330.835431449235
1002.6392465012996 11391.604901535338
1003.5437088880753 11481.894525391132
1004.4479467043584 11412.514815073002
1005.3519600156869 11219.958202639757
1006.2557488875718 11436.466833048953
1007.1593133854858 11445.843312820905
1008.0626535748888 11212.71416048802
1008.9657695212009 11002.901711202185
1009.8686612898182 11469.946916381155
1010.7713289461135 11296.08482910247
1011.6737725554212 11217.457122294192
1012.5759921830577 11131.166040667413
1013.4779878943027 11190.676338708228
1014.379759754418 11220.20589075621
1015.2813078286254 11134.986222606072
1016.18263218213 11085.011649299076
1017.0837328801026 11112.182952388936
1017.9846099876886 11054.89692969408
1018.8852635700023 10951.68991400278
1019.7856936921362 10869.169480434452
1020.6859004191447 11061.261091151018
1021.5858838160675 10917.111631694199
1022.4856439479063 10878.665386622006
1023.3851808796389 10812.177154827765
1024.2844946762143 11033.066311495293
1025.183585402554 10931.193637896347
1026.082453123554 10688.141395654879
1026.9810979040776 10831.599316407795
1027.8795198089647 10695.197230304784
1028.777718903024 10815.993595091559
1029.6756952510368 10738.670081286864
1030.5734489177648 10688.308799355262
1031.4709799679313 10784.99699177432
1032.3682884662358 10944.718326820666
1033.2653744773506 10627.053508107692
1034.1622380659192 10583.667033056234
1035.058879296559 10764.215353217685
1035.9552982338591 10801.066542555369
1036.8514949423825 10727.981819136905
1037.7474694866614 10767.683835965323
1038.6432219312028 10787.9053272653
1039.5387523404825 10945.59613876483
1040.4340607789582 10789.653848344693
1041.3291473110476 10732.210764581661
1042.2240120011465 10966.339064126767
1043.1186549136273 10909.390242655882
1044.0130761128294 10847.38915453066
1044.9072756630649 10792.318209096902
1045.8012536286205 10969.275561332974
1046.6950100737577 10950.482231308739
1047.588545062701 11040.114112888687
1048.481858659663 10900.023742523083
1049.3749509288118 11131.01924777125
1050.2678219343034 10916.54160170527
1051.1604717402515 10858.973160755912
1052.0529004107575 10839.835757928855
1052.9451080098825 11000.4120271053
1053.8370946016694 10924.078596400306
1054.7288602501267 10949.637375592854
1055.6204050192446 10948.004288240825
1056.511728972977 10937.532566190348
1057.402832175254 10992.428875130285
1058.2937146899785 10760.817210751698
1059.1843765810263 10683.422163346759
1060.0748179122456 10827.409344289354
1060.9650387474576 10812.490914745013
1061.855039150456 10780.367381292628
1062.7448191850071 10800.63433711842
1063.6343789148505 10887.695708852556
1064.5237184037014 10961.804234692147
1065.412837715241 10747.134775633464
1066.3017369131267 10648.618548023336
1067.190416060992 10726.80041800111
1068.0788752224398 10638.917622879871
1068.9671144610438 10590.05934234252
1069.8551338403558 10827.109200833658
1070.7429334239023 10767.740930540376
1071.6305132751695 10536.119805858236
1072.517873457633 10715.013412129365
1073.4050140347335 10543.760628570457
1074.2919350698776 10739.076575973944
1075.1786366264623 10608.348811401782
1076.0651187678395 10653.51640133766
1076.95138155735 10511.202282792576
1077.8374250582929 10512.53857424077
1078.7232493339507 10577.974987280099
1079.608854447577 10546.060761049932
1080.4942404623907 10453.286513236446
1081.3794074415982 10597.94306180257
1082.2643554483657 10546.875377815451
1083.149084545841 10532.782746347031
1084.033594797138 10380.140211964876
1084.9178862653516 10469.487293872084
1085.8019590135427 10625.091139472643
1086.6858131047484 10336.215068065345
1087.5694486019802 10485.040869796956
1088.4528655682225 10461.660841509763
1089.3360640664287 10614.690705142642
1090.2190441595321 10477.427646862609
1091.1018059104317 10484.085528177566
1091.98434938201 10603.172675893426
1092.866674637111 10653.549667588504
1093.748781738559 10475.635098862487
1094.6306707491512 10378.602608331568
1095.5123417316554 10620.340012506887
1096.3937947488157 10429.164887453346
1097.2750298633455 10343.512255951702
1098.156047137938 10310.283408389125
1099.0368466352556 10469.359247769937
1099.9174284179317 10577.081191946196
1100.7977925485757 10370.033383784377
1101.6779390897755 10343.893489861233
1102.5578681040806 10445.423518361258
1103.4375796540226 10464.665016106537
1104.3170738021054 10348.24436037431
1105.1963506108077 10188.291763888667
1106.0754101425773 10259.986164607035
1106.9542524598382 10372.539411350352
1107.8328776249855 10364.7326702179
1108.7112857003904 10288.727958246838
1109.5894767483987 10306.083647197232
1110.4674508313292 10503.929166906386
1111.3452080114657 10346.412767430314
1112.2227483510815 10471.875744622736
1113.1000719124077 10549.174507126114
1113.9771787576592 10731.521463412082
1114.854068949022 10532.309687783894
1115.7307425486542 10687.697733951818
1116.6071996186893 10786.901074665571
1117.483440221229 10921.704048571908
1118.3594644183577 10765.191422367032
1119.235272272128 10810.023329621941
1120.1108638445658 10912.822645575383
1120.9862391976712 11186.401121247256
1121.8613983934229 11024.591986561943
1122.7363414937627 11055.697036233347
1123.6110685606182 11247.609667116965
1124.485579655884 11290.051946021173
1125.359874841426 11196.719523517428
1126.2339541790916 11311.739620452776
1127.1078177306936 11492.252502564046
1127.9814655580267 11211.305511448456
1128.854897722851 11276.272321643777
1129.7281142869106 11269.903835539322
1130.6011153119125 11407.210066415577
1131.473900859548 11500.135518574207
1132.3464709914697 11190.762855325753
1133.2188257693178 11250.830612197298
1134.0909652546961 11135.662125350966
1134.96288950919 11037.043110145187
1135.8345985943506 11176.561255543262
1136.7060925717087 10880.615408584927
1137.57737150277 11068.68052087293
1138.4484354490069 11078.037330169236
1139.3192844718778 10885.127246505934
1140.1899186327992 10696.072200634288
1141.060337993178 10865.542060220914
1141.930542614382 10544.199010569537
1142.8005325577597 10670.76637906584
1143.670307884635 10328.71457292012
1144.5398686563003 10520.23603807451
1145.409214934025 10471.621628444474
1146.2783467790541 10159.687904180826
1147.1472642526023 10298.441718818289
1148.0159674158622 10412.501769175733
1148.8844563300026 10185.7981081836
1149.7527310561618 10125.88424953543
1150.6207916554504 10066.05583476218
1151.4886381889592 9972.422113410148
1152.3562707177498 10134.357499721678
1153.2236893028585 10005.836809616923
1154.090894005296 9969.108672931014
1154.9578848860474 10068.229081621419
1155.8246620060709 10007.461504714442
1156.6912254262988 9839.412362733214
1157.5575752076438 9859.13988898653
1158.42371141098 10028.824845783125
1159.2896340971656 10080.196655456017
1160.1553433270346 9949.331502147057
1161.0208391613887 9942.411056332621
1161.8861216610057 10061.948440841692
1162.75119088664 9941.081451772823
1163.6160468990201 9868.917911655097
1164.4806897588442 9713.31875646646
1165.3451195267917 9964.089636493636
1166.2093362635114 9877.46641693721
1167.0733400296285 9815.577153427581
1167.9371308857444 9693.277014599775
1168.8007088924278 9778.408180002265
1169.6640741102328 9832.67280043643
1170.5272265996773 9703.12507727207
1171.390166421259 9665.151800937701
1172.252893635452 9779.548296947563
1173.1154083026995 9979.661484117252
1173.977710483421 9866.48189410951
1174.8398002380145 9741.160996446415
1175.7016776268483 9848.585328642062
1176.563342710264 9667.469967335828
1177.4247955485826 9631.112940090363
1178.2860362020947 9772.654338825792
1179.147064731069 9614.492131570732
1180.0078811957483 9746.959313879996
1180.8684856563486 9726.44086401926
1181.7288781730604 9692.429247522417
1182.589058806052 9769.75218217961
1183.4490276154593 9903.881460918026
1184.3087846614017 9871.024103383079
1185.1683300039676 9790.97416299761
1186.027663703222 9925.661187703965
1186.8867858192025 9752.567664074642
1187.7456964119228 9907.614468441643
1188.6043955413716 9974.246739959457
1189.4628832675116 10042.066741099405
1190.3211596502842 10125.14346344441
1191.179224749596 10089.94342132367
1192.0370786253388 9968.102962141213
1192.8947213373758 10236.308424273859
1193.7521529455407 10246.943229166736
1194.6093735096438 9982.612139995877
1195.466383089477 10084.716966381495
1196.3231817447977 10104.489814223201
1197.1797695353398 10257.549202809054
1198.0361465208189 10024.031804060536
1198.8923127609214 10117.32430114081
1199.7482683153048 10200.824476465748
1200.6040132436028 10390.783628560766
1201.459547605431 10131.261382528126
1202.3148714603722 10125.785424501399
1203.1699848679855 10143.343563072702
1204.0248878878065 10195.610086785438
1204.8795805793507 9857.061135148657
1205.7340630020935 10108.24653867232
1206.5883352155033 10224.518166023012
1207.4423972790064 10038.270209754617
1208.2962492520237 9946.043997580398
1209.1498911939307 9985.001777227397
1210.0033231640937 9955.233888466479
1210.8565452218427 9970.128534985914
1211.7095574264913 9720.081265771583
1212.5623598373222 9722.242894259278
1213.4149525135963 9632.55326120593
1214.2673355145507 9761.071227813563
1215.1195088993936 9617.897403064315
1215.9714727273113 9556.332772944736
1216.8232270574663 9907.153219612564
1217.6747719489904 9413.41492506366
1218.5261074609934 9528.653717265877
1219.3772336525653 9561.526940573596
1220.2281505827668 9733.508878381008
1221.0788583106296 9681.009722517374
1221.9293568951707 9403.955055550023
1222.7796463953746 9364.176646729271
1223.629726870202 9585.669574912938
1224.4795983785934 9552.14122656525
1225.3292609794553 9463.549350087433
1226.1787147316809 9332.5116154755
1227.0279596941327 9524.631177777159
1227.8769959256424 9382.56046454426
1228.7258234850306 9532.24754558055
1229.5744424310833 9327.055133486203
1230.422852822563 9605.425428011866
1231.2710547182105 9683.520574621882
1232.119048176739 9473.3514660592
1232.9668332568417 9420.747109144597
1233.8144100171812 9625.064926624103
1234.6617785163999 9587.970676062167
1235.508938813111 9344.685361821364
1236.3558909659114 9309.733917249036
1237.2026350333617 9610.97833823156
1238.049171074008 9545.961555348456
1238.8954991463652 9266.4799387802
1239.741619308932 9393.142146894776
1240.587531620169 9225.044303289409
1241.4332361385277 9462.868051542664
1242.2787329224248 9360.275411292267
1243.1240220302534 9271.108957225433
1243.9691035203869 9247.111561932046
1244.813977451171 9513.34060412117
1245.6586438809263 9468.264575385274
1246.5031028679496 9201.230942168022
1247.3473544705157 9516.623231774927
1248.1913987468706 9537.37044494845
1249.0352357552383 9198.04428592302
1249.8788655538228 9281.77261264771
1250.7222882007918 9506.323942099214
1251.565503754302 9404.811363979417
1252.4085122724755 9123.660867437044
1253.2513138134182 9428.430549277666
1254.0939084352049 9388.086253008963
1254.9362961958905 9362.878657314937
1255.7784771535007 9392.344368213253
1256.6204513660432 9498.354816530325
1257.4622188915 9615.54792263868
1258.3037797878242 9283.416756436713
1259.1451341129468 9297.818017485264
1259.9862819247755 9414.919137796933
1260.8272232811978 9405.88386539741
1261.6679582400666 9627.081121660161
1262.5084868592203 9216.299596953311
1263.34880919647 9354.588408189094
1264.1889253095997 9494.386737744608
1265.0288352563712 9514.467686731085
1265.8685390945266 9298.223340916169
1266.7080368817751 9362.920312326587
1267.5473286758115 9589.975620083569
1268.386414534294 9524.456911021394
1269.2252945148703 9193.663061647638
1270.0639686751547 9294.029308380934
1270.9024370727402 9390.60887562398
1271.7406997651997 9303.208819944233
1272.5787568100714 9282.075902667088
1273.4166082648808 9187.420748132705
1274.2542541871244 9364.743766392687
1275.091694634275 9499.256895508697
1275.9289296637817 9156.459746758575
1276.7659593330663 9412.509018026092
1277.6027836995308 9295.295754905468
1278.4394028205552 9559.155740429613
1279.2758167534867 9398.351994945122
1280.112025555658 9294.708101668324
1280.9480292843746 9382.911102884947
1281.7838279969128 9160.801196194101
1282.6194217505326 9271.302804481613
1283.4548106024686 9101.707711049698
1284.289994609926 9274.755978846486
1285.1249738300921 9478.949210671231
1285.959748320127 9208.849799400046
1286.7943181371702 9292.534554455726
1287.6286833383328 9390.20683708548
1288.4628439807038 9403.947791553517
1289.2968001213521 9220.750679275485
1290.1305518173194 9303.393240273243
1290.9640991256183 9453.80008082884
1291.7974421032523 9284.475358317093
1292.630580807183 9302.072394410417
1293.463515294361 9438.225709241593
1294.29624562171 9537.110973555431
1295.12877184613 9306.712842254039
1295.961094024493 9280.234568941769
1296.79321221365 9319.894608639672
1297.6251264704333 9526.7866279823
1298.4568368516466 9755.325659913718
1299.2883434140658 9537.916960622439
1300.1196462144526 9354.352187726568
1300.9507453095375 9545.788173251864
1301.7816407560313 9587.10762490624
1302.6123326106172 9491.792313894002
1303.4428209299622 9442.618477454256
1304.2731057707024 9725.193673576732
1305.1031871894502 9565.351041221133
1305.933065242798 9665.6972688546
1306.7627399873181 9477.756781477052
1307.5922114795467 9947.98555704161
1308.4214797760123 9998.863986624678
1309.2505449332057 9652.25965984613
1310.0794070076026 9654.322180850202
1310.9080660556538 9877.428700391516
1311.736522133786 9939.387641364567
1312.5647752983987 9668.956955692069
1313.3928256058734 9409.99919461896
1314.2206731125661 9781.241334618204
1315.048317874809 9756.035926885614
1315.8757599489109 9732.341547320637
1316.7029993911547 9665.759133235566
1317.5300362578055 9838.939815191343
1318.356870605101 9546.714520367443
1319.183502489257 9627.310586857979
1320.0099319664623 9636.37150650378
1320.836159092889 9835.109702866062
1321.66218392468 9790.68964385384
1322.4880065179532 9488.32162082552
1323.3136269288134 9642.10077426683
1324.1390452133292 9868.036616811563
1324.9642614275563 9915.476110553003
1325.7892756275214 9606.095663528227
1326.6140878692295 9604.320335291204
1327.4386982086617 10020.526833041153
1328.2631067017755 9667.75174284002
1329.0873134045069 9827.917218931883
1329.911318372764 9623.744963804558
1330.735121662441 9631.123326609157
1331.558723329399 9558.706645779486
1332.3821234294774 9522.715571461542
1333.2053220185007 9535.16194470683
1334.0283191522612 9508.532458114983
1334.851114886529 9648.199795040198
1335.6737092770582 9363.428670646643
1336.4961023795695 9476.776025595667
1337.3182942497697 9495.412067670346
1338.1402849433325 9486.032067012015
1338.962074515921 9396.067193877167
1339.7836630231632 9172.189896437816
1340.6050505206676 9761.491673731463
1341.426237064028 9512.516802408558
1342.2472227088037 9436.236921821193
1343.0680075105338 9222.331561450686
1343.888591524741 9358.325950745348
1344.7089748069138 9608.930823806364
1345.5291574125276 9319.459306800502
1346.3491393970307 9151.37914665026
1347.168920815846 9563.206836241041
1347.9885017243778 9576.718039989531
1348.8078821780036 9315.192930494948
1349.6270622320844 9298.121376148332
1350.4460419419447 9160.151756411073
1351.2648213629054 9356.298651659039
1352.0834005502438 9273.312679137855
1352.90177955923 9087.014619517444
1353.7199584451064 9456.008939544537
1354.5379372630887 9331.575090662618
1355.355716068374 9248.009264594602
1356.1732949161305 9040.611230763017
1356.9906738615155 9300.314125090048
1357.8078529596478 9239.99757362108
1358.6248322656375 9347.774006115227
1359.441611834567 9095.219963792064
1360.2581917214866 9348.07932810204
1361.0745719814367 9057.9382523122
1361.890752669433 9060.596773931748
1362.7067338404577 8966.627668755315
1363.5225155494845 9269.654647611793
1364.3380978514506 9340.53870846828
1365.1534808012839 8894.186807418297
1365.9686644538815 8754.24669334275
1366.783648864117 9184.762896393539
1367.5984340868417 9299.295048046048
1368.413020176893 9202.068028862743
1369.2274071890715 8823.53044037759
1370.0415951781652 9109.180860599085
1370.8555841989346 8940.852276779999
1371.6693743061223 9030.978463587035
1372.48296555444 8748.348749121578
1373.2963579985844 9070.679598956685
1374.1095516932255 8984.617843199247
1374.9225466930166 8679.868596951032
1375.7353430525782 8900.797233040757
1376.5479408265164 8819.4505272072
1377.36034006941 8970.930805673324
1378.1725408358216 9028.61635025242
1378.9845431802805 8630.86572080513
1379.796347157304 9221.300268255269
1380.6079528213813 8962.899202188037
1381.4193602269788 8678.996311253793
1382.230569428546 8685.211135743095
1383.0415804805016 9059.304044238863
1383.852393437246 8931.02725600703
1384.6630083531563 8869.72288525527
1385.4734252825892 8716.412223303161
1386.2836442798798 8785.902613861606
1387.0936653993322 8710.645481735495
1387.9034886952395 8705.096297854816
1388.713114221864 8801.091708678066
1389.5225420334482 8774.218881769917
1390.331772184214 8632.366527965807
1391.1408047283585 8475.696107735914
1391.9496397200564 8521.544580912765
1392.758277213461 8691.966815438558
1393.5667172627054 8817.57788721649
1394.3749599218918 8555.358920228882
1395.1830052451114 8417.03802557855
1395.9908532864265 8519.001416526986
1396.7985040998774 8763.681201552776
1397.6059577394808 8485.534934786821
1398.4132142592352 8543.23277643522
1399.2202737131156 8462.064150909919
1400.027136155073 8758.611341032758
1400.8338016390353 8528.89996683788
1401.6402702189134 8462.865067360062
1402.446541948586 8571.218650038418
1403.2526168819204 8385.889609178315
1404.058495072757 8311.366598553015
1404.8641765749107 8390.645495101995
1405.6696614421799 8480.728226051006
1406.4749497283356 8772.088857763276
1407.280041487129 8379.80488173167
1408.084936772295 8123.541786709985
1408.8896356375335 8502.738442243386
1409.6941381365323 8344.209214125189
1410.498444322955 8108.742893228642
1411.3025542504402 8276.328964123355
1412.106467972606 8323.739499272484
1412.9101855430508 8261.080706809656
1413.7137070153458 8039.043188527185
1414.5170324430437 8148.354113224923
1415.320161879672 8265.475410460329
1416.1230953787435 8356.121390178361
1416.925832993742 8044.9167360953115
1417.7283747781275 7862.033200714994
1418.5307207853439 8153.969599641407
1419.3328710688093 8087.8234795648705
1420.134825681922 7843.402776966914
1420.9365846780584 7909.765170273077
1421.7381481105713 8252.929069481976
1422.539516032788 8072.534605704437
1423.3406884980232 7795.994049000784
1424.1416655595604 7856.354259189788
1424.942447270665 7885.189998909984
1425.7430336845828 8096.419640461211
1426.5434248545298 7780.317231991996
1427.3436208337116 7945.729509354858
1428.143621675301 8081.694145332389
1428.9434274324558 8135.524271859571
1429.7430381583108 7824.437698044271
1430.5424539059713 7998.2809980264165
1431.3416747285337 8378.251429351314
1432.1407006790632 8017.154030055618
1432.9395318106053 7990.331008148661
1433.7381681761835 7730.5546473465265
1434.5366098288014 8008.940217664592
1435.3348568214424 8085.972903387747
1436.1329092070573 7918.064566504535
1436.9307670385879 7867.951548645213
1437.7284303689503 8173.458798923062
1438.5258992510335 8156.413063404373
1439.3231737377118 8049.910356161863
1440.1202538818306 7850.3001799195135
1440.9171397362225 7879.271796734855
1441.7138313536925 7968.360618806308
1442.5103287870243 7846.301700395268
1443.3066320889775 7774.204414557654
1444.1027413122956 7999.521655021051
1444.8986565096966 7923.0552134445825
1445.694377733882 7805.41979394206
1446.4899050375207 7638.99914452215
1447.2852384732687 7800.602214075647
1448.0803780937622 7900.074275202828
1448.8753239516063 7617.703816982709
1449.6700760993954 7648.055167670396
1450.464634589689 7708.150498709167
1451.2589994750397 8034.904961861977
1452.0531708079689 7644.779252263029
1452.8471486409799 7625.544384194754
1453.6409330265524 8031.144276972173
1454.4345240171442 7657.79316676179
1455.2279216651987 7694.405787102054
1456.0211260231263 7752.5192490259315
1456.8141371433194 7756.378873162268
1457.6069550781594 7893.032170264089
1458.3995798799897 7525.494261510592
1459.1920116011424 7643.197483356283
1459.98425029393 7512.503739840635
1460.7762960106338 7554.139323936988
1461.5681488035225 7643.984721360352
1462.3598087248392 7676.15345749225
1463.1512758268036 7912.656100506312
1463.942550161617 7581.692624133801
1464.7336317814625 7438.618887872863
1465.524520738496 7576.069906624209
1466.3152170848552 7459.677802792804
1467.1057208726506 7527.762760833609
1467.8960321539817 7442.018118155999
1468.6861509809169 7317.867095411098
1469.4760774055085 7487.704982219632
1470.265811479785 7523.766570004658
1471.055353255755 7265.909656416169
1471.844702785409 7363.5002439025675
1472.6338601207044 7268.783496345927
1473.4228253135934 7633.681311426786
1474.2115984159936 7327.107950635672
1475.0001794798063 7089.429941128323
1475.7885685569145 7392.775352472514
1476.576765699172 7449.2306060443225
1477.3647709584238 7213.90647313163
1478.1525843864802 7536.059426660325
1478.9402060351367 7405.00161486354
1479.7276359561693 7432.034750801179
1480.514874201328 7330.601567991216
1481.3019208223468 7219.244776457216
1482.0887758709323 6974.055287676009
1482.8754393987747 7390.015949567298
1483.6619114575406 7068.964882666379
1484.4481920988783 7215.802640812626
1485.2342813744108 7257.630460214369
1486.0201793357446 7519.502948750553
1486.8058860344572 7075.358185460611
1487.591401522117 7161.109541371587
1488.3767258502594 7202.606834343149
1489.1618590704056 7235.924640544961
1489.9468012340494 6805.775003487031
1490.7315523926754 7216.505031040457
1491.5161125977356 7403.330648132532
1492.3004819006637 7246.654727186093
1493.084660352877 7148.016206319067
1493.8686480057622 7322.7961158286325
1494.6524449106964 7435.649398519125
1495.4360511190262 7454.266291858306
1496.219466682087 7309.266161886922
1497.0026916511779 7241.167541783621
1497.7857260775945 7287.7872435718145
1498.5685700125996 7422.985035609061
1499.3512235074395 7033.982686735605
1500.133686613337 6971.612550468783
1500.9159593814966 7159.8186886193125
1501.698041863101 7634.525106536074
1502.4799341093094 6991.004259498848
1503.2616361712662 6883.82058466652
1504.043148100087 7272.769363853409
1504.8244699468742 7298.254362535765
1505.6056017626997 7003.329521276859
1506.3865435986281 6958.352549754165
1507.1672955056893 7258.681405800615
1507.9478575348967 7055.515016426136
1508.7282297372512 7280.557613050832
1509.5084121637192 7134.850670951773
1510.2884048652577 7144.124371871816
1511.0682078927948 7046.628462127161
1511.8478212972423 6956.708714973434
1512.6272451294917 7037.068695607096
1513.4064794404076 7130.137901119329
1514.1855242808433 7245.793384448085
1514.9643797016215 7124.041920469102
1515.743045753552 7151.720948635372
1516.5215224874191 7222.160216515568
1517.2998099539836 6853.485901385002
1518.077908203999 7007.516513882282
1518.8558172881785 7036.104913806043
1519.633537257234 7185.9748693029205
1520.4110681618404 7111.882836000669
1521.1884100526604 7154.629148414089
1521.9655629803365 6994.649683216153
1522.7425269954856 7253.446656800863
1523.5193021487103 7545.620387535404
1524.2958884905856 6860.909872919741
1525.0722860716687 7034.001031657033
1525.848494942502 6907.810381868918
1526.624515153595 7090.153589635675
1527.4003467554485 7062.547761821127
1528.175989798534 7190.4150538993945
1528.9514443333064 7114.123209748051
1529.726710410203 7392.276141246757
1530.5017880796331 6890.757694232791
1531.276677391992 7051.7954110423
1532.0513783976457 7310.372072256415
1532.825891146953 7030.831354199587
1533.6002156902414 7115.8241331879235
1534.3743520778207 7095.172014994229
1535.1483003599806 7096.169479376442
1535.9220605869923 7153.6531379193575
1536.6956328091019 7145.278338957492
1537.4690170765407 7074.122142986189
1538.242213439511 7237.027105676838
1539.015221948208 7035.036690806666
1539.78804265279 7026.651297444847
1540.560675603405 6828.670951400478
1541.3331208501804 7278.9229335545115
1542.1053784432224 7185.393141909379
1542.8774484326168 7042.750679532811
1543.649330868422 7053.604102285154
1544.4210258006842 7165.429431430169
1545.1925332794308 7023.541838226547
1545.9638533546604 7041.76077116942
1546.7349860763552 6923.617848125791
1547.5059314944829 7325.741922967769
1548.27668965898 7049.515528876325
1549.0472606197673 7094.550673562585
1549.817644426752 6956.49038661972
1550.5878411298072 7128.979154666786
1551.3578507787988 7107.366224586246
1552.1276734235635 6894.345264125552
1552.8973091139233 7116.118770027383
1553.6667578996767 7205.300713474552
1554.436019830604 7046.64093611174
1555.20509495646 6919.746342025323
1555.9739833269869 6835.9338313298485
1556.7426849919011 6947.031705959174
1557.511200000903 7247.690282655795
1558.2795284036674 7016.799604817817
1559.0476702498509 6879.144473860867
1559.8156255890954 7305.158766435221
1560.5833944710157 7403.197200145683
1561.3509769452048 6839.419987891495
1562.1183730612447 6889.412345655624
1562.8855828686865 6880.300397090919
1563.6526064170703 7246.797916069026
1564.4194437559127 7038.188125477578
1565.1860949347047 6819.789241365249
1565.9525600029283 7274.924816789891
1566.7188390100328 7203.881430865884
1567.4849320054564 6883.329733834138
1568.250839038612 6864.1683246951625
1569.0165601588997 6898.403826030482
1569.7820954156887 6929.687769183345
1570.5474448583373 6908.606603645363
1571.31260853618 6819.110899849475
1572.0775864985299 6582.755052521439
1572.8423787946813 6817.358992869036
1573.6069854739108 6851.648133234495
1574.371406585471 6871.690733297823
1575.1356421785986 6994.413292545461
1575.899692302506 6725.336553932971
1576.6635570063845 6852.24966572382
1577.4272363394157 6743.6867858119995
1578.190730350747 6689.073063284054
1578.9540390895163 6849.352746279564
1579.7171626048384 6457.1263102788635
1580.480100945806 6532.770188078472
1581.2428541614918 6576.559815449742
1582.0054223009538 6649.557160808539
1582.767805413223 6595.8066647499045
1583.5300035473156 6671.919333009677
1584.292016752228 6886.1918505320955
1585.0538450769309 6642.385268494325
1585.8154885703807 6515.995708055785
1586.5769472815136 6378.978428492772
1587.3382212592405 6707.919303347868
1588.099310552463 6840.661229858779
1588.8602152100484 6681.658777647685
1589.6209352808564 6719.500757286497
1590.3814708137234 6555.059901100959
1591.14182185746 6796.751068385133
1591.9019884608679 6555.099725803799
1592.6619706727215 6247.893738621768
1593.4217685417734 6508.140863975239
1594.1813821167616 6783.1405755815185
1594.9408114464022 6303.789501197996
1595.7000565793933 6435.025481005656
1596.459117564409 6488.503980211821
1597.2179944501113 6265.217037435677
1597.9766872851324 6391.66362007956
1598.735196118092 6589.360916022977
1599.4935209975883 6586.381244947453
1600.2516619721973 6571.840816332175
1601.0096190904787 6394.388229190009
1601.7673924009723 6423.253194962585
1602.524981952196 6271.386317812209
1603.2823877926476 6395.725733109886
1604.0396099708087 6233.721030350939
1604.7966485351371 6092.434824903767
1605.5535035340745 6291.250618679146
1606.3101750160404 6525.426489058653
1607.0666630294363 6243.831393782155
1607.822967622642 5931.011332447968
1608.5790888440224 6263.097792669632
1609.3350267419137 6318.499649806494
1610.0907813646445 6179.632007352742
1610.8463527605145 6114.533843400967
1611.601740977805 6300.093528627645
1612.356946064785 6070.457638579393
1613.1119680696902 5931.06829483914
1613.8668070407512 6060.97610289537
1614.6214630261748 6059.709718828335
1615.375936074137 6234.122986376301
1616.1302262328118 6012.209267836481
1616.8843335503425 6148.225638720737
1617.638258074854 5920.391203348397
1618.391999854457 6001.728617171923
1619.1455589372363 6187.908899436363
1619.8989353712623 6055.493486287432
1620.65212920458 5728.059437773038
1621.4051404852235 5902.55470801982
1622.1579692611976 5862.185023215877
1622.9106155804966 5592.30827386872
1623.663079491087 5838.067217010996
1624.4153610409248 5972.002596308173
1625.1674602779385 5763.566245879
1625.9193772500403 5740.990541024138
1626.6711120051277 6070.318149227971
1627.4226645910676 5888.925750498866
1628.174035055721 5657.081732363438
1628.9252234469168 5953.851999727654
1629.676229812474 5811.7825752333865
1630.4270542001905 6162.895931259421
1631.1776966578382 5804.382241920909
1631.9281572331747 5833.752069202767
1632.678435973945 6043.71456566784
1633.4285329278573 5822.220020110179
1634.1784481426203 5631.190336927536
1634.9281816659113 5882.771273675646
1635.677733545388 5927.383474846228
1636.4271038286934 5658.150957023698
1637.176292563452 5807.945950813012
1637.9252997972635 5794.217596162414
1638.674125577716 5905.324240648703
1639.4227699523672 6127.9745862482305
1640.171232968767 5430.870603788577
1640.9195146744423 5797.999730212159
1641.6676151168977 5881.447437039072
1642.4155343436178 5867.116113828941
1643.1632724020765 5720.820183898231
1643.9108293397167 5665.928941025242
1644.658205203974 5636.501833579557
1645.4054000422566 6225.507748023462
1646.1524139019566 5600.0167443135815
1646.8992468304423 5516.681341093873
1647.6458988750728 5590.562979564218
1648.3923700831765 5648.737341439764
1649.1386605020743 5616.785264782638
1649.8847701790564 5692.382898391064
1650.6306991614038 5663.471053643756
1651.3764474963682 5765.85331683561
1652.1220152311944 5262.750063557465
1652.867402413096 5595.252472521796
1653.6126090892776 5681.548100181918
1654.3576353069184 5829.975594343059
1655.1024811131829 5626.340084138407
1655.8471465552066 5375.875748015116
1656.5916316801213 5752.178390216556
1657.3359365350298 5570.2939897896895
1658.0800611670165 5449.847145389225
1658.824005623148 5585.386165452921
1659.5677699504722 5344.206770326769
1660.3113541960192 5590.4786296193615
1661.054758406799 5470.996502038027
1661.7979826297997 5256.874380750303
1662.5410269119966 5298.900600402618
1663.283891300338 5498.621622830682
1664.0265758417645 5361.982493734815
1664.7690805831826 5538.334084265631
1665.5114055714948 5582.506569915612
1666.2535508535748 5781.397025444252
1666.9955164762814 5083.260368125053
1667.7373024864555 5366.299798533796
1668.478908930916 5510.976699125841
1669.220335856462 5234.336275830219
1669.9615833098778 5202.939894657255
1670.7026513379296 5128.003895267224
1671.44353998736 5351.8586810528195
1672.1842493048916 5302.0943372840375
1672.9247793372379 5239.080619981365
1673.6651301310812 5387.537581474759
1674.4053017330934 5241.934746608874
1675.1452941899242 5362.221721312261
1675.885107548207 4739.767033501125
1676.6247418545518 4813.411359492492
1677.3641971555535 5046.877520648218
1678.1034734977893 5284.772597378232
1678.8425709278108 5124.913313778347
1679.5814894921605 5308.6167994409625
1680.320229237359 5230.497143189636
1681.0587902098978 5291.59992729861
1681.7971724562685 4967.376494157236
1682.5353760229264 4864.546811204126
1683.2734009563173 5192.697405486182
1684.0112473028657 4832.319297362249
1684.7489151089794 5108.990630671758
1685.4864044210462 5194.016234043926
1686.2237152854377 4638.9476769830835
1686.960847748498 5123.570039623979
1687.6978018565642 4827.311200082942
1688.434577655944 4789.480461636789
1689.1711751929379 4780.040770887424
1689.9075945138156 4930.375739994721
1690.6438356648396 4739.449198272645
1691.3798986922448 4408.415137719225
1692.1157836422499 4760.102549070905
1692.851490561059 4602.112744966076
1693.587019494853 4727.8260066933835
1694.3223704897991 4474.77333931594
1695.0575435920364 4424.749997634536
1695.792538847696 5016.31801859698
1696.527356302886 4612.546880134714
1697.2619960036936 4470.005991444994
1697.9964579961907 4420.261485381323
1698.730742326432 4102.0468160297005
1699.4648490404488 4378.011852284631
1700.1987781842563 4490.297990639385
1700.9325298038548 4657.0418847486
1701.6661039452174 4853.404232894772
1702.3995006543082 4588.624092958324
1703.1327199770658 4639.4169984055225
1703.865761959416 4404.674606139393
1704.598626647261 4752.206102519817
1705.3313140864866 4330.002495386894
1706.0638243229587 4383.082028137774
1706.7961574025303 4510.056323950988
1707.528313371029 4474.134808399768
1708.260292274268 4141.840046561854
1708.9920941580403 4328.309103926295
1709.7237190681226 4452.61021335844
1710.4551670502697 4335.515843433819
1711.18643815022 4061.8276450049125
1711.9175324136959 4742.749989164252
1712.6484498863938 4334.085005919777
1713.379190614005 4109.858299054731
1714.109754642188 4243.41382281404
1714.8401420165883 4234.870688453887
1715.570352782839 4860.087790790369
1716.3003869865497 4389.65227035817
1717.0302446733076 4141.90587393032
1717.7599258886876 4260.467714148177
1718.4894306782444 4636.595245348821
1719.2187590875183 4161.121085198712
1719.9479111620203 4462.913181090431
1720.6768869472544 4114.332343072917
1721.4056864887025 4580.598487194104
1722.1343098318284 4604.047146815754
1722.8627570220742 4267.522539394424
1723.591028104871 4076.0086316156157
1724.3191231256242 4042.575466235613
1725.0470421297232 4077.281417804415
1725.7747851625427 4433.0398235717485
1726.5023522694337 4298.007983241973
1727.2297434957363 4246.882953443446
1727.9569588867635 3870.650918061884
1728.6839984878152 4386.106617509988
1729.4108623441734 3830.921050110831
1730.1375505011038 4239.549040383228
1730.8640630038426 4085.6669101913917
1731.5903998976264 3994.8790876641397
1732.316561227657 4229.198292589297
1733.0425470391274 3952.0964583963896
1733.7683573772065 4163.987985874594
1734.4939922870508 4071.7691611930363
1735.2194518137949 4160.999083426255
1735.9447360025606 4131.415656366168
1736.669844898439 4153.296533208355
1737.3947785465189 3924.627050209497
1738.1195369918605 3901.384202123023
1738.8441202795093 4118.542142778801
1739.5685284544943 4105.48301277474
1740.292761561821 4317.17323392278
1741.0168196464838 4179.695170795616
1741.7407027534518 4183.732116242123
1742.464410927687 4327.351759613655
1743.187944214118 4037.76392095751
1743.9113026576688 3998.310486203935
1744.634486303241 4025.140617397755
1745.3574951957125 4151.497093322259
1746.0803293799509 4233.701748591738
1746.8029889008048 3989.6261990349312
1747.5254738031017 4123.108276989738
1748.2477841316504 3872.4925544858183
1748.969919931249 3993.0693393902866
1749.6918812466665 3906.57233913829
1750.4136681226646 4207.833118420702
1751.1352806039777 4005.1877353279133
1751.856718735331 3712.239070323799
1752.5779825614281 3774.543778896571
1753.2990721269507 4088.286545525333
1754.0199874765676 4031.4421263894933
1754.7407286549314 3697.7223704778685
1755.4612957066693 3908.4332569120916
1756.1816886763954 3904.4596641876765
1756.9019076087097 4039.9485180172896
1757.6219525481865 4050.0231476090485
1758.3418235393856 4063.548287555835
1759.061520626854 3908.342254520468
1759.7810438551096 4084.1485394763913
1760.5003932686614 3732.4552823997883
1761.2195689119999 4102.7383920837765
1761.938570829594 3990.1911670803797
1762.657399065898 4021.4277473417046
1763.376053665348 3697.1280596882148
1764.0945346723602 3753.161595543594
1764.812842131334 4149.414291733026
1765.5309760866512 3725.3784358684084
1766.2489365826787 3749.2319466505205
1766.9667236637597 3932.6520868473804
1767.684337374223 3526.768422251527
1768.401777758383 3707.483390534328
1769.1190448605284 3742.336459200703
1769.836138724937 3717.9713496060176
1770.5530593958665 3944.239624178884
1771.2698069175603 4167.84804958051
1771.9863813342326 3925.3135157171428
1772.702782690094 3721.841927749471
1773.4190110293293 3969.313196647726
1774.1350663961111 3965.792120259236
1774.8509488345844 3693.0248473512424
1775.5666583888924 3881.868575782047
1776.2821951031437 4063.5969904708245
1776.9975590214362 3740.9390311030393
1777.7127501878585 4107.6182323057865
1778.4277686464684 3991.3191087977784
1779.1426144413108 4028.1411731550643
1779.8572876164162 4056.45593242632
1780.571788215797 3663.602462887416
1781.2861162834415 3893.7602797200284
1782.0002718633277 3678.8442571874716
1782.7142549994132 3922.437287007769
1783.4280657356376 3818.998583455076
1784.141704115922 3659.472656142756
1784.855170184177 3723.8525064423725
1785.5684639842839 3820.4067371507713
1786.2815855601148 3429.399454485937
1786.9945349555237 3824.2631515135736
1787.707312214343 3645.7530365674297
1788.4199173803918 4142.2550939061775
1789.132350497468 3613.9149735897254
1789.8446116093583 3658.110540761797
1790.556700759822 3584.8074812283776
1791.2686179926077 3684.8068332418507
1791.9803633514493 3715.0386582791716
1792.6919368800554 3511.2390926906673
1793.4033386221236 3828.6077205370907
1794.1145686213295 3786.1432505155863
1794.8256269213307 3910.4258595158703
1795.536513565774 3802.322575889374
1796.247228598284 3405.380999105335
1796.9577720624693 3593.5832350743394
1797.6681440019165 3666.2816495183856
1798.3783444602013 3606.6100131718886
1799.0883734808776 3791.978172005559
1799.7982311074884 3813.518352920767
1800.5079173835475 3876.094275759323
1801.2174323525633 3841.973595605896
1801.9267760580187 3714.261507921516
1802.635948543386 3744.0373810788237
1803.3449498521113 3636.4538400187544
1804.0537800276325 3699.9395077105064
1804.7624391133668 3659.995521613832
1805.47092715271 3407.9501553841887
1806.1792441890484 3499.7054266174464
1806.8873902657433 3754.274167052198
1807.5953654261448 3705.448252838538
1808.3031697135812 3645.806313836404
1809.0108031713662 3557.8014172367416
1809.71826584279 3700.8715341525444
1810.425557771141 3625.8868670316174
1811.1326789996747 4183.683140380124
1811.839629571632 3500.892772146339
1812.5464095302468 3594.3579328818114
1813.2530189187182 3576.80131844622
1813.959457780249 3575.819285921663
1814.6657261580076 3751.7992725915465
1815.371824095153 3612.20817895282
1816.0777516348262 3824.386144961558
1816.78350882015 3196.637174618931
1817.4890956942272 3347.9856195400353
1818.1945123001533 3527.217521608284
1818.8997586809928 3554.307300575902
1819.6048348798067 3501.0035931388347
1820.3097409396287 3603.5022236679497
1821.0144769034796 4012.119411298816
1821.7190428143622 3674.100398805902
1822.423438715261 3824.1440826446465
1823.1276646491478 3513.0613342366146
1823.8317206589727 3624.963045362308
1824.5356067876692 3545.2224575861633
1825.2393230781581 3556.1185008511443
1825.942869573335 3364.3913040673638
1826.646246316086 3371.8408306296433
1827.3494533492758 3615.6243525298946
1828.052490715756 3628.2695561057144
1828.7553584583547 3576.2235774481424
1829.458056619891 3695.099238416299
1830.1605852431585 3449.6474090250813
1830.8629443709433 3371.770198141921
1831.5651340460063 3511.3769852519654
1832.2671543110919 3302.3171984131986
1832.9690052089318 3590.019538329091
1833.6706867822395 3271.5329991429044
1834.3721990737104 3700.3539379771382
1835.0735421260233 3707.6986626375337
1835.774715981841 3521.939339166992
1836.4757206838058 3723.6929682171926
1837.1765562745459 3436.600160891241
1837.8772227966747 3382.4625265549416
1838.5777202927839 3469.6243774378427
1839.2780488054523 3402.6244663902544
1839.9782083772352 3352.915140498724
1840.6781990506806 3845.332463757146
1841.378020868313 3470.1670784352464
1842.0776738726418 3585.4784277085173
1842.777158106157 3324.3183572330445
1843.4764736113375 3243.3420815190416
1844.1756204306403 3577.002242854344
1844.8745986065078 3474.7597380300017
1845.5734081813607 3242.826323957508
1846.2720491976124 3367.3607741706765
1846.970521697649 3265.032473699974
1847.6688257238511 3583.3049062188866
1848.3669613185684 3440.2874259636674
1849.0649285241452 3192.1726529228226
1849.7627273829057 3450.0161588881774
1850.460357937156 3498.4695909612783
1851.1578202291857 3067.670275496196
1851.8551143012664 3407.6311900712126
1852.5522401956569 3482.9805102537553
1853.2491979545957 3649.467497712033
1853.9459876203055 3246.5550609963866
1854.6426092349902 3293.675898509688
1855.3390628408451 3394.742463066085
1856.0353484800362 3692.1071658411374
1856.7314661947203 3496.279952763222
1857.4274160270397 3240.644001873892
1858.123198019115 3309.796757391288
1858.8188122130487 3224.146736741056
1859.5142586509319 3318.4885838828604
1860.209537374838 3299.40510345664
1860.9046484268183 3306.277555909067
1861.599591848917 3700.29292114667
1862.294367683151 3324.2743811891523
1862.988975971528 3261.488383079906
1863.6834167560355 3493.504034739588
1864.3776900786452 3560.403885232303
1865.0717959813119 3328.560964507234
1865.7657345059724 3199.308738051765
1866.4595056945564 3518.418390247476
1867.1531095889586 3502.8285420575717
1867.846546231076 3149.1344736416822
1868.5398156627743 3417.6993376533137
1869.2329179259123 3197.4149596522484
1869.9258530623283 3616.3441398843142
1870.618621113843 3191.460905305647
1871.3112221222636 3074.69566559356
1872.0036561293764 3199.1781676840833
1872.695923176956 3314.109777550929
1873.3880233067594 3575.197796978362
1874.0799565605212 3149.1953333839656
1874.7717229799673 3305.785283594412
1875.4633226068036 3572.006509109885
1876.1547554827175 3549.306824028302
1876.8460216493859 3347.323038498943
1877.5371211484617 3323.537286242173
1878.2280540215852 3579.1936636429928
1878.9188203103804 3162.4388280215658
1879.6094200564548 3218.070354454737
1880.299853301396 3101.744483575464
1880.9901200867826 3600.9628065690413
1881.6802204541673 3366.5762541258855
1882.3701544450942 3384.144674347846
1883.059922101087 3030.884067432698
1883.7495234636517 3550.890796425373
1884.4389585742792 3085.8359277476393
1885.1282274744517 3201.0690286566323
1885.8173302056166 3910.2668689742845
1886.506266809225 3453.379131724193
1887.195037326701 3028.9508673015753
1887.8836417994517 3318.7594936358328
1888.5720802688702 3631.4095368472363
1889.260352776333 3495.42832657865
1889.9484593632042 3435.4381358980268
1890.63640007082 3189.02574862322
1891.3241749405151 3095.645325430264
1892.0117840135954 3361.2123311663518
1892.6992273313572 3258.9046081514985
1893.3865049350788 3094.3637339823026
1894.0736168660223 3664.674951380856
1894.7605631654333 3339.7051154382098
1895.4473438745408 2919.4629339654293
1896.133959034556 3614.024754852194
1896.820408686679 3286.9196115087616
1897.506692872088 3509.179859497507
1898.192811631945 3349.4805374114862
1898.8787650073991 3187.8243407685777
1899.5645530395832 3441.2533788796304
1900.2501757696118 3517.789193928038
1900.9356332385796 3091.054130869549
1901.620925487574 3690.1055389954827
1902.3060525576602 3375.855306159755
1902.9910144898859 3433.634798091549
1903.6758113252872 3131.695405444621
1904.3604431048789 3280.691312770742
1905.0449098696663 3405.4902389938557
1905.7292116606295 3136.5268949354327
1906.4133485187394 3390.210089842555
1907.0973204849488 2882.8757760792932
1907.7811276001976 2962.832237297194
1908.4647699053967 3320.4361653531255
1909.1482474414588 2627.7246409553363
1909.8315602492694 3160.7580366618286
1910.5147083696957 3429.0868009901324
1911.1976918436012 3143.2445402806743
1911.880510711815 3117.197091573955
1912.5631650151681 3437.2341787142295
1913.2456547944657 3095.047504274681
1913.927980090495 3087.090641259968
1914.6101409440362 3210.1717391162347
1915.2921373958416 3294.671404411012
1915.9739694866603 3212.0676550109665
1916.655637257214 3528.948525568193
1917.3371407482136 3301.1528193041718
1918.0184800003572 3476.8509253451825
1918.6996550543154 3429.320515616564
1919.3806659507554 3233.159191978167
1920.0615127303208 3168.372982314942
1920.7421954336423 3446.0495526012674
1921.4227141013343 3357.788587683773
1922.103068773993 3162.4583950666542
1922.783259492202 3523.235487790856
1923.4632862965227 3117.5911033016855
1924.1431492275078 3122.3340691513504
1924.8228483256917 3048.027641063579
1925.5023836315922 3150.97031494305
1926.1817551857057 2914.4474059222075
1926.8609630285227 3508.106064878307
1927.5400072005123 3295.126812899918
1928.218887742125 3120.3138211975015
1928.8976046938005 2995.9494093526823
1929.5761580959588 3305.666916700211
1930.2545479890086 3145.0520760477693
1930.9327744133352 2911.8680128626047
1931.6108374093164 3200.3990831359174
1932.2887370173066 3474.5437003334164
1932.9664732776473 2738.2588860906003
1933.6440462306673 3155.8291020215274
1934.3214559166754 3091.21431910714
1934.9987023759659 3406.726713747669
1935.675785648813 3252.0971227787304
1936.3527057754836 2792.782602304624
1937.029462796223 2923.8570340415613
1937.70605675126 3055.27966944028
1938.3824876808085 3121.4327670463344
1939.058755625072 3092.5721836562093
1939.7348606242267 2973.124087315199
1940.4108027184448 3096.816323892702
1941.0865819478713 3302.0139764543483
1941.7621983526478 2981.491335404344
1942.4376519728921 2918.802133502693
1943.1129428487038 3068.784190258919
1943.7880710201734 3285.2635864471486
1944.4630365273733 3209.035461444617
1945.1378394103576 2894.9401749384806
1945.8124797091714 3424.570610778316
1946.4869574638324 2843.8209652129963
1947.161272714353 2966.1424324885766
1947.8354255007234 3246.0188566175675
1948.5094158629272 2948.370002943825
1949.1832438409183 3305.0819354089117
1949.8569094746435 3353.55147163629
1950.530412804037 3486.4118731792123
1951.2037538690092 3186.8857522602475
1951.8769327094578 2905.2317842970747
1952.5499493652678 2997.105453348176
1953.222803876306 3360.3224991287448
1953.895496282421 3211.081277450181
1954.5680266234522 3204.6124029087414
1955.2403949392155 3053.762016300333
1955.9126012695142 2885.0666527941216
1956.5846456541403 2956.1781406056066
1957.2565281328643 2977.620332881946
1957.9282487454457 3212.1904961582127
1958.5998075316202 3227.2188197116475
1959.27120453112 3007.5529412279348
1959.9424397836501 3096.1256602397984
1960.613513328908 3225.0664227073758
1961.2844252065697 3340.4570006004483
1961.9551754563017 2865.9561486800394
1962.6257641177453 2874.9311052825155
1963.29619123054 2910.321112162311
1963.966456834296 2925.9349791334253
1964.6365609686181 2872.557520847641
1965.306503673086 3150.8984814876203
1965.976284987275 2927.925440573046
1966.645904950734 3128.546901016598
1967.315363603002 2673.366584434403
1967.9846609836077 2998.148244469824
1968.6537971320486 2940.0523490118476
1969.3227720878222 2995.340519030681
1969.9915858904042 3043.6953127354936
1970.660238579252 3248.2547456429043
1971.3287301938108 3029.117226543539
1971.997060773514 2953.4716533252204
1972.665230357772 2955.2859536396672
1973.3332389859843 2922.7822958955403
1974.0010866975335 2838.9533865926287
1974.6687735317864 3143.9641234172113
1975.3362995280932 3066.280807611137
1976.003664725793 3139.3622710556547
1976.6708691642052 2653.500371642664
1977.3379128826364 3016.5032615338996
1978.004795920373 3328.001747149384
1978.6715183166925 3354.8120868724473
1979.3380801108524 2657.966282706882
1980.0044813420973 2950.7957029954187
1980.6707220496555 2584.45035833961
1981.3368022727373 3009.8271951848137
1982.0027220505417 3227.1974616282337
1982.66848142225 2596.7741860325914
1983.3340804270283 2628.307762173855
1983.999519104027 3024.898031488212
1984.6647974923835 3050.0391521596184
1985.329915631215 3130.4442169566546
1985.99487355963 2998.7612828565098
1986.6596713167146 3271.2641290093957
1987.3243089415428 2889.3890737221946
1987.9887864731754 3315.303429625544
1988.6531039506553 2743.992479430869
1989.3172614130071 2842.7801209771137
1989.9812588992481 2941.7830675624637
1990.645096448372 2638.8814280700867
1991.3087740993633 2916.691930942267
1991.9722918911848 2903.1622885727597
1992.635649862792 2995.1434236184386
1993.2988480531185 3097.512693531571
1993.9618865010852 3483.764923945871
1994.6247652455968 2866.713778120022
1995.287484325545 2835.1989601299415
1995.9500437798033 2874.114216367786
1996.6124436472292 2817.266656676732
1997.2746839666706 3121.169695045465
1997.936764776954 2905.9479565939973
1998.598686116895 2831.570616243922
1999.2604480252903 3361.168419272993
1999.9220505409212 3121.606191259666
2000.5834937025593 2777.4939087651082
2001.2447775489582 2804.0008491223607
2001.9059021188514 3049.7583631163607
2002.5668674509616 2857.5026191182915
2003.2276735839987 2854.5485978619868
2003.8883205566508 3247.9153128860767
2004.5488084075987 2804.7819464970253
2005.2091371755014 2946.291507121919
2005.8693068990033 2710.4552246114827
2006.5293176167397 3162.071425960284
2007.1891693673224 2673.613877245843
2007.848862189354 2687.6683653499044
2008.5083961214223 2855.701865031292
2009.1677712020955 2830.9088115006516
2009.8269874699254 2818.738039166469
2010.4860449634598 2786.9023508218047
2011.1449437212177 2755.147498260475
2011.8036837817108 3167.6939631264304
2012.4622651834325 3109.477800960358
2013.1206879648653 3129.84364056528
2013.7789521644736 2818.567951741613
2014.4370578207036 3134.134207427513
2015.0950049719922 2861.915260046376
2015.7527936567585 3111.9422857176087
2016.4104239134067 2947.494813312916
2017.067895780323 3425.5919396819068
2017.725209295886 2689.977720356876
2018.3823644984514 3253.749088710057
2019.0393614263648 3050.0000114907334
2019.6962001179545 2882.8834999589117
2020.3528806115355 3205.2231915283282
2021.0094029454067 2872.567850434526
2021.6657671578487 2762.253197217108
2022.321973287133 3038.8690319634507
2022.9780213715148 2786.2613596787805
2023.6339114492293 2917.0654835747537
2024.2896435585026 2892.669524640237
2024.9452177375442 2895.2462093462227
2025.600634024544 3096.293163402809
2026.2558924576842 3112.373822801669
2026.9109930751292 3112.3266810878117
2027.565935915025 2803.4835979820054
2028.2207210155066 3206.6041817810287
2028.8753484146964 3193.546172920426
2029.529818150695 3185.7609990523542
2030.1841302615903 3177.745751703034
2030.8382847854573 2703.004141616414
2031.4922817603601 2923.390194568918
2032.1461212243357 2846.1046511663963
2032.7998032154192 2618.038734200112
2033.4533277716218 2900.673092899471
2034.1066949309443 2595.724388527218
2034.7599047313688 2693.573961548734
2035.4129572108704 3173.2922623409877
2036.0658524074006 2837.5771162992974
2036.7185903589016 2951.067826822736
2037.3711711032956 2966.6996512236265
2038.023594678496 3048.8283861765462
2038.675861122394 2723.619101718382
2039.3279704728757 3153.646083561793
2039.9799227678031 2715.4302024292033
2040.6317180450278 2797.576038980484
2041.2833563423865 2761.1951850818255
2041.9348376977014 3175.0125883712435
2042.5861621487784 3072.068662070956
2043.2373297334088 3081.232203001222
2043.8883404893695 2981.916956838725
2044.5391944544208 3060.8079095903217
2045.1898916663158 3215.551881387548
2045.8404321627804 2975.327368453692
2046.4908159815368 2817.3218516310258
2047.1410431602853 2880.6852159815603
2047.7911137367173 2743.2956828265496
2048.441027748504 2995.872103479141
2049.090785233302 2811.0242139652555
2049.7403862287592 2888.6068443583035
2050.389830772503 3216.704096528562
2051.0391189021466 2594.720694769682
2051.688250655294 2928.8402747531704
2052.337226069527 2682.0224545869823
2052.986045182417 2589.865115249357
2053.634708031521 2497.786835661068
2054.283214654375 2947.4138069547466
2054.931565088511 2494.1434304594095
2055.579759371436 2581.0178551917224
2056.2277975406523 2760.592808965753
2056.8756796336384 2574.8662478407714
2057.5234056878617 2388.5595548406172
2058.1709757407752 2620.658904659209
2058.8183898298194 3265.9936538509414
2059.465647992416 3129.616317443586
2060.1127502659747 3181.0373732114194
2060.759696687888 2524.1301440435186
2061.4064872955405 3102.396708304009
2062.053122126292 3068.8665995683255
2062.699601217497 2927.2387363322387
2063.345924606485 2785.730190400478
2063.992092330587 2914.8546153677767
2064.638104427102 2690.129287649497
2065.283960933324 3010.237934879653
2065.92966188653 2877.4792458079924
2066.5752073239855 3027.5610125486655
2067.2205972829397 2646.9290184664906
2067.86583180062 2885.785210855879
2068.5109109142522 2837.033496997087
2069.15583466104 2751.2715862670943
2069.8006030781708 2665.4326643347767
2070.445216202821 2861.4925108869675
2071.089674072153 2969.936999415277
2071.7339767233116 3077.341504717888
2072.3781241934303 2884.807922866536
2073.0221165196253 2883.9192616782193
2073.6659537390024 2796.333527690442
2074.3096358886505 2941.8706878802027
2074.953163005637 2817.8551498670936
2075.596535127028 2487.8251802578534
2076.2397522898664 2568.4114198371185
2076.882814531182 2780.849760291832
2077.5257218879924 3002.7255423716524
2078.1684743973 2579.0865364016227
2078.8110720960885 2589.8682691130243
2079.453515021336 3272.4334103696665
2080.095803209997 2975.5409133443227
2080.7379366990135 2925.4049376491485
2081.37991552532 3014.3247086183956
2082.0217397258275 2973.248937913772
2082.6634093374414 2407.1082013657733
2083.3049243970418 2847.387573744977
2083.9462849415067 2996.7175491949683
2084.587491007689 2923.835427766338
2085.2285426324324 2942.2774785041133
2085.869439852564 2863.8574719127146
2086.510182704902 2705.5945469412795
2087.1507712262483 2850.32926185518
2087.791205453381 2534.182879338809
2088.4314854230743 2871.3743048827673
2089.0716111720867 2941.029818871206
2089.7115827371617 2438.276643311576
2090.351400155023 2535.694624314095
2090.991063462385 2633.4146525499846
2091.6305726959527 2481.09010328748
2092.2699278924047 2951.0935481363376
2092.9091290884153 2724.333231164373
2093.548176320641 2622.1512216457822
2094.187069625721 2911.5631472919595
2094.8258090402887 2622.05308016472
2095.464394600951 2974.224923905983
2096.102826344313 2821.4432605264974
2096.741104306955 2927.951169551898
2097.379228525453 2738.346977181959
2098.017199036358 2402.3248064868694
2098.6550158762147 3056.751385863695
2099.2926790815527 3036.4960713689184
2099.9301886888825 2833.0631491007357
2100.5675447347076 2614.9654496752023
2101.2047472555114 3086.479994390988
2101.841796287761 2773.379264161016
2102.47869186792 2913.944180460888
2103.1154340324265 2760.3436317445644
2103.752022817709 2776.4278254723436
2104.388458260184 2734.2518294021074
2105.024740396251 2717.0323395200257
2105.660869262292 2550.715439463027
2106.296844894685 3044.414657435832
2106.93266732978 2689.316435498508
2107.5683366039284 2758.361476208138
2108.2038527534532 2812.060076970015
2108.8392158146726 2936.7404981977593
2109.4744258238843 2692.9571253358263
2110.1094828173755 2792.6334329320284
2110.744386831422 3213.011052410576
2111.3791379022787 2842.140708162692
2112.01373606619 3014.983997164566
2112.648181359389 2954.880090300336
2113.28247381809 2842.4920493052327
2113.916613478492 2884.894689334923
2114.550600376786 2697.8341411038477
2115.1844345491445 2787.259929223883
2115.818116031729 2523.9002050141585
2116.451644860679 2738.459007698374
2117.085021072133 2358.3804246324153
2117.718244702204 2847.495360621116
2118.3513157869984 2600.8865592321044
2118.984234362604 2541.9751055157444
2119.617000465092 2738.5535753753443
2120.249614130529 3068.836631548297
2120.8820753949585 2622.794312022941
2121.5143842944162 2707.1191325395966
2122.14654086492 2675.164611626442
2122.7785451424734 2881.766434172009
2123.4103971630702 2376.966157507878
2124.042096962681 2936.4951219407017
2124.6736445772767 2951.438877246469
2125.305040042802 2576.377842281073
2125.936283395191 2600.90357648551
2126.567374670365 2937.357554168997
2127.198313904233 2704.1811725815905
2127.8291011326855 2575.625321945197
2128.4597363916037 2446.494433703455
2129.0902197168507 2642.5859129535534
2129.720551144279 2574.9752837270726
2130.3507307097225 3143.331804826813
2130.980758449008 3187.7111589366104
2131.6106343979427 2566.2559236585676
2132.2403585923203 2960.5442095301664
2132.8699310679276 3174.1804610511026
2133.499351860526 2811.135981186609
2134.1286210058715 2625.1265094089385
2134.7577385397053 2417.7568991977228
2135.3867044977487 3044.3666403895486
2136.0155189157176 3202.670379783655
2136.644181829308 3113.4659185246683
2137.2726932742025 2737.366107589075
2137.901053286074 3086.9485884586966
2138.5292619005777 2446.923297814291
2139.1573191533535 2578.465493323769
2139.7852250800315 2822.2078122208545
2140.4129797162295 2763.1395923296923
2141.0405830975433 2463.3982552348775
2141.6680352595613 2445.5670940505374
2142.2953362378576 2427.7295951288893
2142.9224860679915 2570.328254374291
2143.549484785508 2629.7503454220205
2144.1763324259373 2719.6516766923714
2144.803029024799 2611.990204460163
2145.429574617594 2705.639260359986
2146.0559692398165 2866.533860800252
2146.682212926942 2505.4073780986196
2147.308305714432 2758.7433989354977
2147.9342476377333 3027.5013995826193
2148.5600387322847 3089.0793041232473
2149.185679033506 2778.9883775501753
2149.8111685768017 2613.926970733453
2150.4365073975678 2548.3248882090843
2151.061695531187 2523.7311636476215
2151.686733013021 3047.361122303465
2152.311619878423 2739.7581605185505
2152.9363561627342 2638.929891083638
2153.560941901278 2524.9795909124196
2154.1853771293663 2762.0117887855804
2154.809661882293 2780.9078340288406
2155.433796195348 3089.7456272630425
2156.0577801037944 2444.9895087753703
2156.681613642895 2983.493604468321
2157.3052968478896 2498.4433635531227
2157.928829754006 2848.0485807734467
2158.552212396462 2926.4190352649293
2159.1754448104566 2841.516363966425
2159.7985270311783 2442.4031814544187
2160.4214590938027 2279.0041182150994
2161.0442410334927 2136.2399159953907
2161.6668728853874 2277.54509835015
2162.289354684628 2419.200840749378
2162.911686466332 2698.292264912271
2163.533868265602 2900.1413968642296
2164.1559001175337 3198.150263760147
2164.7777820572046 2641.6877677609878
2165.399514119681 2607.4127123122
2166.021096340013 2549.6696415780325
2166.6425287532384 2979.473381262347
2167.263811394385 2984.6202393293656
2167.8849442984574 2990.0216536107823
2168.505927500455 2654.1165382144436
2169.126761035366 2909.118102678656
2169.7474449381552 2451.370217536468
2170.367979243778 2145.747470650402
2170.9883639871823 2894.404869929919
2171.608599203293 2462.690618722504
2172.2286849270276 3174.3946158366007
2172.8486211932886 3289.158336288548
2173.4684080369625 2717.6112702736746
2174.0880454929265 2434.751561010526
2174.7075335960417 2333.428796500284
2175.3268723811543 2841.56526600321
2175.9460618831 2475.689247733751
2176.565102136701 2543.8489703800324
2177.1839931767627 2596.312546044098
2177.802735038078 2648.9520634935097
2178.421327755432 2283.7203818391818
2179.0397713635866 2553.3079458277034
2179.658065897298 2393.734979888089
2180.276211391305 2908.4811991519628
2180.8942078803357 2636.302281629847
2181.5120553991 2848.2452575350057
2182.129753982299 2320.4220120606833
2182.7473036646206 2543.1732089528728
2183.3647044807367 2779.932913857531
2183.9819564653044 2438.773010710788
2184.599059652968 2689.6325175643947
2185.216014078367 2748.2573777571024
2185.832819776113 2817.0919912385634
2186.4494767808137 2885.9288118782456
2187.065985127063 2676.5275947535065
2187.682344849436 2512.5018707080944
2188.298555982501 2958.15749548112
2188.9146185608097 2682.3915894990887
2189.530532618901 2799.998646722227
2190.1462981912937 2765.559656241945
2190.761915312507 2640.00037690905
2191.377384017036 2608.2923698938275
2191.9927043393654 2727.9347313895482
2192.6078763139667 2975.4743723074585
2193.2228999753006 2365.2811387775796
2193.837775357808 2588.4666021131943
2194.452502495922 2154.5828102013816
2195.0670814240602 2578.679519876402
2195.6815121766285 2472.959130132471
2196.2957947880186 2325.1508691007557
2196.9099292926057 2177.0523190120693
2197.523915724758 2667.5520765258643
2198.137754118825 2553.3527622493225
2198.7514445091456 2995.8640489513787
2199.3649869300443 3060.7028931486993
2199.9783814158327 3125.821718162447
2200.5916280008096 3136.559420967671
2201.2047267192593 2866.2408440441914
2201.8176776054515 2635.496708315334
2202.430480693649 2329.2188711323133
2203.0431360180955 2917.539438350467
2203.6556436130195 2919.9871518014984
2204.268003512645 2104.2555614675953
2204.8802157511727 2512.0258196839814
2205.492280362796 2538.021376216087
2206.1041973816937 2564.154715120078
2206.715966842032 2701.1190240262013
2207.3275887779655 2616.498031862905
2207.93906322363 2636.8308679893626
2208.550390213153 2737.0707251539657
2209.1615697806465 2797.6105131391146
2209.7726019602105 2523.6101147558657
2210.3834867859277 2310.8561390087316
2210.9942242918787 2579.0108957826765
2211.6048145121167 2580.198182095086
2212.2152574806914 3457.4747423427784
2212.825553231638 3456.833760097283
2213.435701798975 3456.4166080744953
2214.045703216707 2745.143747830272
2214.655557518832 2136.6904222673666
2215.2652647393297 2356.9242618931808
2215.874824912169 2061.3467441080966
2216.4842380713 2711.6251116070953
2217.09350425067 2481.6751740723507
2217.7026234842033 2778.2492723207006
2218.311595805819 2857.3309736424035
2218.9204212494133 2478.105897094316
2219.52909984888 2865.471210133718
2220.137631638092 2891.42186583326
2220.7460166509154 2917.24294161958
2221.354254921198 2548.6681969016267
2221.9623464827764 2681.6472229267706
2222.5702913694713 2787.562014506267
2223.178089615096 3047.53144939353
2223.7857412534486 2496.2810471784005
2224.39324631831 2298.3590265520825
2225.000604843457 2575.8205965338248
2225.607816862641 2918.597359992878
2226.214882409611 2627.7607249506964
2226.8218015180973 2886.9519600698122
2227.4285742218217 2389.89981279038
2228.0352005544864 2624.306208434542
2228.6416805497847 2243.505389074406
2229.248014241399 2550.3494504543273
2229.8542016629945 2316.890132298359
2230.460242848223 2666.205221762114
2231.0661378307304 2446.460243542112
2231.671886644139 2226.524257307391
2232.277489322065 2163.993867908649
2232.8829458981127 2111.5894476877784
2233.48825640587 2424.258728590436
2234.0934208789095 2652.923278147746
2234.6984393507955 2881.934826087485
2235.3033118550793 2838.7548364030963
2235.9080384252975 2562.2171058182944
2236.5126190949723 1970.0368588797817
2237.1170538976166 2205.369851056027
2237.721342866729 2025.859881563257
2238.32548603579 2459.217278999012
2238.9294834382763 2620.841873302045
2239.533335107646 2549.637545691541
2240.1370410773434 2516.432594882686
2240.740601380803 2299.663502244187
2241.3440160514474 2533.617192456457
2241.9472851226783 2703.294827244329
2242.550408627896 2596.63694131978
2243.1533866004793 2971.4637991472237
2243.756219073799 2652.67313708936
2244.3589060812064 2454.3443546258595
2244.961447656049 2311.820775330468
2245.5638438316564 2535.6567318039915
2246.166094641343 2517.342670035007
2246.7682001184166 2269.514298948463
2247.3701602961664 2411.1023248863535
2247.971975207871 2567.8105355023936
2248.5736448867974 2761.907496621177
2249.175169366197 2560.8027053521087
2249.7765486793123 2534.7693889655447
2250.3777828593684 2578.510966222103
2250.9788719395783 2504.415474968436
2251.579815953146 2436.037958984899
2252.1806149332606 2318.215319124334
2252.781268913097 2419.6786021700364
2253.381777925817 2158.1823758344585
2253.9821420045737 2596.024255406929
2254.5823611825035 2651.4990092861176
2255.1824354927303 2707.0989814451013
2255.782364968365 2511.956737269362
2256.38214964251 2316.6226753363308
2256.9817895482483 2247.839566752337
2257.5812847186553 2258.593286987171
2258.180635186791 2379.119600192314
2258.779840985704 2448.799176404883
2259.37890214843 2476.521504114785
2259.97781870799 3063.1933177404367
2260.5765906973957 2713.138707649614
2261.175218149645 2623.5129038877176
2261.773701097718 2645.453182282483
2262.3720395745895 2248.6260147172366
2262.970233613216 1956.96067412716
2263.568283246548 2464.1974793229147
2264.1661885075137 2193.281858160214
2264.763949429038 2394.988677028458
2265.3615660440246 2865.5090531685123
2265.959038385374 2346.696580790763
2266.5563664859637 2887.8206312565194
2267.153550378669 2770.678375063603
2267.7505900963424 2653.5294813062324
2268.3474856718312 2247.6902652840367
2268.9442371379664 2413.0458639864078
2269.5408445275643 2340.7392307034447
2270.1373078734377 2528.116501782498
2270.7336272083758 2165.2241994741744
2271.32980256516 2311.455729607988
2271.925833976562 2592.825593894603
2272.5217214753357 2804.1278762320503
2273.117465094223 2135.710316411233
2273.7130648659586 2159.331018653802
2274.308520823257 2390.7427286451025
2274.903832998827 2698.080805403729
2275.4990014253563 2140.9705334639166
2276.094026135528 2755.7316363597893
2276.6889071620117 2163.504923330279
2277.2836445374614 2491.6293849602685
2277.878238294519 2318.807715413926
2278.472688465812 2164.1876145730453
2279.066995083962 2009.2611131311237
2279.6611581815705 2235.608464524371
2280.255177791232 2212.4521062121116
2280.8490539455233 2539.6192512794673
2281.442786677013 2867.4796287866625
2282.0363760182554 2602.486934244176
2282.6298220017943 2198.539992568184
2283.223124660155 2731.0031816310393
2283.816284025859 2351.6013324410696
2284.4093001314086 2300.3997187848504
2285.002173009292 2249.1275010060212
2285.5949026919952 2447.580694574689
2286.1874892119777 2447.2722925938283
2286.7799326016993 2514.3681977527986
2287.3722328936 2116.2390638270467
2287.964390120109 1813.1172091724645
2288.556404313642 2510.758408893012
2289.1482755066027 3099.150250930517
2289.7400037313873 2450.2460496060644
2290.3315890203703 2218.555462929053
2290.9230314059205 2194.252408272106
2291.5143309203904 2169.9781873490583
2292.1054875961236 2320.6240729337214
2292.6965014654506 2899.33387048314
2293.287372560684 2513.7805573140154
2293.878100914131 2385.4817848574257
2294.468686558086 2256.9858319941613
2295.059129524827 2437.6246363212094
2295.649429846617 2781.0599689684686
2296.239587555716 2426.9600266227894
2296.8296026843636 2330.494119985648
2297.419475264791 2360.6859838964247
2298.0092053292137 2390.7875861232737
2298.598792909839 2543.188176305428
2299.1882380388597 2287.3538380487357
2299.777540748455 2389.9153825169656
2300.3667010707904 2492.462077258617
2300.9557190380256 2611.0374310968377
2301.544594682302 2329.9462232756823
2302.1333280357503 2830.662638351673
2302.721919130485 2517.2561557022236
2303.3103679986198 2843.5857124476634
2303.898674672242 2906.731159222092
2304.486839183437 2202.174486304945
2305.0748615642697 2447.6462898682253
2305.6627418468015 2461.4911067847997
2306.2504800630704 2436.7657521227793
2306.8380762451143 2326.3460015307173
2307.425530424949 2351.6886502406983
2308.012842634582 2377.0711481086505
2308.6000129060103 2837.3899196116154
2309.187041271214 2505.1446054695434
2309.773927762164 2932.5632667355876
2310.3606724108213 2668.168215632247
2310.9472752491274 2066.5271729098927
2311.5337363090184 2384.1353556980503
2312.120055622414 2360.951447118173
2312.706233221221 2417.902815292481
2313.2922691373424 2701.9018477245827
2313.8781634026564 2236.0304539775093
2314.463916049037 2474.4456820649657
2315.049527108342 2587.5951120931513
2315.6349966124235 2959.4509621795214
2316.2203245931123 2806.2994380908895
2316.8055110822315 2609.817896831793
2317.3905561115935 2412.8418674147492
2317.9754597129977 2160.827755870667
2318.560221918229 2086.2612197042818
2319.1448427590603 2011.5708793714864
2319.729322267256 2088.6396730844417
2320.313660474563 2131.106909776653
2320.8978574127195 2341.017185960988
2321.481913113452 2551.5997325191893
2322.0658276084705 2231.478119442785
2322.6496009294806 2466.873397361448
2323.233233108165 2445.287737541881
2323.8167241762058 2281.1788578666074
2324.4000741652617 2431.942121185094
2324.983283106987 2515.7387455417183
2325.5663510330232 2885.444925644662
2326.1492779749933 2422.172451116602
2326.7320639645204 2675.6386355426885
2327.3147090332004 2337.130071901577
2327.897213212629 2423.232099429847
2328.4795765343843 2509.268117809491
2329.0617990300307 2166.009613580778
2329.643880731124 2806.6732534065045
2330.22582166921 2355.009784217167
2330.807621875816 2172.1660941205064
2331.3892813824623 1989.215524555974
2331.9708002206517 2016.482621221349
2332.5521784218818 2820.074442558084
2333.133416017634 2525.46258650859
2333.7145130393765 2230.302709828139
2334.295469518571 2646.708769428516
2334.876285486658 2687.1204776633617
2335.456960975076 2700.34181290076
2336.037496015242 2713.639473445748
2336.6178906385667 2401.8652572972396
2337.198144876451 2517.7512182437536
2337.778258760278 2606.4779060742417
2338.3582323214214 2509.929005829441
2338.938065591243 2413.0926821544754
2339.517758601087 2703.245261317051
2340.0973113822965 2470.0985400312843
2340.676723966193 2293.2904880011956
2341.255996384094 2575.3625905927734
2341.835128667295 2794.039223572633
2342.4141208470883 2549.459023671175
2342.992972954751 2352.884943976728
2343.5716850215467 1989.4497361003826
2344.1502570787306 1625.2296330814493
2344.7286891575386 1988.0542394966171
2345.3069812892045 3017.2710898412456
2345.885133504944 2798.6994859158362
2346.4631458359618 2186.0799826992456
2347.04101831345 1917.4633194646922
2347.6187509685915 2356.2630223565066
2348.196343832553 2249.529200755364
2348.7737969364935 2435.9247931293967
2349.351110311558 2047.9516269421554
2349.9282839888765 2134.942525446266
2350.5053179995757 2197.663485158127
2351.0822123747585 2015.5366587819694
2351.658967145526 2144.174611990959
2352.2355823429643 2273.1542022350586
2352.812057998144 2466.5443879232785
2353.3883941421263 2353.0203150659627
2353.9645908059647 2467.970599778783
2354.540648020693 2336.8152922913728
2355.116565817336 2053.882031934999
2355.6923442269126 2206.9859655088403
2356.2679832804224 2360.412843592806
2356.8434830088518 2338.1929214261004
2357.41884344318 2218.489615987711
2357.994064614377 2186.1379687336453
