#exp_cfg={"servo_angle": 0.0, "laser_lim": 100.0, "servo_angle_to": 18.0, "laser_wup": 0.0, "bt_dev": "EnSpectr-25AE3", "laser_wdn_max": 0.0, "frames": 10.0, "servo_used": 0, "servo_calib_use": 0, "laser_wdn_min": 0.0, "servo_pix_from": 90.0, "cooler_tout": 300.0, "servo_angle_from": 0.0, "servo_calib": "[-1.9174921013161362e-09, 3.9322238269163779e-05, -0.27385609119055809, 653.59552119713567]", "laser_autoctl": 0, "servo_pix_to": 3682.0, "laser_pw": 100.0, "cooler_on": 0, "laser_volt": 4.0, "cooler_autoctl": 0, "cooler_curr": 70.0, "cooler_startup": 10.0, "laser_fixed_pw": 0, "gain": 1.3, "offset": 2.53059635486, "servo_calib_degree": 3.0, "laser_curr": 55.0, "shutter": 8200.0, "servo_calib_step": 1.0, "laser_fixed_curr": 0, "exp": 2000.0, "ccd_volt": 4.7, "bt_addr": "00:06:66:62:5A:E3", "servo_delay": 500.0, "laser_autooff": 1}
#proc_cfg={"flat_auto_wnd": 200.0, "flat_auto_fr": 200.0, "flat_auto_shift": 5.0, "yconv": 1, "flatten": 1, "flatten_strength": 100.0, "xfrom": 300.0, "auto_max_frame": 2000.0, "auto_signal": 48000.0, "flat_auto_tol": 0.1, "autoclip": 1, "xrel_range": 0.0, "flat_auto_to": 4000.0, "intensity_adj": 1.0, "xrel": 7852.0, "rmhot": 1, "flat_auto_slit": 4.999999999999997, "auto_ini_exp": 300.0, "auto_off": 0, "xto": 2860.0, "flat_auto_ref": "", "flat_auto_rank": 1, "autobackg": 0, "xrel_adj": 0.0, "auto_black_lvl": 1, "base_wnd": 100.0, "sub_baseline": 0, "xconv": 2, "auto_max_exp": 1000.0, "auto_total_exp": 10000.0, "auto_exp": 0, "rmripple": 0, "black_lvl": 8215.4875, "shutter_clip_adj": 0.0, "auto_bckg": 0, "flat_auto_thr": 0.9, "subbackg": 1}
316.8218498245369 22695.458685499216
317.89969571804795 22538.50859861212
318.977263876126 22465.648450372162
320.05455438786703 22335.10711068464
321.1315673423287 22301.09345107518
322.2083028285215 22352.16303850815
323.2847609354267 22193.318153466782
324.3609417519747 21954.484556084437
325.43684536705587 21962.68186072111
326.5124718695279 21854.314319856112
327.58782134820103 21712.523293589787
328.66289389184385 21785.567293133645
329.7376895891921 21644.143913252792
330.8122085289342 21594.839929023547
331.88645079971866 21558.671916168954
332.9604164901575 21411.485199637867
334.03410568881554 21282.022690448528
335.1075184842266 21383.576844312018
336.18065496487543 21181.958130608433
337.2535152192122 21179.641636942128
338.32609933564163 21188.273484393456
339.39840740253203 21042.65862093886
340.4704395082099 21116.95339489506
341.5421957409617 20899.125087220287
342.6136761890357 20982.62840608191
343.6848809406365 20860.69635617706
344.75581008392874 20833.01727281023
345.82646370703696 20673.586702880923
346.8968418980512 20739.351558727878
347.96694474501055 20780.336182171366
349.0367723359268 20751.681283731108
350.106324758759 20680.395578979736
351.1756021014353 20610.153345073402
352.2446044518383 20540.623662236256
353.31333189781435 20634.487616776503
354.38178452716966 20503.40076791119
355.449962427665 20500.373759511545
356.51786568702846 20402.869927923515
357.58549439294256 20597.125391074245
358.6528486330535 20451.35990617494
359.71992849496564 20409.625839659362
360.7867340662433 20460.35036459965
361.8532654344144 20425.962233251605
362.9195226869597 20425.74537846564
363.9855059113288 20330.099873013016
365.05121519492604 20257.17850712133
366.11665062511565 20330.269920987655
367.1818122892273 20324.113109344704
368.2467002745434 20377.754930159725
369.31131466831175 20367.361649462677
370.375655557742 20414.273820508948
371.4397230299983 20345.071305868376
372.5035171722102 20315.50728904865
373.5670380714637 20211.869897523524
374.6302858148101 20372.330514165486
375.6932604892554 20390.092379139543
376.7559621817709 20359.00078368179
377.81839097928605 20187.53604995118
378.8805469686886 20265.403810298172
379.94243023683157 20368.18588211412
381.0040408705263 20086.60512636444
382.0653789565458 20137.19219326398
383.1264445816196 20196.163188971732
384.1872378324406 20047.599250573396
385.2477587956637 20154.83713675765
386.3080075579037 19930.78236836287
387.3679842057336 19957.51207198011
388.4276888256918 19883.999689303466
389.48712150426945 19918.873751680323
390.54628232792857 19757.67254351893
391.6051713830857 19816.149916020633
392.66378875611736 19725.193260538785
393.7221345333637 19789.50839219707
394.7802088011249 19619.433860937006
395.838011645661 19674.860700124435
396.89554315319765 19410.79065589283
397.9528034099112 19482.681005650447
399.00979250194723 19377.01161749663
400.06651051541485 19303.68618466508
401.1229575363741 19325.77978185325
402.17913365085224 19318.48649531314
403.23503894483656 19292.009703799908
404.2906735042761 19185.49742445295
405.3460374150818 19129.420454107083
406.401130763119 19088.108730706903
407.455953634224 19143.838030254105
408.5105061141876 19077.625937056895
409.56478828876243 18889.03024132516
410.6188002436629 18907.745935605955
411.6725420645689 18866.52450445737
412.72601383711117 18914.98111694483
413.77921564689314 18893.02962679549
414.8321475794728 18788.142126201354
415.88480972036814 18688.676137649796
416.93720215506437 18843.24050453345
417.9893249690049 18683.38344277297
419.04117824759123 18501.66573274396
420.09276207619223 18640.92094715064
421.144076540133 18483.059793820772
422.1951217247042 18430.891136785747
423.24589771515275 18390.754576697087
424.2964045966928 18328.154343472892
425.34664245449494 18459.579257436493
426.3966113736933 18346.258199991695
427.4463114393875 18295.41370980778
428.49574273662984 18268.619975352976
429.5449053504417 18311.16718917444
430.5937993658026 18180.539027938546
431.6424248676558 18258.867030245026
432.6907819409007 18118.556565191855
433.73887067040596 18127.3331437862
434.7866911409965 18212.930455392685
435.8342434374608 18133.62367296212
436.88152764455117 17987.061591344747
437.9285438469724 18062.30310073169
438.9752921294057 17941.774186135903
440.02177257648145 17999.1295662388
441.06798527279716 17844.29236240113
442.1139303029122 18050.445441344258
443.1596077513459 17908.0355868123
444.2050177025794 17958.83397413492
445.25016024105753 17943.341264802428
446.2950354511886 17969.615327886433
447.33964341733736 17983.185625127237
448.383984223834 17823.620742188803
449.4280579549686 17786.98770653241
450.471864694995 17923.647387717454
451.5154045281306 17775.866579018424
452.5586775385509 17822.375288755116
453.60168381039693 17831.19949592709
454.64442342776783 17950.605329003825
455.6868964747264 17784.630644046338
456.7291030353008 17765.20345513095
457.77104319347563 17753.17901682182
458.8127170332027 17795.54873891473
459.854124638392 17719.16008636164
460.895266092919 17888.736499868122
461.93614148061897 17937.875080491594
462.97675088529104 17953.109273535832
464.01709439069236 17853.843558717483
465.0571720805492 17839.82649099002
466.0969840385442 17816.381070043975
467.1365303483253 18042.414262093072
468.17581109350067 17884.19082471835
469.2148263576437 17953.689942850917
470.2535762242878 17881.80436784784
471.29206077693016 18055.017313604923
472.33028009902773 17951.946870129363
473.3682342740012 18034.117710039118
474.40592338523857 18048.869063814454
475.4433475160804 18031.479097391406
476.4805067498364 17987.504907905997
477.51740116978 18017.09236153469
478.5540308591426 18079.933212705946
479.59039590112116 18331.56352676249
480.6264963788726 18245.700373467673
481.6623323755193 18419.28741348541
482.6979039741436 18353.884600691053
483.7332112577915 18571.396569536
484.76825430947247 18684.393576723905
485.80303321215797 18898.13449400915
486.837548048783 18836.117877778688
487.8717989022425 19030.190000389026
488.90578585539697 18983.60337577812
489.9395089910686 19241.145424879705
490.97296839203955 18946.162918159906
492.00616414106116 18866.9301977388
493.0390963208429 18793.665610508142
494.0717650140559 18858.090390737336
495.10417030333883 18605.643239726727
496.1363122712901 18523.937202149657
497.16819100046814 18288.068792685863
498.1998065734024 18110.073830666937
499.2311590725767 18045.481310593656
500.26224858044407 17893.110753993962
501.2930751794156 17623.385339409517
502.3236389518679 17740.127432772675
503.35393998014115 17534.58396413362
504.38397834653733 17440.178218969784
505.4137541333221 17410.98533975016
506.4432674227228 17396.636734876687
507.4725182969323 17266.484221271327
508.5015068381035 17112.307569810804
509.53023312835467 17150.393575632752
510.55869724976765 17226.787384162046
511.58689928438434 17068.068861697033
512.6148393142121 17057.678306319922
513.6425174212218 17074.419987305377
514.6699336873462 17215.960047857116
515.6970881944835 17157.896877011608
516.7239810244901 17083.188383516845
517.7506122591931 16907.290334256795
518.7769819803761 17018.71847556655
519.8030902697901 16957.04555939727
520.8289372091476 17106.597587978926
521.8545228801249 17043.295515528374
522.8798473643619 16965.340414099628
523.9049107434621 16936.553158999952
524.9297130989908 17046.24525351558
525.9542545124805 16920.800224117833
526.9785350654201 16835.11561697472
528.0025548392696 16841.279840311585
529.0263139154504 16753.90785584393
530.0498123753423 16820.988268614958
531.073050300296 16677.886579615955
532.0960277716204 16560.85894858105
533.1187448705896 16666.97537303678
534.1412016784416 16526.706271559797
535.1633982763833 16588.77812927153
536.1853347455726 16556.172019413378
537.2070111671401 16484.009897685464
538.2284276221817 16392.315582435716
539.2495841917516 16451.673600982427
540.2704809568677 16246.740554359432
541.2911179985167 16323.15761494129
542.3114953976419 16224.33233740612
543.3316132351592 16073.090400654208
544.3514715919409 16086.528125087518
545.3710705488247 16023.460665997036
546.3904101866156 16039.753153350777
547.4094905860784 16111.956554619319
548.4283118279418 16015.339982750069
549.4468739929034 16049.792972742838
550.4651771616191 15903.765858248007
551.4832214147063 15890.570254314196
552.501006832761 15995.791626824366
553.5185334963226 15835.091037556773
554.5358014859103 15871.6275127678
555.5528108820035 15931.789895812593
556.5695617650363 15938.962491847284
557.5860542154242 15974.403783198577
558.6022883135283 15854.479919936628
559.6182641396881 15802.665479230616
560.6339817741991 15810.935090210445
561.6494412973225 15897.344668907008
562.6646427892883 15816.681702935783
563.6795863302796 15787.102350407018
564.694272000459 15635.677842436437
565.7086998799423 15852.620220274988
566.7228700488104 15695.78430372271
567.7367825871115 15793.280403984227
568.7504375748576 15803.30133582835
569.7638350920224 15784.236989058045
570.7769752185486 15711.833665578597
571.7898580343353 15798.06245233872
572.802483619258 15765.470550607017
573.8148520531431 15816.600415709258
574.8269634157932 15857.459296380073
575.8388177869692 15768.555900903284
576.8504152463938 15914.421911860549
577.8617558737587 15907.831854819331
578.8728397487175 15944.47221959657
579.883666950891 15990.519243859299
580.8942375598654 15980.85712935238
581.9045516551851 16219.72837138353
582.9146093163617 16240.49111445222
583.924410622878 16361.782294139295
584.9339556541727 16272.80493940946
585.9432444896538 16284.990045092703
586.9522772086875 16227.953513067521
587.9610538906127 16309.869589421933
588.9695746147318 16228.64523720719
589.9778394603054 16392.300074440318
590.985848506567 16190.792472560837
591.9936018327098 16048.897326152222
593.0010995178891 15903.977521160548
594.0083416412344 16067.399966895424
595.0153282818283 15803.561165294715
596.0220595187293 15827.34076701063
597.0285354309508 15745.083458687677
598.0347560974806 15617.417652973634
599.0407215972609 15548.359915005398
600.0464320092051 15619.14149053627
601.0518874121954 15517.357197541836
602.0570878850685 15606.289143952872
603.062033506636 15477.638316374203
604.0667243556636 15575.284960485096
605.0711605108936 15508.661716481703
606.0753420510264 15590.239195461185
607.0792690547278 15611.284414276495
608.082941600629 15693.819274095895
609.0863597673306 15560.997980913316
610.0895236333909 15726.713737320164
611.0924332773357 15782.996699552517
612.0950887776617 15796.86290856881
613.0974902128219 15919.93153025888
614.0996376612384 15948.57552031065
615.1015312013005 16130.442430608624
616.1031709113595 16233.101033023635
617.1045568697336 16217.867385807538
618.1056891547069 16531.817937158427
619.1065678445229 16574.693910580012
620.1071930173985 16838.254759686195
621.1075647515099 16922.64592765438
622.1076831250048 17195.212367446755
623.1075482159849 17253.73794551544
624.1071601025305 17485.32386151945
625.1065188626781 17592.31623859764
626.105624574433 17872.04059876461
627.1044773157682 17887.348602276365
628.1030771646128 18137.059911538465
629.1014241988742 18233.348693832904
630.0995184964158 18349.790108420424
631.0973601350688 18505.457061677484
632.0949491926294 18660.35488027054
633.0922857468631 18306.54076509056
634.089369875499 18392.80743363215
635.0862016562278 18302.840775852157
636.0827811667077 18257.312030990477
637.0791084845641 18069.123203606177
638.0751836873878 17974.80713180937
639.0710068527369 17736.526275069777
640.0665780581294 17573.176033544787
641.0618973810506 17198.475629424058
642.0569648989604 17276.661264622762
643.0517806892676 17039.150059712305
644.0463448293649 16876.318209429846
645.040657396592 16635.553620865783
646.0347184682723 16548.139117690094
647.0285281216875 16266.405995918836
648.0220864340772 16263.936853449723
649.0153934826558 16026.538417505197
650.0084493446047 16051.951494523717
651.0012540970674 15755.654619444234
651.9938078171526 15685.761859746202
652.9861105819346 15670.660889061644
653.9781624684565 15622.942481202132
654.9699635537254 15533.833923976916
655.9615139147136 15470.951320877144
656.9528136283589 15344.489663572396
657.9438627715699 15428.833110946163
658.9346614212154 15187.94484149721
659.925209654135 15142.898398834765
660.9155075471263 15159.546073896438
661.9055551769616 15025.891552994834
662.895352620375 15036.778377873052
663.8848999540678 15100.439927702697
664.8741972547068 14897.663641781653
665.863244598926 14856.863424900472
666.8520420633213 14916.680679533169
667.8405897244611 14842.944855016427
668.8288876588758 14770.812662287199
669.8169359430613 14753.709252794399
670.8047346534822 14757.782248803273
671.7922838665672 14667.160422441675
672.7795836587156 14709.234368086545
673.766634106285 14744.714879639223
674.7534352856092 14667.4858720919
675.7399872729766 14619.702069958297
676.7262901446538 14658.748869829296
677.712343976862 14585.81105517789
678.6981488457986 14681.198913740398
679.6837048276229 14504.67687350029
680.6690119984596 14495.237487287475
681.6540704344043 14499.419210670807
682.6388802115107 14452.663928021266
683.6234414058108 14460.327002867201
684.6077540932874 14304.8990061813
685.591818349907 14336.99454139904
686.575634251587 14245.557118841918
687.5592018742263 14257.81408030933
688.5425212936734 14059.013551234826
689.5255925857564 14234.021956426539
690.5084158262707 14079.115377926462
691.4909910909646 14049.07422339223
692.4733184555644 13960.285799266072
693.4553979957618 14063.388110328382
694.4372297872123 13854.064181667782
695.4188139055404 13779.444450801053
696.4001504263324 13812.071738002234
697.3812394251509 13839.959819230626
698.3620809775111 13781.637607262597
699.3426751589104 13704.588502791492
700.3230220448004 13748.237637542537
701.3031217106054 13807.472866872782
702.2829742317172 13847.172539199619
703.2625796834873 13747.941793112263
704.2419381412474 13746.375061159353
705.22104968028 13709.195700026572
706.1999143758458 13772.07878954484
707.178532303169 13613.374507914437
708.1569035374378 13765.364417062223
709.1350281538107 13784.344273395953
710.1129062274158 13817.504069848128
711.0905378333373 13898.622527130554
712.0679230466376 13911.355181277593
713.0450619423427 14067.945965079192
714.0219545954424 13977.129312517674
714.9986010808989 14001.309950886993
715.9750014736292 14113.626253646498
716.9511558485392 14276.250492553794
717.9270642804786 14255.016277516997
718.9027268442787 14405.980462214826
719.8781436147328 14398.897419332392
720.8533146666014 14328.517162875189
721.828240074612 14239.31967351268
722.8029199134635 14290.31007013968
723.7773542578125 14120.634792822024
724.751543182294 14089.483616926624
725.7254867615029 13954.69314082746
726.6991850700015 13836.529301456307
727.6726381823228 13891.08907658084
728.6458461729599 13717.148108282281
729.6188091163858 13703.72776092368
730.5915270870246 13605.879156494912
731.5640001592856 13549.059803405646
732.536228407529 13581.406856485777
733.5082119060917 13514.32387292809
734.4799507292755 13470.382278983776
735.4514449513481 13447.060262833174
736.4226946465496 13553.839906339146
737.3936998890786 13472.032940570556
738.3644607531078 13398.712935458863
739.3349773127793 13360.15881749769
740.3052496421951 13369.059854436995
741.27527781543 13318.779901434895
742.2450619065221 13229.169106775002
743.2146019894826 13118.410340455579
744.183898138288 13064.305260024423
745.1529504268801 13119.69438408601
746.1217589291682 13007.870410097925
747.0903237190341 12833.00030037684
748.058644870318 13043.49551375947
749.0267224568397 12835.45192455816
749.994556552374 12875.555186026642
750.9621472306771 12780.010713927124
751.9294945654583 12776.724570351678
752.8965986304011 12728.08136641047
753.8634594991636 12768.856664059515
754.8300772453586 12788.325650723342
755.7964519425768 12761.798276110345
756.762583664371 12676.305335981804
757.7284724842611 12747.152601029573
758.6941184757416 12647.00224659357
759.6595217122667 12728.742039316581
760.6246822672638 12690.97303288728
761.5896002141235 12600.848875316025
762.5542756262093 12568.95540141557
763.5187085768503 12658.573987387294
764.4828991393406 12528.365326332341
765.4468473869474 12596.222994977727
766.4105533929032 12536.871905204654
767.3740172304078 12524.783786390439
768.3372389726283 12368.93980274638
769.3002186926988 12364.302114151084
770.2629564637282 12323.334854024784
771.2254523587872 12277.346907714076
772.1877064509154 12201.26799621274
773.1497188131179 12203.247356201215
774.1114895183728 12194.548174162763
775.0730186396268 11975.365498051631
776.0343062497905 12025.51806934347
776.9953524217381 11964.984375453038
777.9561572283274 12052.373344918957
778.9167207423689 11946.159120182721
779.8770430366476 11824.429567333347
780.8371241839159 12007.06102619681
781.7969642568951 11889.24114311237
782.7565633282757 12026.972629271095
783.7159214707099 11908.478870159639
784.6750387568281 12013.399779797914
785.6339152592227 11878.915704419107
786.5925510504512 11797.230304954855
787.5509462030477 11904.520532697486
788.5091007895098 11925.45258598176
789.4670148823006 11906.190195369518
790.4246885538596 11915.201772984477
791.3821218765861 11948.180891175336
792.3393149228505 11858.343360492396
793.2962677649975 11912.830279166868
794.2529804753303 11970.775273443345
795.20945312613 11933.410459495044
796.1656857896378 11901.069750326762
797.1216785380675 11974.410331061947
798.0774314435985 12038.922251035368
799.0329445783846 12105.57596419094
799.9882180145414 12150.151999845546
800.9432518241574 12171.330971836613
801.89804607929 12286.14760518399
802.852600851962 12308.251054486671
803.8069162141637 12494.540609315887
804.760992237856 12451.279278966516
805.714828994971 12637.593625250835
806.6684265574077 12587.475779684508
807.6217849970271 12535.068807237785
808.574904385674 12581.666335053558
809.527784795142 12627.905694010773
810.4804262972102 12506.854080105073
811.4328289636178 12329.706843893404
812.3849928660748 12289.300197843038
813.3369180762638 12216.472753171282
814.2886046658241 12084.942332243478
815.2400527063783 12021.404530544347
816.1912622695108 11868.743063560618
817.1422334267718 11706.004149676364
818.0929662496856 11682.151240650148
819.0434608097457 11606.948975798276
819.9937171784059 11481.125190518342
820.9437354271013 11442.22064266589
821.8935156272255 11404.169177056025
822.8430578501484 11308.06947056797
823.7923621672016 11306.128370558868
824.7414286496896 11288.632460096482
825.6902573688876 11256.359420931305
826.6388483960363 11254.890537165278
827.5872018023492 11123.367139000567
828.5353176590033 11068.456622528014
829.4831960371503 11091.445283189223
830.4308370079016 11164.362639352154
831.3782406423525 11024.370376045432
832.3254070115545 10955.9615274418
833.2723361865319 11003.577133505809
834.2190282382799 10937.306288682512
835.1654832377644 11076.07984281722
836.1117012559116 11014.227144697765
837.0576823636256 11031.763231665056
838.003426631778 10851.712247155818
838.9489341312074 10876.913746672
839.8942049327197 10925.07023870394
840.8392391070975 10926.268462180607
841.7840367250865 10860.243559228142
842.7285978573982 10793.306611410067
843.672922574724 10957.23226838459
844.6170109477152 10839.13779820503
845.560863046996 10895.520282268075
846.5044789431595 10774.148279345869
847.4478587067697 10830.166250249773
848.3910024083561 10878.927427994155
849.333910118421 10830.315612056733
850.2765819074339 10684.87436488957
851.2190178458332 10798.190953887384
852.161218004032 10828.170307633369
853.1031824524016 10796.383995670487
854.0449112612987 10759.832719882512
854.9864045010327 10759.83015051157
855.9276622418947 10720.557486233825
856.8686845541379 10754.67080246879
857.8094715079915 10727.053763608012
858.7500231736467 10823.30903544663
859.690339621271 10777.724197455194
860.6304209209939 10807.104801481013
861.5702671429244 10689.266855229696
862.5098783571284 10829.354452687177
863.4492546336569 10802.34206821808
864.3883960425155 10821.223294846659
865.3273026536863 10747.851373294916
866.2659745371238 10816.078271882598
867.2044117627465 10866.613732959686
868.1426144004472 10801.399217081378
869.0805825200823 10896.900175936502
870.0183161914847 10973.240024029812
870.9558154844526 10920.379948601054
871.8930804687552 10970.209032785891
872.8301112141307 11034.178568669322
873.7669077902865 11087.893782365752
874.7034702669062 11242.91558593584
875.6397987136315 11166.852419888102
876.5758932000863 11188.898747862288
877.5117537958522 11239.807475881771
878.4473805704911 11214.73760983041
879.3827735935283 11184.584127173832
880.3179329344603 11247.440854504875
881.2528586627541 11274.493580572544
882.1875508478479 11384.77531326253
883.1220095591489 11243.211384730459
884.0562348660296 11224.011837135178
884.9902268378391 11257.082501555164
885.9239855438955 11244.891203464946
886.8575110534839 11172.778375424938
887.7908034358588 11088.472506290227
888.7238627602474 11122.965313537268
889.6566890958475 11083.507179290838
890.5892825118208 10985.56988521809
891.5216430773125 10865.470413527575
892.4537708614189 10890.581260586792
893.3856659332196 10802.417384940632
894.3173283617652 10708.706482624271
895.2487582160684 10654.686497830218
896.179955565116 10576.221549202044
897.110920477864 10489.635966355509
898.0416530232451 10512.610220015198
898.9721532701478 10499.626057712103
899.9024212874428 10494.168586859323
900.8324571439662 10351.259801742119
901.7622609085302 10345.802246555173
902.6918326499072 10313.593061584423
903.6211724368477 10395.038547754073
904.5502803380696 10287.334848774331
905.4791564222614 10308.855498235895
906.4078007580792 10203.615424475363
907.3362134141571 10232.991129957594
908.2643944590909 10234.005788213164
909.1923439614493 10122.577678358606
910.1200619897754 10185.713875261203
911.0475486125779 10275.429912758133
911.9748038983344 10199.161397832786
912.9018279155007 10154.209834493922
913.8286207324982 10062.0708747023
914.7551824177117 10129.577767374618
915.6815130395116 10028.385462810627
916.6076126662283 9972.455420416727
917.533481366163 9966.090380985466
918.4591192075914 10015.86721124656
919.3845262587565 10046.309383356378
920.3097025878706 9979.028159514051
921.2346482631237 9892.528062245787
922.1593633526682 10014.651932962768
923.0838479246304 9971.308000672048
924.0081020471061 10032.197021956003
924.9321257881656 9883.321271019815
925.8559192158464 9920.069957519197
926.7794823981512 9903.109803154364
927.7028154030686 9922.994385950878
928.6259182985414 9848.160693234759
929.5487911524906 9939.240550479652
930.4714340328119 9780.164422711721
931.3938470073608 9781.105203702606
932.3160301439748 9805.63052414775
933.2379835104548 9850.130441771167
934.1597071745709 9893.242490697168
935.0812012040769 9866.266423760477
936.002465666681 9780.936666406607
936.9235006300696 9811.773163045906
937.8443061619055 9768.323135183786
938.7648823298077 9744.25313768761
939.6852292013809 9732.809286795093
940.6053468441951 9785.724594118703
941.5252353257874 9773.738901418836
942.4448947136698 9760.653000881037
943.364325075323 9815.645109068399
944.2835264782043 9726.943987248178
945.2024989897309 9784.854743446156
946.1212426773054 9782.727558176566
947.0397576082851 9732.918066118098
947.9580438500125 9752.15474624614
948.8761014697939 9694.88054507019
949.7939305349064 9798.665245895461
950.7115311125999 9728.426278509522
951.6289032700952 9837.39901399946
952.5460470745875 9669.04349109756
953.4629625932339 9781.642421930635
954.3796498931715 9767.69174049701
955.2961090415029 9780.085453892181
956.2123401053068 9780.866124948088
957.1283431516276 9699.587920042139
958.0441182474842 9625.026852097584
958.9596654598663 9822.15579722516
959.8749848557309 9698.415675758339
960.7900765020167 9663.08446341366
961.7049404656209 9576.717531814427
962.6195768134185 9675.870151493886
963.5339856122537 9680.266268318976
964.4481669289453 9686.804217951396
965.3621208302793 9544.437523227396
966.2758473830145 9642.051718019613
967.1893466538822 9568.2901240651
968.1026187095813 9650.64451360879
969.0156636167867 9550.19107159133
969.9284814421426 9723.014005559462
970.8410722522622 9522.086700467986
971.753436113735 9603.442345654503
972.6655730931161 9539.836026047215
973.5774832569368 9713.160324473634
974.4891666716958 9610.180322151136
975.4006234038698 9623.905131167237
976.3118535198955 9642.291746741916
977.2228570861935 9656.94389002299
978.1336341691494 9621.22464884818
979.0441848351202 9616.708734964492
979.9545091504333 9668.679919160644
980.864607181391 9683.591494613382
981.7744789942699 9617.406344599118
982.6841246553086 9711.512190204896
983.5935442307236 9567.94748094126
984.5027377867027 9624.912623231048
985.4117053894024 9745.786021048476
986.3204471049557 9636.610286078485
987.2289629994648 9583.461461349096
988.1372531390007 9800.255611797822
989.0453175896091 9754.932187278488
989.9531564173067 9795.774162747233
990.860769688079 9704.87867786828
991.7681574678918 9753.407105635937
992.6753198226706 9736.983202262363
993.582256818323 9754.795132966272
994.4889685207218 9718.36675720026
995.3954549957143 9803.965414289827
996.301716309119 9811.31891562678
997.2077525267232 9905.606437576269
998.1135637142943 9794.438141779128
999.0191499375615 9893.00584138664
999.924511262232 9770.4476729677
1000.8296477539861 9868.518531126807
1001.7345594784656 9789.266898020935
1002.6392465012996 9880.770913929484
1003.5437088880753 9911.723599364179
1004.4479467043584 9903.197379573086
1005.3519600156869 9687.04951063608
1006.2557488875718 9873.016093434797
1007.1593133854858 9759.791907739527
1008.0626535748888 9787.053299151805
1008.9657695212009 9683.173321471078
1009.8686612898182 9852.532959441742
1010.7713289461135 9842.880863882374
1011.6737725554212 9718.78779826164
1012.5759921830577 9694.788400197622
1013.4779878943027 9726.88072149346
1014.379759754418 9705.954415548349
1015.2813078286254 9539.850699758992
1016.18263218213 9553.05752325344
1017.0837328801026 9611.380701140613
1017.9846099876886 9575.797328476085
1018.8852635700023 9430.142930246579
1019.7856936921362 9457.507324560847
1020.6859004191447 9476.883011006064
1021.5858838160675 9383.898953241509
1022.4856439479063 9354.724355553024
1023.3851808796389 9343.37731196972
1024.2844946762143 9386.152946790447
1025.183585402554 9358.011220459031
1026.082453123554 9227.1394033783
1026.9810979040776 9173.709989405626
1027.8795198089647 9193.98887382656
1028.777718903024 9192.607780036353
1029.6756952510368 9237.39076816954
1030.5734489177648 9091.446010893531
1031.4709799679313 9186.515376776768
1032.3682884662358 9248.82120802363
1033.2653744773506 9101.790398383564
1034.1622380659192 9104.896838654495
1035.058879296559 9169.003752500266
1035.9552982338591 9194.766861072578
1036.8514949423825 9238.193580504547
1037.7474694866614 9135.975166480936
1038.6432219312028 9121.135906788473
1039.5387523404825 9367.360707189891
1040.4340607789582 9302.533879362369
1041.3291473110476 9336.54571252843
1042.2240120011465 9422.225922814703
1043.1186549136273 9519.811148219282
1044.0130761128294 9545.061678734955
1044.9072756630649 9579.379030051514
1045.8012536286205 9726.671987390708
1046.6950100737577 9746.806215868504
1047.588545062701 9867.794941471415
1048.481858659663 9859.959357081867
1049.3749509288118 9959.234906112422
1050.2678219343034 9959.15081889169
1051.1604717402515 10000.31235995589
1052.0529004107575 10014.536398160464
1052.9451080098825 10052.373552719078
1053.8370946016694 9966.40468791365
1054.7288602501267 9948.891448009601
1055.6204050192446 9860.676144980913
1056.511728972977 9862.844874583388
1057.402832175254 9747.842142527632
1058.2937146899785 9793.72762774269
1059.1843765810263 9657.09730575782
1060.0748179122456 9706.698660488903
1060.9650387474576 9728.62544646649
1061.855039150456 9646.855248572978
1062.7448191850071 9501.463595339921
1063.6343789148505 9558.087191431492
1064.5237184037014 9581.638493678684
1065.412837715241 9426.36628519127
1066.3017369131267 9304.494536885752
1067.190416060992 9321.809805799898
1068.0788752224398 9274.637109446683
1068.9671144610438 9249.901818925297
1069.8551338403558 9188.950928217057
1070.7429334239023 9261.073422906788
1071.6305132751695 9135.741474002503
1072.517873457633 9197.827492372377
1073.4050140347335 9055.923163227551
1074.2919350698776 9074.363432060993
1075.1786366264623 9062.912375241205
1076.0651187678395 8998.905433447924
1076.95138155735 8909.404080404822
1077.8374250582929 8931.281210846439
1078.7232493339507 8856.093343773744
1079.608854447577 8775.644827269207
1080.4942404623907 8737.491917828203
1081.3794074415982 8796.764618947136
1082.2643554483657 8825.210317459303
1083.149084545841 8685.264424559904
1084.033594797138 8573.430659567935
1084.9178862653516 8690.722712967032
1085.8019590135427 8745.144620648254
1086.6858131047484 8624.464911092953
1087.5694486019802 8692.042232713142
1088.4528655682225 8714.830451153797
1089.3360640664287 8672.29554656543
1090.2190441595321 8571.80240156131
1091.1018059104317 8699.046967651804
1091.98434938201 8696.963886770453
1092.866674637111 8687.808652612182
1093.748781738559 8580.647523046391
1094.6306707491512 8487.395614435343
1095.5123417316554 8588.455133249852
1096.3937947488157 8499.865125262522
1097.2750298633455 8557.141791507407
1098.156047137938 8521.019188671316
1099.0368466352556 8529.776964423418
1099.9174284179317 8533.517916628029
1100.7977925485757 8471.77064789973
1101.6779390897755 8433.899406970133
1102.5578681040806 8471.158327442008
1103.4375796540226 8421.219112901465
1104.3170738021054 8372.629664876671
1105.1963506108077 8299.451716525093
1106.0754101425773 8404.600209289421
1106.9542524598382 8385.501018148674
1107.8328776249855 8390.323876117676
1108.7112857003904 8440.030092612034
1109.5894767483987 8373.881081831021
1110.4674508313292 8468.74141475545
1111.3452080114657 8412.305080148857
1112.2227483510815 8436.885720977005
1113.1000719124077 8561.76792314692
1113.9771787576592 8495.476681784032
1114.854068949022 8521.822894338184
1115.7307425486542 8558.5245484302
1116.6071996186893 8617.314816165013
1117.483440221229 8688.87169240016
1118.3594644183577 8810.990596487354
1119.235272272128 8748.354016540648
1120.1108638445658 8829.74606181282
1120.9862391976712 8953.80050374454
1121.8613983934229 9047.15010020068
1122.7363414937627 9024.164918899263
1123.6110685606182 9170.475206734187
1124.485579655884 9252.93387749996
1125.359874841426 9357.806655271172
1126.2339541790916 9273.442580742336
1127.1078177306936 9407.244239805792
1127.9814655580267 9328.324634539418
1128.854897722851 9452.799888354988
1129.7281142869106 9542.03552685313
1130.6011153119125 9552.591116559584
1131.473900859548 9559.522527834053
1132.3464709914697 9478.077801257028
1133.2188257693178 9419.912745185029
1134.0909652546961 9424.200851251986
1134.96288950919 9300.04186414779
1135.8345985943506 9344.990629106676
1136.7060925717087 9227.225225066119
1137.57737150277 9202.667176460991
1138.4484354490069 9110.837687917374
1139.3192844718778 9032.354045933092
1140.1899186327992 8848.52992040354
1141.060337993178 8906.143472056378
1141.930542614382 8784.86193688762
1142.8005325577597 8705.945281650027
1143.670307884635 8552.348954989913
1144.5398686563003 8526.201281791175
1145.409214934025 8445.380192648317
1146.2783467790541 8419.580552915091
1147.1472642526023 8312.382923270441
1148.0159674158622 8349.274449130107
1148.8844563300026 8142.925856934674
1149.7527310561618 8133.54576294933
1150.6207916554504 8089.773355801459
1151.4886381889592 8055.971962578844
1152.3562707177498 8040.646152126603
1153.2236893028585 7990.028879964438
1154.090894005296 7914.302020852758
1154.9578848860474 7962.145930468401
1155.8246620060709 7850.951995986341
1156.6912254262988 7900.208076367233
1157.5575752076438 7850.432362056296
1158.42371141098 7922.42273288119
1159.2896340971656 7858.477036785162
1160.1553433270346 7832.294976859327
1161.0208391613887 7850.374052438077
1161.8861216610057 7741.41651420936
1162.75119088664 7852.651699940992
1163.6160468990201 7688.519684339859
1164.4806897588442 7703.709001414734
1165.3451195267917 7789.8700085687615
1166.2093362635114 7776.959406983855
1167.0733400296285 7688.547053464079
1167.9371308857444 7744.950017927573
1168.8007088924278 7719.527323510743
1169.6640741102328 7688.086789513759
1170.5272265996773 7732.8269293575995
1171.390166421259 7551.539394675581
1172.252893635452 7688.01938630268
1173.1154083026995 7761.7851234355185
1173.977710483421 7791.467314849442
1174.8398002380145 7653.514630603078
1175.7016776268483 7759.398054286685
1176.563342710264 7685.760975140367
1177.4247955485826 7663.3887073722
1178.2860362020947 7798.539102145811
1179.147064731069 7624.461042342012
1180.0078811957483 7792.381626051327
1180.8684856563486 7697.351342964292
1181.7288781730604 7782.207083709944
1182.589058806052 7870.078146755797
1183.4490276154593 7842.400329059613
1184.3087846614017 7787.215250441429
1185.1683300039676 7992.9966622899665
1186.027663703222 8035.952432584691
1186.8867858192025 8013.180568004837
1187.7456964119228 7989.681159065885
1188.6043955413716 7988.993286302326
1189.4628832675116 8046.592559988172
1190.3211596502842 8079.589495659346
1191.179224749596 8145.127760128128
1192.0370786253388 8002.837951477505
1192.8947213373758 8274.798511764293
1193.7521529455407 8302.8154144294
1194.6093735096438 8193.26872848588
1195.466383089477 8321.109298528896
1196.3231817447977 8270.843966106133
1197.1797695353398 8353.696773088825
1198.0361465208189 8315.789137876814
1198.8923127609214 8255.709660220888
1199.7482683153048 8420.143371801092
1200.6040132436028 8528.724298059631
1201.459547605431 8370.778885047059
1202.3148714603722 8308.838320086319
1203.1699848679855 8254.426647608616
1204.0248878878065 8361.636196824758
1204.8795805793507 8192.665027054396
1205.7340630020935 8237.313587896175
1206.5883352155033 8329.880969620557
1207.4423972790064 8186.0457985852
1208.2962492520237 8198.003677365756
1209.1498911939307 8167.446390712462
1210.0033231640937 8155.2875691901445
1210.8565452218427 7940.529487907201
1211.7095574264913 7908.74556225446
1212.5623598373222 7881.454279592103
1213.4149525135963 7773.913257509256
1214.2673355145507 7878.313385336779
1215.1195088993936 7732.097796307437
1215.9714727273113 7737.529127771221
1216.8232270574663 7833.966390408119
1217.6747719489904 7643.216956182625
1218.5261074609934 7664.789494677268
1219.3772336525653 7680.857716481044
1220.2281505827668 7613.47635201698
1221.0788583106296 7685.596330196579
1221.9293568951707 7626.796382677836
1222.7796463953746 7431.320911820502
1223.629726870202 7606.75712767034
1224.4795983785934 7526.722409342692
1225.3292609794553 7467.630578648232
1226.1787147316809 7425.481868724634
1227.0279596941327 7470.624250918154
1227.8769959256424 7538.080468866606
1228.7258234850306 7520.61610093104
1229.5744424310833 7359.383021323045
1230.422852822563 7436.284403793912
1231.2710547182105 7436.319556703228
1232.119048176739 7360.038232985511
1232.9668332568417 7316.731631165958
1233.8144100171812 7404.752237099895
1234.6617785163999 7404.160932114972
1235.508938813111 7259.4995856721
1236.3558909659114 7305.955477276604
1237.2026350333617 7426.115744455596
1238.049171074008 7455.41096778021
1238.8954991463652 7326.980107200764
1239.741619308932 7316.442396491357
1240.587531620169 6119.2299540376
1241.4332361385277 7422.345072734574
1242.2787329224248 7290.756889343915
1243.1240220302534 7213.256327022255
1243.9691035203869 7196.917205340872
1244.813977451171 7433.234763662249
1245.6586438809263 7331.291894572006
1246.5031028679496 7260.188086321354
1247.3473544705157 7365.667056000797
1248.1913987468706 7243.060163461785
1249.0352357552383 7263.677373640739
1249.8788655538228 7208.7641421329
1250.7222882007918 7383.100352583211
1251.565503754302 7274.538653753509
1252.4085122724755 7191.958818229972
1253.2513138134182 7303.7574006114355
1254.0939084352049 7239.5675470477
1254.9362961958905 7211.265503550143
1255.7784771535007 7294.60676712798
1256.6204513660432 7198.358679795975
1257.4622188915 7270.605929854998
1258.3037797878242 7287.488031615125
1259.1451341129468 7171.084257770732
1259.9862819247755 7224.494711205514
1260.8272232811978 7184.168752617714
1261.6679582400666 7143.429295939781
1262.5084868592203 7131.204335586811
1263.34880919647 7182.15460089868
1264.1889253095997 7090.682257466024
1265.0288352563712 7116.742548378356
1265.8685390945266 7112.821194466271
1266.7080368817751 7175.791908110972
1267.5473286758115 7214.400025674251
1268.386414534294 7240.540754720334
1269.2252945148703 7100.498170323008
1270.0639686751547 7086.957354762961
1270.9024370727402 7123.388087093719
1271.7406997651997 7179.337657874652
1272.5787568100714 6990.355673240201
1273.4166082648808 7071.512068654361
1274.2542541871244 7131.591275916282
1275.091694634275 7123.599492429011
1275.9289296637817 7015.317521778658
1276.7659593330663 7127.474617553159
1277.6027836995308 7057.161124334452
1278.4394028205552 7108.271636758196
1279.2758167534867 7082.186817373702
1280.112025555658 7025.818484795022
1280.9480292843746 7124.536193724484
1281.7838279969128 6965.441504455256
1282.6194217505326 7042.813577328723
1283.4548106024686 6947.086992781116
1284.289994609926 7057.258095896299
1285.1249738300921 7064.358451535287
1285.959748320127 7005.213839811491
1286.7943181371702 7070.637690694527
1287.6286833383328 7036.543144400663
1288.4628439807038 7094.930735830841
1289.2968001213521 6941.774330162293
1290.1305518173194 6962.342105268927
1290.9640991256183 7109.003870787089
1291.7974421032523 7018.020215576367
1292.630580807183 6923.31458149291
1293.463515294361 7018.85734172137
1294.29624562171 7129.30518651039
1295.12877184613 7059.931162277698
1295.961094024493 6921.795212446095
1296.79321221365 7015.119876296354
1297.6251264704333 7095.263939747894
1298.4568368516466 7144.851003906489
1299.2883434140658 7174.247180602729
1300.1196462144526 6935.920498529903
1300.9507453095375 7075.451569018507
1301.7816407560313 7123.379214315652
1302.6123326106172 7097.832041594716
1303.4428209299622 7052.842252221431
1304.2731057707024 7221.021701973346
1305.1031871894502 7131.120448340569
1305.933065242798 7169.771761647142
1306.7627399873181 7094.451354359483
1307.5922114795467 7343.956985566193
1308.4214797760123 7159.753773195547
1309.2505449332057 7261.615062020312
1310.0794070076026 7171.920085305416
1310.9080660556538 7230.9226706644895
1311.736522133786 7199.407767136045
1312.5647752983987 7242.042477190256
1313.3928256058734 7147.784285476159
1314.2206731125661 7206.319800980935
1315.048317874809 7250.789563622765
1315.8757599489109 7255.023972440375
1316.7029993911547 7340.496239175029
1317.5300362578055 7368.099108542929
1318.356870605101 7233.1612733592265
1319.183502489257 7273.56775629788
1320.0099319664623 7330.875125950746
1320.836159092889 7380.889671271097
1321.66218392468 7324.772295282453
1322.4880065179532 7284.013388300332
1323.3136269288134 7399.245526765553
1324.1390452133292 7340.04621307769
1324.9642614275563 7484.802192129357
1325.7892756275214 7294.815842325401
1326.6140878692295 7242.98964717332
1327.4386982086617 7460.6904085433725
1328.2631067017755 7321.136331358462
1329.0873134045069 7356.759717488385
1329.911318372764 7228.418541836972
1330.735121662441 7302.653113398861
1331.558723329399 7328.013213491458
1332.3821234294774 7268.586095977104
1333.2053220185007 7340.157360631699
1334.0283191522612 7277.85018472625
1334.851114886529 7268.357562047607
1335.6737092770582 7205.022647172087
1336.4961023795695 7130.964970264487
1337.3182942497697 7172.212904833051
1338.1402849433325 7191.586642931865
1338.962074515921 7127.258527026432
1339.7836630231632 7091.858892605351
1340.6050505206676 7292.752071439709
1341.426237064028 7131.161620091503
1342.2472227088037 7115.0156196277485
1343.0680075105338 7071.9663089884925
1343.888591524741 7129.201526413303
1344.7089748069138 7088.13006770785
1345.5291574125276 7130.924024785252
1346.3491393970307 7028.56773091397
1347.168920815846 7117.524697229215
1347.9885017243778 7050.751214574304
1348.8078821780036 6973.920733283017
1349.6270622320844 6979.052407349666
1350.4460419419447 7018.978970721013
1351.2648213629054 6920.340395190566
1352.0834005502438 7037.863389428877
1352.90177955923 6894.80918251222
1353.7199584451064 7051.811684738178
1354.5379372630887 7022.189834670431
1355.355716068374 6983.3227094458
1356.1732949161305 6960.328781085564
1356.9906738615155 6907.153219953655
1357.8078529596478 6967.346064324192
1358.6248322656375 6958.625890121826
1359.441611834567 6873.932338457652
1360.2581917214866 6967.952930357178
1361.0745719814367 6838.576308407229
1361.890752669433 6972.824900079165
1362.7067338404577 6970.6678964016955
1363.5225155494845 6935.616879050542
1364.3380978514506 6967.899252711242
1365.1534808012839 6848.814630996919
1365.9686644538815 6770.075130038412
1366.783648864117 6988.13886824568
1367.5984340868417 6918.5520163164565
1368.413020176893 6842.272675935836
1369.2274071890715 6905.766901757785
1370.0415951781652 6887.265852751686
1370.8555841989346 6974.749850893057
1371.6693743061223 6718.447454207373
1372.48296555444 6616.479276379365
1373.2963579985844 6840.685489960824
1374.1095516932255 6760.841674432903
1374.9225466930166 6681.963456107214
1375.7353430525782 6710.803187560702
1376.5479408265164 6800.589197032178
1377.36034006941 6667.3184952514075
1378.1725408358216 6774.401178436741
1378.9845431802805 6688.085516080921
1379.796347157304 6833.854724808359
1380.6079528213813 6793.503951537498
1381.4193602269788 6710.240436501289
1382.230569428546 6597.381347666256
1383.0415804805016 6710.68744763368
1383.852393437246 6559.029156719813
1384.6630083531563 6567.194795380396
1385.4734252825892 6600.5650017686985
1386.2836442798798 6722.595561698348
1387.0936653993322 6610.697708196678
1387.9034886952395 6623.393119657407
1388.713114221864 6539.040205361077
1389.5225420334482 6665.096391274179
1390.331772184214 6535.170573950455
1391.1408047283585 6424.974463526951
1391.9496397200564 6545.963214285197
1392.758277213461 6649.698623051214
1393.5667172627054 6616.827377253901
1394.3749599218918 6548.158791017906
1395.1830052451114 6491.200599991853
1395.9908532864265 6499.504911021505
1396.7985040998774 6474.767920641961
1397.6059577394808 6453.795703173733
1398.4132142592352 6519.960120624665
1399.2202737131156 6461.832878550299
1400.027136155073 6575.0500873384535
1400.8338016390353 6454.23495997781
1401.6402702189134 6326.279605638167
1402.446541948586 6472.215266267579
1403.2526168819204 6468.155135598543
1404.058495072757 6290.848465807341
1404.8641765749107 6369.806592639616
1405.6696614421799 6505.22622256814
1406.4749497283356 6515.032819771549
1407.280041487129 6259.078458313249
1408.084936772295 6134.56404173842
1408.8896356375335 6386.208314659083
1409.6941381365323 6355.392508182035
1410.498444322955 6175.5965765126575
1411.3025542504402 6207.6577582031405
1412.106467972606 6236.6332026092505
1412.9101855430508 6194.437755886296
1413.7137070153458 6046.734076550476
1414.5170324430437 6139.188807934065
1415.320161879672 6242.20323956229
1416.1230953787435 6200.247584374882
1416.925832993742 6069.140475717296
1417.7283747781275 6025.897334048766
1418.5307207853439 6065.867412823432
1419.3328710688093 6073.197796144068
1420.134825681922 5965.46829223779
1420.9365846780584 6082.2339480189685
1421.7381481105713 6054.20509145976
1422.539516032788 5981.519085525193
1423.3406884980232 5929.5442990078245
1424.1416655595604 5929.968403870655
1424.942447270665 5912.081861001369
1425.7430336845828 5971.64282285421
1426.5434248545298 5900.564782951482
1427.3436208337116 5998.0043015510055
1428.143621675301 5935.514333916143
1428.9434274324558 5976.455440132716
1429.7430381583108 5820.6678626024095
1430.5424539059713 5928.407601391646
1431.3416747285337 5949.356416789715
1432.1407006790632 5870.26958873227
1432.9395318106053 5921.654892019824
1433.7381681761835 5783.118372975323
1434.5366098288014 5944.913445521879
1435.3348568214424 5800.680778111414
1436.1329092070573 5831.25719400796
1436.9307670385879 5897.992273818521
1437.7284303689503 6021.464002176634
1438.5258992510335 5867.374868106659
1439.3231737377118 5898.220376693819
1440.1202538818306 5863.433554273603
1440.9171397362225 5702.538703627212
1441.7138313536925 5878.036252438188
1442.5103287870243 5779.823858375636
1443.3066320889775 5697.948746006185
1444.1027413122956 5789.503444299183
1444.8986565096966 5764.386628928874
1445.694377733882 5866.663006600063
1446.4899050375207 5667.914956375788
1447.2852384732687 5710.02303403362
1448.0803780937622 5699.076770823136
1448.8753239516063 5657.381556387647
1449.6700760993954 5633.217874476345
1450.464634589689 5727.4301350196165
1451.2589994750397 5835.48187685654
1452.0531708079689 5556.150839522778
1452.8471486409799 5531.931022782981
1453.6409330265524 5724.12814758744
1454.4345240171442 5498.7935521881855
1455.2279216651987 5661.668958600784
1456.0211260231263 5507.725616044461
1456.8141371433194 5822.640170293056
1457.6069550781594 5624.107742580623
1458.3995798799897 5525.09871985284
1459.1920116011424 5440.49360364297
1459.98425029393 5507.335155343146
1460.7762960106338 5537.014123618556
1461.5681488035225 5483.472128962923
1462.3598087248392 5383.740377042204
1463.1512758268036 5591.875318460751
1463.942550161617 5367.755033762101
1464.7336317814625 5443.658228236647
1465.524520738496 5438.5431923192755
1466.3152170848552 5449.781249926575
1467.1057208726506 5330.107764718258
1467.8960321539817 5384.447615582892
1468.6861509809169 5345.044671426334
1469.4760774055085 5440.5806666909775
1470.265811479785 5228.401256027119
1471.055353255755 5317.575189225574
1471.844702785409 5268.908495913203
1472.6338601207044 5399.678214195971
1473.4228253135934 5352.335244752261
1474.2115984159936 5321.686812457863
1475.0001794798063 5240.259282877315
1475.7885685569145 5227.2779879342
1476.576765699172 5221.594448602065
1477.3647709584238 5169.495328049921
1478.1525843864802 5352.9057532898705
1478.9402060351367 5246.302595077329
1479.7276359561693 5280.838678003596
1480.514874201328 5321.614188317791
1481.3019208223468 5111.18337229663
1482.0887758709323 5121.382596404854
1482.8754393987747 5266.306310658831
1483.6619114575406 5197.3377760520225
1484.4481920988783 5187.587828666546
1485.2342813744108 5234.8216605137595
1486.0201793357446 5254.425589281823
1486.8058860344572 5096.9815789387685
1487.591401522117 5169.614082403783
1488.3767258502594 5212.17855822564
1489.1618590704056 5230.507146443912
1489.9468012340494 5030.78502228025
1490.7315523926754 5173.900177751295
1491.5161125977356 5273.09894753196
1492.3004819006637 5291.332271164362
1493.084660352877 5116.419094038764
1493.8686480057622 5245.271311015333
1494.6524449106964 5250.724581779496
1495.4360511190262 5356.420220190573
1496.219466682087 5292.6259809920875
1497.0026916511779 5206.634012429789
1497.7857260775945 5331.606668377933
1498.5685700125996 5139.628173909974
1499.3512235074395 5168.934194470543
1500.133686613337 5134.822195420772
1500.9159593814966 5147.514982565203
1501.698041863101 5340.284494565447
1502.4799341093094 5160.887828332346
1503.2616361712662 5062.5733523372455
1504.043148100087 5174.196302404323
1504.8244699468742 5209.912940624516
1505.6056017626997 5109.347797048124
1506.3865435986281 5142.674852798369
1507.1672955056893 5124.4094689518915
1507.9478575348967 5071.198600774937
1508.7282297372512 5269.373476076347
1509.5084121637192 5130.698683743608
1510.2884048652577 5016.894478509001
1511.0682078927948 5093.3830829660155
1511.8478212972423 5089.355293062474
1512.6272451294917 5078.052106162011
1513.4064794404076 5106.894830029611
1514.1855242808433 5045.390727910668
1514.9643797016215 5210.947112873959
1515.743045753552 5155.172240975875
1516.5215224874191 5174.907946538426
1517.2998099539836 5055.499731337635
1518.077908203999 5066.677149139322
1518.8558172881785 5140.415350988676
1519.633537257234 5142.650980266718
1520.4110681618404 5093.920028038194
1521.1884100526604 4987.306952691613
1521.9655629803365 5041.988107278337
1522.7425269954856 5110.827757684092
1523.5193021487103 5275.8276173162685
1524.2958884905856 5105.24662743279
1525.0722860716687 5077.156966051248
1525.848494942502 5027.46678445052
1526.624515153595 4993.577213709309
1527.4003467554485 5153.134565220198
1528.175989798534 5171.4636980175355
1528.9514443333064 5191.002659912916
1529.726710410203 5208.656321195179
1530.5017880796331 5045.772647061092
1531.276677391992 5067.524308636738
1532.0513783976457 5142.259634430652
1532.825891146953 5178.683658119948
1533.6002156902414 5146.489000897307
1534.3743520778207 5056.7352438440885
1535.1483003599806 5055.939599326994
1535.9220605869923 5076.309603458257
1536.6956328091019 5218.26954549065
1537.4690170765407 4993.347655751702
1538.242213439511 5080.256626731874
1539.015221948208 5069.49242639948
1539.78804265279 5210.990561266299
1540.560675603405 4936.280991412521
1541.3331208501804 5081.452085530924
1542.1053784432224 5210.382709433724
1542.8774484326168 5131.776547181138
1543.649330868422 5130.779343855448
1544.4210258006842 5094.7840624367955
1545.1925332794308 5199.933269187788
1545.9638533546604 5159.986296228695
1546.7349860763552 5127.856237275505
1547.5059314944829 5282.514697687706
1548.27668965898 5145.288357465179
1549.0472606197673 5216.696610254353
1549.817644426752 5142.07091120284
1550.5878411298072 5168.988795252483
1551.3578507787988 5225.3805349593395
1552.1276734235635 5114.441337439371
1552.8973091139233 5184.670549189641
1553.6667578996767 5181.912699783161
1554.436019830604 5195.537106588499
1555.20509495646 5160.44196526228
1555.9739833269869 5052.993717316742
1556.7426849919011 5203.78950364312
1557.511200000903 5227.171481207457
1558.2795284036674 5283.187974922583
1559.0476702498509 5263.631035971564
1559.8156255890954 5270.036991140824
1560.5833944710157 5335.020812274387
1561.3509769452048 5176.247200057315
1562.1183730612447 5262.405649595397
1562.8855828686865 5120.780235668332
1563.6526064170703 5320.6283878041395
1564.4194437559127 5285.33471987853
1565.1860949347047 5296.719995290919
1565.9525600029283 5376.496851152723
1566.7188390100328 5378.929045215864
1567.4849320054564 5276.766015324629
1568.250839038612 5174.077124935622
1569.0165601588997 5226.070792343619
1569.7820954156887 5237.381187011064
1570.5474448583373 5211.805160722702
1571.31260853618 5119.154151627349
1572.0775864985299 5117.017012598474
1572.8423787946813 5229.533288153906
1573.6069854739108 5250.3479695213655
1574.371406585471 5229.045544049137
1575.1356421785986 5272.10960877899
1575.899692302506 5159.488645241315
1576.6635570063845 5220.5267872609365
1577.4272363394157 5240.079406785754
1578.190730350747 5112.7845166317875
1578.9540390895163 5227.440951738061
1579.7171626048384 4963.787836652743
1580.480100945806 5182.776109524062
1581.2428541614918 5079.717073647328
1582.0054223009538 5007.065981315716
1582.767805413223 5097.523947519616
1583.5300035473156 5129.3994196375625
1584.292016752228 5193.577467102988
1585.0538450769309 4991.929997582187
1585.8154885703807 5074.71585164866
1586.5769472815136 4990.567261321853
1587.3382212592405 5153.503443481495
1588.099310552463 5089.178472848895
1588.8602152100484 5023.548861714465
1589.6209352808564 5196.900958277125
1590.3814708137234 4923.030364047992
1591.14182185746 5386.555909478786
1591.9019884608679 5077.529254360068
1592.6619706727215 4992.570444517786
1593.4217685417734 5186.138721830752
1594.1813821167616 5054.8883853430325
1594.9408114464022 4964.320809117195
1595.7000565793933 5034.675623460282
1596.459117564409 5116.354956659723
1597.2179944501113 5088.485632205584
1597.9766872851324 4933.113822134501
1598.735196118092 5141.703303779465
1599.4935209975883 5054.189167340339
1600.2516619721973 5020.510584803003
1601.0096190904787 4993.636110878545
1601.7673924009723 5028.571687632151
1602.524981952196 4939.277412133343
1603.2823877926476 4896.223509742457
1604.0396099708087 4950.019122053402
1604.7966485351371 4902.373449618828
1605.5535035340745 5037.716350018503
1606.3101750160404 5084.993701055046
1607.0666630294363 4939.320791668805
1607.822967622642 4918.886235252511
1608.5790888440224 4896.939332720078
1609.3350267419137 5019.150987493089
1610.0907813646445 4887.708020534978
1610.8463527605145 4953.234089398363
1611.601740977805 4946.284585908868
1612.356946064785 4982.693094259418
1613.1119680696902 4950.119630017417
1613.8668070407512 5053.577087506429
1614.6214630261748 4837.4967966364065
1615.375936074137 4983.996452691093
1616.1302262328118 4803.245161479881
1616.8843335503425 5001.953389066177
1617.638258074854 4797.966228964649
1618.391999854457 4845.465377317784
1619.1455589372363 5018.5911717760955
1619.8989353712623 5021.4792724766085
1620.65212920458 4803.813145580611
1621.4051404852235 4831.265060896298
1622.1579692611976 4787.473525400137
1622.9106155804966 4727.44111967398
1623.663079491087 4809.995271728789
1624.4153610409248 4880.856642747095
1625.1674602779385 4821.175390990021
1625.9193772500403 4746.27867843102
1626.6711120051277 4754.011350778078
1627.4226645910676 4814.64960000904
1628.174035055721 4606.478419440981
1628.9252234469168 4781.978681990198
1629.676229812474 4717.982508082107
1630.4270542001905 4803.872701139023
1631.1776966578382 4768.4916578616485
1631.9281572331747 4751.027659806243
1632.678435973945 4848.756040049759
1633.4285329278573 4799.206806234844
1634.1784481426203 4624.429099766605
1634.9281816659113 4708.312289881219
1635.677733545388 4861.1533930680935
1636.4271038286934 4678.475027737422
1637.176292563452 4751.715201659485
1637.9252997972635 4743.278777961385
1638.674125577716 4818.576980666016
1639.4227699523672 4858.745367584129
1640.171232968767 4673.7461713142975
1640.9195146744423 4751.934368556078
1641.6676151168977 4916.058337525083
1642.4155343436178 4889.1202076322215
1643.1632724020765 4755.051198315917
1643.9108293397167 4774.48417523867
1644.658205203974 4781.690381066307
1645.4054000422566 5082.073520841644
1646.1524139019566 4729.874355614201
1646.8992468304423 4686.212254836089
1647.6458988750728 4789.458323948844
1648.3923700831765 4810.023620597973
1649.1386605020743 4777.687078664119
1649.8847701790564 4888.0845497613145
1650.6306991614038 4860.04801368663
1651.3764474963682 4775.663784226769
1652.1220152311944 4654.130942189492
1652.867402413096 4862.697656366869
1653.6126090892776 4748.473093866545
1654.3576353069184 4968.259567449409
1655.1024811131829 4757.5337538768745
1655.8471465552066 4874.355848874279
1656.5916316801213 4866.256529202916
1657.3359365350298 4883.5537757163565
1658.0800611670165 4715.5021515690005
1658.824005623148 4685.805834336208
1659.5677699504722 4662.572747040021
1660.3113541960192 4663.960814223952
1661.054758406799 4658.349767493628
1661.7979826297997 4599.193951186955
1662.5410269119966 4617.842130127718
1663.283891300338 4699.0223201963645
1664.0265758417645 4600.231016690477
1664.7690805831826 4631.613328074639
1665.5114055714948 4558.834890483844
1666.2535508535748 4683.781015333509
1666.9955164762814 4343.1250469106635
1667.7373024864555 4502.85205592531
1668.478908930916 4579.4403151595725
1669.220335856462 4429.975632127323
1669.9615833098778 4464.8529660103395
1670.7026513379296 4466.959643566774
1671.44353998736 4459.852586652122
1672.1842493048916 4391.681341647188
1672.9247793372379 4427.744588573507
1673.6651301310812 4447.152149828435
1674.4053017330934 4464.138988690484
1675.1452941899242 4377.147043379805
1675.885107548207 4049.0800129435875
1676.6247418545518 4112.701104128663
1677.3641971555535 4125.427273899177
1678.1034734977893 4303.629975578272
1678.8425709278108 4283.655651956203
1679.5814894921605 4427.889426877196
1680.320229237359 4247.733940012136
1681.0587902098978 4311.770628188258
1681.7971724562685 4161.892471431043
1682.5353760229264 4072.972680942831
1683.2734009563173 4180.743237381283
1684.0112473028657 3941.656878536263
1684.7489151089794 4043.790447077973
1685.4864044210462 4198.896754950015
1686.2237152854377 3920.696896220744
1686.960847748498 3982.296169696442
1687.6978018565642 3984.1155035855145
1688.434577655944 3981.783259193048
1689.1711751929379 3914.31341102846
1689.9075945138156 3998.511857310377
1690.6438356648396 3960.7734992156998
1691.3798986922448 3670.4974260788103
1692.1157836422499 3838.1261149066827
1692.851490561059 3810.538425773553
1693.587019494853 3774.5882483089204
1694.3223704897991 3704.0247241631632
1695.0575435920364 3676.921632054942
1695.792538847696 3828.5069265232764
1696.527356302886 3794.565918596609
1697.2619960036936 3669.911100040288
1697.9964579961907 3650.490992197517
1698.730742326432 3550.650217130141
1699.4648490404488 3644.7744772249216
1700.1987781842563 3667.2964280046604
1700.9325298038548 3577.7946889774285
1701.6661039452174 3710.450818602166
1702.3995006543082 3720.8505952474675
1703.1327199770658 3588.9673753393035
1703.865761959416 3622.4030734742582
1704.598626647261 3681.810743451282
1705.3313140864866 3447.1301840877522
1706.0638243229587 3545.8548018152637
1706.7961574025303 3599.1060427442962
1707.528313371029 3468.681201853098
1708.260292274268 3435.378829740559
1708.9920941580403 3486.0570314321426
1709.7237190681226 3443.367922451661
1710.4551670502697 3425.545941755521
1711.18643815022 3349.036315723561
1711.9175324136959 3650.2282828811412
1712.6484498863938 3436.6332552498666
1713.379190614005 3286.755417529849
1714.109754642188 3404.139834636112
1714.8401420165883 3436.53757494108
1715.570352782839 3490.7832428343813
1716.3003869865497 3467.8699454666917
1717.0302446733076 3328.0312393645227
1717.7599258886876 3474.1879411088
1718.4894306782444 3522.7788812885033
1719.2187590875183 3129.242969908813
1719.9479111620203 3457.066510073797
1720.6768869472544 3323.8411325993425
1721.4056864887025 3507.892331457863
1722.1343098318284 3453.2227145167476
1722.8627570220742 3409.723881495672
1723.591028104871 3311.311275988126
1724.3191231256242 3193.8449930367647
1725.0470421297232 3288.800232604755
1725.7747851625427 3406.984671332416
1726.5023522694337 3366.936051512691
1727.2297434957363 3338.6526632890773
1727.9569588867635 2971.010045299424
1728.6839984878152 3286.9406829534682
1729.4108623441734 3147.63638718486
1730.1375505011038 3379.1633088995245
1730.8640630038426 3318.305753341991
1731.5903998976264 3207.15245639331
1732.316561227657 3175.683914369556
1733.0425470391274 3155.822349353776
1733.7683573772065 3139.115772039173
1734.4939922870508 3222.676706900963
1735.2194518137949 3257.6618132582435
1735.9447360025606 3246.0987035539447
1736.669844898439 3189.294949596606
1737.3947785465189 3179.4362476604842
1738.1195369918605 3009.6637892809176
1738.8441202795093 3276.5473412498604
1739.5685284544943 3259.0498243235343
1740.292761561821 3264.2858250201957
1741.0168196464838 3236.439639007957
1741.7407027534518 3263.6673901567306
1742.464410927687 3129.154179500908
1743.187944214118 3134.973617205181
1743.9113026576688 3076.4724588398253
1744.634486303241 3160.2367503636137
1745.3574951957125 3241.2783757000384
1746.0803293799509 3231.0791251467213
1746.8029889008048 3318.8782392908374
1747.5254738031017 3131.6613343908543
1748.2477841316504 3021.320003326658
1748.969919931249 3076.9043010710593
1749.6918812466665 2989.488915795881
1750.4136681226646 3100.900848308972
1751.1352806039777 3080.041685868643
1751.856718735331 2977.763511760675
1752.5779825614281 3038.4902654740245
1753.2990721269507 3223.875412635253
1754.0199874765676 3120.893609043097
1754.7407286549314 2932.673003438067
1755.4612957066693 3130.081978755205
1756.1816886763954 3026.1612443782824
1756.9019076087097 3117.115158418922
1757.6219525481865 3227.404974242681
1758.3418235393856 3128.478197404359
1759.061520626854 3011.138648602221
1759.7810438551096 3149.6914359957136
1760.5003932686614 2979.4384062777053
1761.2195689119999 2982.357117995908
1761.938570829594 3161.9254015215897
1762.657399065898 3074.9496940691147
1763.376053665348 2900.1029757487368
1764.0945346723602 2883.260569118119
1764.812842131334 3097.1135443675153
1765.5309760866512 2769.8226070126975
1766.2489365826787 2838.521243897392
1766.9667236637597 2945.347770690455
1767.684337374223 2914.3314453101098
1768.401777758383 2820.133738834381
1769.1190448605284 3061.345167267178
1769.836138724937 2854.821348154125
1770.5530593958665 2999.2201123336718
1771.2698069175603 3066.1411918227886
1771.9863813342326 3074.338769789297
1772.702782690094 2859.6118991107705
1773.4190110293293 3272.6822034465586
1774.1350663961111 2965.574623248432
1774.8509488345844 2991.1825698636467
1775.5666583888924 2959.909817309899
1776.2821951031437 3013.93764594084
1776.9975590214362 2956.8290947184255
1777.7127501878585 3010.0996079975325
1778.4277686464684 3109.197148073664
1779.1426144413108 2876.05593411059
1779.8572876164162 2907.394107375948
1780.571788215797 2792.859651161928
1781.2861162834415 2941.012465945793
1782.0002718633277 2946.3532652335325
1782.7142549994132 2950.8862469922196
1783.4280657356376 2885.203662329058
1784.141704115922 2843.4219505833125
1784.855170184177 2926.50403345047
1785.5684639842839 2923.0737071310873
1786.2815855601148 2778.0237771264574
1786.9945349555237 2928.0715777919568
1787.707312214343 2786.9464148218817
1788.4199173803918 3117.428849529556
1789.132350497468 2840.4171244842373
1789.8446116093583 2937.4290695058453
1790.556700759822 2776.3868620204025
1791.2686179926077 2981.2678891783116
1791.9803633514493 2873.849798613449
1792.6919368800554 2808.5631239902614
1793.4033386221236 2908.8070652113415
1794.1145686213295 3091.744554515736
1794.8256269213307 3031.203892933123
1795.536513565774 2870.5795020291375
1796.247228598284 2703.0493514928135
1796.9577720624693 2880.6732801659355
1797.6681440019165 2982.217165836538
1798.3783444602013 2706.3966998283063
1799.0883734808776 2780.5987773284005
1799.7982311074884 2774.8629410917206
1800.5079173835475 2942.9413803639086
1801.2174323525633 2879.2107460787283
1801.9267760580187 2834.2148332402785
1802.635948543386 2799.763964777049
1803.3449498521113 2728.787519120384
1804.0537800276325 2844.66723360623
1804.7624391133668 2843.9378163789866
1805.47092715271 2671.742617562802
1806.1792441890484 2826.0235310104335
1806.8873902657433 2838.7265308544343
1807.5953654261448 2875.5930473397757
1808.3031697135812 2806.2157918081675
1809.0108031713662 2659.4139522288074
1809.71826584279 2736.968582313162
1810.425557771141 2859.480691630175
1811.1326789996747 2849.548444569011
1811.839629571632 2667.7586363632695
1812.5464095302468 2669.9187579969725
1813.2530189187182 2766.233486134778
1813.959457780249 2726.5152595857935
1814.6657261580076 2896.2996999468123
1815.371824095153 2753.8441068297097
1816.0777516348262 2854.501261426977
1816.78350882015 2630.108793436467
1817.4890956942272 2683.302778084195
1818.1945123001533 2827.862641671418
1818.8997586809928 2698.8074311093324
1819.6048348798067 2681.889404376754
1820.3097409396287 2696.7584542891323
1821.0144769034796 2917.87643294286
1821.7190428143622 2646.489298911491
1822.423438715261 2771.7804286867067
1823.1276646491478 2752.569838881521
1823.8317206589727 2782.771277697754
1824.5356067876692 2707.8584732771674
1825.2393230781581 2655.5334864414535
1825.942869573335 2714.1034283374165
1826.646246316086 2639.8600493886674
1827.3494533492758 2739.6795412253355
1828.052490715756 2735.2913093221914
1828.7553584583547 2864.7439720653438
1829.458056619891 2783.1070024001597
1830.1605852431585 2722.5694972204965
1830.8629443709433 2585.465976525772
1831.5651340460063 2668.288419956765
1832.2671543110919 2539.7495671140177
1832.9690052089318 2806.7981372293966
1833.6706867822395 2580.6627034061935
1834.3721990737104 2753.940807372179
1835.0735421260233 2640.4621360416795
1835.774715981841 2675.298966493365
1836.4757206838058 2789.5928751491724
1837.1765562745459 2714.897158333998
1837.8772227966747 2698.5540178404626
1838.5777202927839 2609.67114015524
1839.2780488054523 2707.991338434723
1839.9782083772352 2703.6221606746412
1840.6781990506806 2738.7750881969964
1841.378020868313 2730.7836666618177
1842.0776738726418 2710.874256602915
1842.777158106157 2711.506455881831
1843.4764736113375 2589.031002348439
1844.1756204306403 2760.2209382170954
1844.8745986065078 2416.852357351895
1845.5734081813607 2488.8443054515647
1846.2720491976124 2565.1289507059887
1846.970521697649 2408.7564006152156
1847.6688257238511 2815.0061193233
1848.3669613185684 2572.440908623115
1849.0649285241452 2449.3678430210502
1849.7627273829057 2796.643207412698
1850.460357937156 2733.5160078409417
1851.1578202291857 2423.709306882454
1851.8551143012664 2659.695967714774
1852.5522401956569 2563.806843893685
1853.2491979545957 2746.5719321137603
1853.9459876203055 2420.920667748566
1854.6426092349902 2612.4299842495907
1855.3390628408451 2585.5005216323316
1856.0353484800362 2760.6686335543664
1856.7314661947203 2695.3818934517058
1857.4274160270397 2524.6651627717047
1858.123198019115 2552.6077866033725
1858.8188122130487 2505.3017808410323
1859.5142586509319 2476.091361150492
1860.209537374838 2619.306396166566
1860.9046484268183 2649.9448113886165
1861.599591848917 2609.4118438361866
1862.294367683151 2393.2994605719236
1862.988975971528 2572.394092892325
1863.6834167560355 2455.0446265796973
1864.3776900786452 2605.659317279528
1865.0717959813119 2611.8596260887643
1865.7657345059724 2450.7036242189006
1866.4595056945564 2692.4734903917993
1867.1531095889586 2567.96233045583
1867.846546231076 2479.1732648570132
1868.5398156627743 2664.9526985060625
1869.2329179259123 2604.218980998078
1869.9258530623283 2551.2639836040307
1870.618621113843 2570.9477790199185
1871.3112221222636 2422.9628644914
1872.0036561293764 2402.0185013987666
1872.695923176956 2549.7462408044166
1873.3880233067594 2703.8285467306837
1874.0799565605212 2363.4369869236266
1874.7717229799673 2574.922627791077
1875.4633226068036 2495.8420156673938
1876.1547554827175 2638.1563059022055
1876.8460216493859 2553.7633061493552
1877.5371211484617 2551.425795298597
1878.2280540215852 2634.862356304095
1878.9188203103804 2360.7639046829986
1879.6094200564548 2445.8885037454156
1880.299853301396 2319.2156212585296
1880.9901200867826 2745.085327873301
1881.6802204541673 2690.308645119258
1882.3701544450942 2555.435753010401
1883.059922101087 2465.677763967271
1883.7495234636517 2586.642196180681
1884.4389585742792 2364.9096795864266
1885.1282274744517 2438.671064107062
1885.8173302056166 2858.471508054483
1886.506266809225 2490.1045043923928
1887.195037326701 2460.54825981569
1887.8836417994517 2512.299596491387
1888.5720802688702 2589.217799462635
1889.260352776333 2459.61744303696
1889.9484593632042 2613.7402551594823
1890.63640007082 2595.2002078949745
1891.3241749405151 2369.4938415532606
1892.0117840135954 2505.200551407102
1892.6992273313572 2417.451395578129
1893.3865049350788 2374.4959540841237
1894.0736168660223 2550.087348764745
1894.7605631654333 2550.2568218367483
1895.4473438745408 2390.7918601461765
1896.133959034556 2622.366122025159
1896.820408686679 2573.4753238357034
1897.506692872088 2541.5933763033695
1898.192811631945 2516.8534301176596
1898.8787650073991 2456.8575301762085
1899.5645530395832 2630.236474992668
1900.2501757696118 2549.639118910599
1900.9356332385796 2310.5912691814983
1901.620925487574 2578.1105244345354
1902.3060525576602 2508.753645912768
1902.9910144898859 2572.0472275745283
1903.6758113252872 2411.050879173597
1904.3604431048789 2604.7797061272763
1905.0449098696663 2544.778207686947
1905.7292116606295 2494.695068136263
1906.4133485187394 2443.5766799077296
1907.0973204849488 2348.421597994512
1907.7811276001976 2356.4239867214246
1908.4647699053967 2450.4763933781046
1909.1482474414588 1985.236566773053
1909.8315602492694 2085.333865120108
1910.5147083696957 2430.7930447608214
1911.1976918436012 2413.521723758735
1911.880510711815 2392.420011352276
1912.5631650151681 2578.386080677161
1913.2456547944657 2392.24547868365
1913.927980090495 2459.4129511307474
1914.6101409440362 2446.388963326074
1915.2921373958416 2462.922719450208
1915.9739694866603 2523.8829686025247
1916.655637257214 2520.2315852726065
1917.3371407482136 2422.179807659219
1918.0184800003572 2600.9225501541505
1918.6996550543154 2430.395925633783
1919.3806659507554 2314.2527726542908
1920.0615127303208 2399.2524132595095
1920.7421954336423 2496.3078941377526
1921.4227141013343 2275.5789477415524
1922.103068773993 2513.859236501793
1922.783259492202 2478.008959746235
1923.4632862965227 2252.3304287512065
1924.1431492275078 2392.508853658814
1924.8228483256917 2405.3136640054927
1925.5023836315922 2273.6929869888377
1926.1817551857057 2131.700102225967
1926.8609630285227 2518.2839668895767
1927.5400072005123 2524.1681100803426
1928.218887742125 2198.9346050641716
1928.8976046938005 2456.776866361081
1929.5761580959588 2513.708635742073
1930.2545479890086 2308.1002607049572
1930.9327744133352 2239.347261949323
1931.6108374093164 2357.7245487147484
1932.2887370173066 2462.253738568255
1932.9664732776473 2170.872971730601
1933.6440462306673 2488.6674747317857
1934.3214559166754 2402.531844482636
1934.9987023759659 2530.917405481404
1935.675785648813 2247.508361792218
1936.3527057754836 2199.5948190532813
1937.029462796223 2628.0781188546757
1937.70605675126 2352.508335119096
1938.3824876808085 2278.0561627243915
1939.058755625072 2349.188300402436
1939.7348606242267 2362.3632669091385
1940.4108027184448 2398.4935490528196
1941.0865819478713 2386.924659654437
1941.7621983526478 2320.784628035942
1942.4376519728921 2280.3291319452746
1943.1129428487038 2326.9975415511994
1943.7880710201734 2490.824937584235
1944.4630365273733 2423.352688824867
1945.1378394103576 2426.839074214294
1945.8124797091714 2428.325322383401
1946.4869574638324 2247.5631293869023
1947.161272714353 2271.8798701273495
1947.8354255007234 2364.746222668257
1948.5094158629272 2339.8246945997807
1949.1832438409183 2296.4587675746616
1949.8569094746435 2388.5642519395906
1950.530412804037 2444.001373919062
1951.2037538690092 2528.6296744554656
1951.8769327094578 2337.6558003723703
1952.5499493652678 2273.578253413216
1953.222803876306 2358.0847981695315
1953.895496282421 2389.0902109351455
1954.5680266234522 2198.940656197409
1955.2403949392155 2324.187231091194
1955.9126012695142 2334.45628982847
1956.5846456541403 2335.9369355808703
1957.2565281328643 2263.240442393422
1957.9282487454457 2499.2796244443157
1958.5998075316202 2331.923491186128
1959.27120453112 2233.8921167091985
1959.9424397836501 2428.5954836903907
1960.613513328908 2208.0752217161157
1961.2844252065697 2318.726410892493
1961.9551754563017 2216.4654013361683
1962.6257641177453 2239.700513806928
1963.29619123054 2281.5374130010814
1963.966456834296 2152.1533005451483
1964.6365609686181 2246.9384102809863
1965.306503673086 2390.0099241319795
1965.976284987275 2352.858812521744
1966.645904950734 2320.532010912382
1967.315363603002 2150.9973620469946
1967.9846609836077 2314.7214128667592
1968.6537971320486 2254.3938420679647
1969.3227720878222 2275.8811533874537
1969.9915858904042 2293.3896006028635
1970.660238579252 2288.2287327956687
1971.3287301938108 2353.385373387779
1971.997060773514 2210.1590360707187
1972.665230357772 2199.6421443819772
1973.3332389859843 2341.865079453148
1974.0010866975335 2034.566742363883
1974.6687735317864 2202.9819601180625
1975.3362995280932 2281.343697843433
1976.003664725793 2236.5285810610526
1976.6708691642052 2091.054747617788
1977.3379128826364 2286.507482136635
1978.004795920373 2409.3786770031757
1978.6715183166925 2477.5050656394706
1979.3380801108524 2094.151477285513
1980.0044813420973 2186.167088559433
1980.6707220496555 2024.9186023465056
1981.3368022727373 2296.0731685184965
1982.0027220505417 2195.988670749427
1982.66848142225 2054.88329082554
1983.3340804270283 2066.869378036413
1983.999519104027 2223.312583790196
1984.6647974923835 2264.700480845612
1985.329915631215 2220.7671612912063
1985.99487355963 2224.940108567007
1986.6596713167146 2310.5410035961995
1987.3243089415428 2140.3488262246638
1987.9887864731754 2317.6123374731405
1988.6531039506553 2181.345372851484
1989.3172614130071 2521.5156712485723
1989.9812588992481 2176.0148502245456
1990.645096448372 2072.7384266578874
1991.3087740993633 2173.8493279783643
1991.9722918911848 2078.5557544341623
1992.635649862792 2212.373721925101
1993.2988480531185 2293.6875874778325
1993.9618865010852 2344.7440434508044
1994.6247652455968 2107.0473452579595
1995.287484325545 2195.9168522256646
1995.9500437798033 2027.09944930357
1996.6124436472292 2071.346942585615
1997.2746839666706 2261.9153066722556
1997.936764776954 2085.5638992935346
1998.598686116895 2131.106544403954
1999.2604480252903 2242.360451237099
1999.9220505409212 2344.5424358848204
2000.5834937025593 2090.060310857253
2001.2447775489582 2183.7912650877256
2001.9059021188514 2107.5576392976473
2002.5668674509616 2086.678013086066
2003.2276735839987 2210.0438380790324
2003.8883205566508 2216.775770895659
2004.5488084075987 2119.0853470333714
2005.2091371755014 2276.6680513227147
2005.8693068990033 2015.5098189120413
2006.5293176167397 2125.8678167899848
2007.1891693673224 2058.33028047125
2007.848862189354 2080.0768631464543
2008.5083961214223 2074.0060599142976
2009.1677712020955 2185.5707835345943
2009.8269874699254 2101.820778881701
2010.4860449634598 2385.9626400737825
2011.1449437212177 2171.0029941066505
2011.8036837817108 2277.5149922148494
2012.4622651834325 2130.078653502511
2013.1206879648653 2314.621848237504
2013.7789521644736 2296.090813732516
2014.4370578207036 1935.7655792981454
2015.0950049719922 2236.7434307013787
2015.7527936567585 2209.500117197992
2016.4104239134067 2182.102077567755
2017.067895780323 2296.2889924523574
2017.725209295886 1904.4078338202867
2018.3823644984514 2014.168802224714
2019.0393614263648 2245.279043806364
2019.6962001179545 2102.60111380973
2020.3528806115355 2061.7748615716573
2021.0094029454067 2244.8101927541757
2021.6657671578487 1988.3897821645478
2022.321973287133 2097.0763023231857
2022.9780213715148 1995.178408768637
2023.6339114492293 2105.473399916086
2024.2896435585026 2083.0175021678137
2024.9452177375442 2116.5535729447506
2025.600634024544 2186.942312236336
2026.2558924576842 2060.0243563496047
2026.9109930751292 2145.774837339038
2027.565935915025 2132.1373083589715
2028.2207210155066 2244.324461804178
2028.8753484146964 2223.115823098096
2029.529818150695 1895.7483094258307
2030.1841302615903 2048.1926560766556
2030.8382847854573 2060.0234130413637
2031.4922817603601 2015.8812740191563
2032.1461212243357 2194.8193026192275
2032.7998032154192 2119.5148139757243
2033.4533277716218 2087.6887941563605
2034.1066949309443 2003.9266959259596
2034.7599047313688 1968.2223696374938
2035.4129572108704 2108.4207779131402
2036.0658524074006 2126.5308420083084
2036.7185903589016 2128.158016850178
2037.3711711032956 2287.6238108129387
2038.023594678496 2135.090709874042
2038.675861122394 1916.1757232671778
2039.3279704728757 2209.239439786864
2039.9799227678031 1998.0814425482272
2040.6317180450278 2156.9616249007604
2041.2833563423865 1975.3955700230977
2041.9348376977014 2228.0960779276575
2042.5861621487784 2138.452578820637
2043.2373297334088 2243.492592011606
2043.8883404893695 2128.765131535522
2044.5391944544208 2109.645517324364
2045.1898916663158 2211.0063192766893
2045.8404321627804 2179.19375740806
2046.4908159815368 1976.9673056820734
2047.1410431602853 1793.356774308567
2047.7911137367173 1989.379744660581
2048.441027748504 2022.9005392713593
2049.090785233302 1991.3057680150002
2049.7403862287592 1869.8495927124106
2050.389830772503 2169.4083527600333
2051.0391189021466 2023.281070012276
2051.688250655294 1938.9304812569085
2052.337226069527 2050.3215273244896
2052.986045182417 2202.5390253818277
2053.634708031521 1876.4377203413223
2054.283214654375 2131.6470002775122
2054.931565088511 2091.1934315438625
2055.579759371436 2050.6697868283827
2056.2277975406523 2191.3794810577174
2056.8756796336384 2216.7432407146634
2057.5234056878617 1837.821439050845
2058.1709757407752 2172.701169011855
2058.8183898298194 2220.983286282283
2059.465647992416 2062.8561491493538
2060.1127502659747 2050.6785452683944
2060.759696687888 2019.1624693232523
2061.4064872955405 2199.5850999925274
2062.053122126292 2259.994973671023
2062.699601217497 1689.0859071622751
2063.345924606485 1950.3796911113463
2063.992092330587 2091.701713917594
2064.638104427102 1992.6305686359676
2065.283960933324 2146.7032453764145
2065.92966188653 1948.843379080635
2066.5752073239855 2149.6592195967373
2067.2205972829397 1805.0214366319428
2067.86583180062 2094.6820237419397
2068.5109109142522 2004.6113465096219
2069.15583466104 2150.1067925156212
2069.8006030781708 2123.776432344079
2070.445216202821 1800.0400082172196
2071.089674072153 2052.7673359516357
2071.7339767233116 2099.3148202696093
2072.3781241934303 2177.867401131841
2073.0221165196253 2081.895208150945
2073.6659537390024 2001.8881488055479
2074.3096358886505 2081.8491588587085
2074.953163005637 2028.2096993185191
2075.596535127028 1793.7911724519577
2076.2397522898664 2076.566643261446
2076.882814531182 1853.374791321173
2077.5257218879924 2112.4824714251417
2078.1684743973 1996.8277847712586
2078.8110720960885 1869.519909971849
2079.453515021336 2212.8689691546065
2080.095803209997 2027.981374565963
2080.7379366990135 2093.455184060481
2081.37991552532 2196.9026532618045
2082.0217397258275 1872.3067024844077
2082.6634093374414 1773.0905245530353
2083.3049243970418 1898.4984010054638
2083.9462849415067 2136.00424272538
2084.587491007689 2145.5783847768466
2085.2285426324324 2056.0441061530364
2085.869439852564 2155.981464758982
2086.510182704902 1748.459395450672
2087.1507712262483 1836.7984761041375
2087.791205453381 1772.335100584439
2088.4314854230743 2059.035672797773
2089.0716111720867 1950.484709723866
2089.7115827371617 1648.9869249449985
2090.351400155023 2044.451011845269
2090.991063462385 1904.3828625547853
2091.6305726959527 1987.7543628485414
2092.2699278924047 1973.467308039227
2092.9091290884153 1848.3629456031147
2093.548176320641 1897.1021675429026
2094.187069625721 2106.1905133076552
2094.8258090402887 1752.572317200967
2095.464394600951 1983.0608051757379
2096.102826344313 1931.2717514739234
2096.741104306955 2030.9173834539772
2097.379228525453 1889.7063770492853
2098.017199036358 1835.297271606086
2098.6550158762147 1884.4663088771217
2099.2926790815527 2075.312619984071
2099.9301886888825 2046.839401500078
2100.5675447347076 1882.2962356779167
2101.2047472555114 2157.7247247461064
2101.841796287761 1834.15698718788
2102.47869186792 1919.1522251020392
2103.1154340324265 1878.4764820244923
2103.752022817709 1747.3782273458194
2104.388458260184 1761.1973562726635
2105.024740396251 1867.9969652817192
2105.660869262292 2008.457311492076
2106.296844894685 1937.9111344130913
2106.93266732978 1992.7780988760055
2107.5683366039284 1723.4522588653472
2108.2038527534532 1972.4267543929357
2108.8392158146726 1942.4783550643097
2109.4744258238843 1947.332982613744
2110.1094828173755 1800.6561145466853
2110.744386831422 2023.4140362392566
2111.3791379022787 1919.9375089354915
2112.01373606619 2072.235396008312
2112.648181359389 2019.3494539759663
2113.28247381809 1955.3863037792494
2113.916613478492 2064.557698718725
2114.550600376786 2125.3409906885036
2115.1844345491445 1949.16787398472
2115.818116031729 1819.9273170284669
2116.451644860679 1899.7792949226157
2117.085021072133 1789.5102950671007
2117.718244702204 1946.1749146220711
2118.3513157869984 1795.2468331774076
2118.984234362604 1828.55350370924
2119.617000465092 1855.726359011604
2120.249614130529 2023.6997196769964
2120.8820753949585 1967.708393281869
2121.5143842944162 1763.3064202493192
2122.14654086492 1859.3897641833478
2122.7785451424734 1998.8376753756504
2123.4103971630702 1718.1498583538512
2124.042096962681 2088.4582364945218
2124.6736445772767 1870.4674522344842
2125.305040042802 1697.674328256022
2125.936283395191 1742.024257818409
2126.567374670365 1826.0211686849314
2127.198313904233 1787.344133951905
2127.8291011326855 2041.2342574967988
2128.4597363916037 1793.5679870340573
2129.0902197168507 1718.0538266114756
2129.720551144279 1823.914904099262
2130.3507307097225 1984.5822857668197
2130.980758449008 1994.577721931853
2131.6106343979427 1716.499210535531
2132.2403585923203 1996.8237671925867
2132.8699310679276 1883.0122049020968
2133.499351860526 1715.3672867656019
2134.1286210058715 1844.864960068202
2134.7577385397053 1690.8363220481358
2135.3867044977487 1845.5964737666563
2136.0155189157176 2163.3196924588656
2136.644181829308 1807.9451450270685
2137.2726932742025 1772.95988623259
2137.901053286074 1956.2274748819866
2138.5292619005777 1691.7910951738584
2139.1573191533535 1910.6083835121983
2139.7852250800315 2000.3474507760536
2140.4129797162295 1752.9984330067043
2141.0405830975433 1744.565921103759
2141.6680352595613 2089.1977205233225
2142.2953362378576 1821.1127317762391
2142.9224860679915 1716.7632374848195
2143.549484785508 1789.2608896268243
2144.1763324259373 1850.4960646333075
2144.803029024799 1829.438446017423
2145.429574617594 1700.456547098756
2146.0559692398165 1842.7491030105673
2146.682212926942 1816.182192526623
2147.308305714432 1872.0498427584066
2147.9342476377333 1720.575910926417
2148.5600387322847 1834.8367545345857
2149.185679033506 2108.434080034775
2149.8111685768017 1843.5415967730758
2150.4365073975678 1685.5476415318403
2151.061695531187 1873.33597058875
2151.686733013021 1999.0522893584719
2152.311619878423 2079.1151921741416
2152.9363561627342 1624.2891901764494
2153.560941901278 1678.4611223782824
2154.1853771293663 1858.281788008687
2154.809661882293 1873.8877563825772
2155.433796195348 2146.156194118951
2156.0577801037944 1903.1399941170705
2156.681613642895 1717.549889622546
2157.3052968478896 1629.4545360109973
2157.928829754006 1913.1205030664191
2158.552212396462 1910.024211987573
2159.1754448104566 1635.3367743901492
2159.7985270311783 1819.2392465396765
2160.4214590938027 1434.9344882934251
2161.0442410334927 1545.7253937619923
2161.6668728853874 1842.7968030668387
2162.289354684628 1865.1372765675976
2162.911686466332 1830.614369847878
2163.533868265602 1894.4158722651305
2164.1559001175337 1915.4878707414496
2164.7777820572046 1839.225653677442
2165.399514119681 1730.323733593788
2166.021096340013 1588.752745449547
2166.6425287532384 1960.5819004019036
2167.263811394385 1683.7695714681854
2167.8849442984574 1786.9466155727691
2168.505927500455 1786.198915640634
2169.126761035366 1908.3540616348935
2169.7474449381552 1888.5222836912847
2170.367979243778 1617.4904881305677
2170.9883639871823 1807.1190921551356
2171.608599203293 1843.7370013204254
2172.2286849270276 1826.5417994973693
2172.8486211932886 1967.145656315
2173.4684080369625 1804.9879946017695
2174.0880454929265 1732.064186216036
2174.7075335960417 1615.3363937278714
2175.3268723811543 1566.431864986061
2175.9460618831 1517.4273424695973
2176.565102136701 1616.1761343611997
2177.1839931767627 1681.3629764748628
2177.802735038078 1746.7462446286252
2178.421327755432 1727.7665931678973
2179.0397713635866 1869.9931529642595
2179.658065897298 1720.2259114598612
2180.276211391305 1759.7547342675123
2180.8942078803357 1839.4245620176785
2181.5120553991 1824.1025206233178
2182.129753982299 1642.4310384413923
2182.7473036646206 1620.1067123541823
2183.3647044807367 1914.9417020221172
2183.9819564653044 1736.9109573524352
2184.599059652968 1748.4632124887999
2185.216014078367 1770.8556588087636
2185.832819776113 1523.1676076789047
2186.4494767808137 1918.37537735008
2187.065985127063 1705.22892715048
2187.682344849436 1683.8639862800337
2188.298555982501 1913.1746305005386
2188.9146185608097 1817.043784159166
2189.530532618901 1935.313156317406
2190.1462981912937 1840.3647478960745
2190.761915312507 1806.5398095790283
2191.377384017036 1527.6314291175347
2191.9927043393654 1680.341010223277
2192.6078763139667 1817.720159011073
2193.2228999753006 1622.887397976216
2193.837775357808 1798.8373330106679
2194.452502495922 1531.0948502788635
2195.0670814240602 1828.5337710996082
2195.6815121766285 1571.2237556088412
2196.2957947880186 1855.556866095386
2196.9099292926057 1456.234349392816
2197.523915724758 1764.4423151189062
2198.137754118825 1715.3725385103128
2198.7514445091456 1922.6389994391782
2199.3649869300443 1614.355183553803
2199.9783814158327 1927.1295333135217
2200.5916280008096 1964.0671699433174
2201.2047267192593 1980.365366937757
2201.8176776054515 1641.725159461624
2202.430480693649 1471.6428322154163
2203.0431360180955 1775.2362022128916
2203.6556436130195 1873.6294197524871
2204.268003512645 1604.3293271308503
2204.8802157511727 1709.873645949106
2205.492280362796 1766.1651094337642
2206.1041973816937 1822.6638928457282
2206.715966842032 1858.9910127073654
2207.3275887779655 1718.4150945780589
2207.93906322363 1820.5099281192888
2208.550390213153 1732.5749183974735
2209.1615697806465 1747.0094862645979
2209.7726019602105 1642.7439689445314
2210.3834867859277 1674.9296977013669
2210.9942242918787 1488.0674009268919
2211.6048145121167 1745.8540532695122
2212.2152574806914 1958.5644016122205
2212.825553231638 1754.3961521720717
2213.435701798975 1868.4240995254345
2214.045703216707 1744.9956680104392
2214.655557518832 1339.7693425005937
2215.2652647393297 1583.39235188087
2215.874824912169 1377.838223880171
2216.4842380713 1706.2210143574382
2217.09350425067 1624.3983028912958
2217.7026234842033 1911.337217275232
2218.311595805819 1850.989986232161
2218.9204212494133 1527.6655411430604
2219.52909984888 1716.6738535641448
2220.137631638092 1639.7961051777716
2220.7460166509154 1602.7646434100702
2221.354254921198 1678.8590014330196
2221.9623464827764 1812.4619944627484
2222.5702913694713 1650.3789278103002
2223.178089615096 1854.651865197678
2223.7857412534486 1667.8453148162982
2224.39324631831 1472.0373740256405
2225.000604843457 1770.3810327282226
2225.607816862641 1805.0929407570293
2226.214882409611 1568.243845675096
2226.8218015180973 1832.4376552558265
2227.4285742218217 1859.6746879103362
2228.0352005544864 1760.9333429218545
2228.6416805497847 1449.1567965729887
2229.248014241399 1609.2697789113608
2229.8542016629945 1443.4363218658916
2230.460242848223 1786.4735151254852
2231.0661378307304 1617.7327188724867
2231.671886644139 1607.0975137314106
2232.277489322065 1461.3677958258559
2232.8829458981127 1507.3695756084442
2233.48825640587 1755.6419160321525
2234.0934208789095 1930.0107826689396
2234.6984393507955 1637.0657076922275
2235.3033118550793 1716.918281349575
2235.9080384252975 1670.0360427120522
2236.5126190949723 1501.9797504112155
2237.1170538976166 1570.3855042423631
2237.721342866729 1369.8863056943892
2238.32548603579 1700.2696078768083
2238.9294834382763 1805.6275074307116
2239.533335107646 1670.7491218138232
2240.1370410773434 1566.4444519150966
2240.740601380803 1467.8429903009296
2241.3440160514474 1871.5637002264243
2241.9472851226783 2040.7045462941114
2242.550408627896 1758.377197653427
2243.1533866004793 1768.7021510785241
2243.756219073799 1528.4748313528924
2244.3589060812064 1482.6025147908992
2244.961447656049 1513.4636327798235
2245.5638438316564 1748.3911143297269
2246.166094641343 1754.4835373657147
2246.7682001184166 1458.5239120240572
2247.3701602961664 1489.613555930018
2247.971975207871 1911.0193547588242
2248.5736448867974 1697.5074107023004
2249.175169366197 1583.1261427354584
2249.7765486793123 1834.4900560146143
2250.3777828593684 1582.8096120261723
2250.9788719395783 1811.9941479483764
2251.579815953146 1687.964777977369
2252.1806149332606 1496.5434104710762
2252.781268913097 1654.2434010361794
2253.381777925817 1590.9965091496845
2253.9821420045737 1781.82344337065
2254.5823611825035 1540.599459626821
2255.1824354927303 1724.213237076072
2255.782364968365 1753.8386074837592
2256.38214964251 1344.3681410173224
2256.9817895482483 1483.3716059874655
2257.5812847186553 1732.2262073927027
2258.180635186791 1577.3780803611658
2258.779840985704 1598.2606230404297
2259.37890214843 1587.6150845658362
2259.97781870799 1641.7496027402794
2260.5765906973957 1670.3631818490226
2261.175218149645 1801.6373126999995
2261.773701097718 1661.2434021484132
2262.3720395745895 1680.0448652815921
2262.970233613216 1698.8188766606377
2263.568283246548 1519.9669705408853
2264.1661885075137 1599.883579955037
2264.763949429038 1531.268876362212
2265.3615660440246 1615.7844601497588
2265.959038385374 1393.7069712671123
2266.5563664859637 1445.619759569414
2267.153550378669 1497.6793988149102
2267.7505900963424 1629.8241372491034
2268.3474856718312 1712.0453384588932
2268.9442371379664 1623.7549538151823
2269.5408445275643 1611.6909261291162
2270.1373078734377 1588.954455902735
2270.7336272083758 1448.3904372144887
2271.32980256516 1550.9875602031739
2271.925833976562 1713.5411828406327
2272.5217214753357 1887.1281924929644
2273.117465094223 1643.2528405397109
2273.7130648659586 1541.8576684460174
2274.308520823257 1547.9809090285758
2274.903832998827 1831.3907036964647
2275.4990014253563 1796.9272851534115
2276.094026135528 1762.3640785596945
2276.6889071620117 1519.8988978518942
2277.2836445374614 1403.7158100346282
2277.878238294519 1539.4887059542407
2278.472688465812 1481.055406001643
2279.066995083962 1422.4840294756887
2279.6611581815705 1549.1456156793488
2280.255177791232 1463.392339280775
2280.8490539455233 1784.5290931582251
2281.442786677013 1753.406661055981
2282.0363760182554 1851.5002337122805
2282.6298220017943 1569.857240531108
2283.223124660155 1884.9223358231357
2283.816284025859 1738.7254790393604
2284.4093001314086 1531.3207706822727
2285.002173009292 1536.2518713393301
2285.5949026919952 1741.6984222593487
2286.1874892119777 1624.52302857458
2286.7799326016993 1679.712566700453
2287.3722328936 1356.1454008167568
2287.964390120109 1461.3095424469182
2288.556404313642 1585.4624477605216
2289.1482755066027 1709.7333478150242
2289.7400037313873 1690.6066845326684
2290.3315890203703 1418.8573758380312
2290.9230314059205 1570.0594760773502
2291.5143309203904 1387.9559936022256
2292.1054875961236 1517.3463402211542
2292.6965014654506 1751.598385151894
2293.287372560684 1387.0979281489115
2293.878100914131 1367.1286576390985
2294.468686558086 1347.1607619162617
2295.059129524827 1539.521008077906
2295.649429846617 1480.6974741738074
2296.239587555716 1421.7044162523484
2296.8296026843636 1573.143369079665
2297.419475264791 1521.9476704366073
2298.0092053292137 1470.5621737112313
2298.598792909839 1510.1929788677483
2299.1882380388597 1572.2054950886263
2299.777540748455 1679.0697830740633
2300.3667010707904 1641.6658792879807
2300.9557190380256 1722.8435154034512
2301.544594682302 1646.7334356203519
2302.1333280357503 1393.8504041188419
2302.721919130485 1677.4342607939093
2303.3103679986198 1922.8572597530954
2303.898674672242 1705.381504223922
2304.486839183437 1471.6725474749041
2305.0748615642697 1348.9456627154898
2305.6627418468015 1481.0495900623387
2306.2504800630704 1419.6967188577446
2306.8380762451143 1769.0175407886086
2307.425530424949 1772.6713328277347
2308.012842634582 1776.3197029891355
2308.6000129060103 1656.6316466591409
2309.187041271214 1517.180232446738
2309.773927762164 1465.2650764949653
2310.3606724108213 1734.0650769736887
2310.9472752491274 1499.7606967893394
2311.5337363090184 1628.9415050100595
2312.120055622414 1624.431027694409
2312.706233221221 1637.9143690395008
2313.2922691373424 1402.3591533785793
2313.8781634026564 1684.6102512312216
2314.463916049037 1555.2544010655588
2315.049527108342 1391.0276551902093
2315.6349966124235 1672.5631411427657
2316.2203245931123 1529.4537980138525
2316.8055110822315 1430.5317036459442
2317.3905561115935 1420.5699423096594
2317.9754597129977 1480.0388350820992
2318.560221918229 1423.7491002327138
2319.1448427590603 1367.3626115546392
2319.729322267256 1500.0947036227255
2320.313660474563 1586.698409725522
2320.8978574127195 1646.9896140391852
2321.481913113452 1822.4819832905182
2322.0658276084705 1534.714717848547
2322.6496009294806 1152.613806301882
2323.233233108165 1130.830550537885
2323.8167241762058 1230.4375495745794
2324.4000741652617 1330.2698236182346
2324.983283106987 1607.5108595260313
2325.5663510330232 1676.7285982232715
2326.1492779749933 1452.9246115795886
2326.7320639645204 1577.362713725048
2327.3147090332004 1521.3274511701443
2327.897213212629 1597.5522661775835
2328.4795765343843 1673.7603811743381
2329.0617990300307 1519.2913705871415
2329.643880731124 1795.9241705098116
2330.22582166921 1455.2741920256822
2330.807621875816 1806.9627303429359
2331.3892813824623 1364.3543632952617
2331.9708002206517 1413.1072470759204
2332.5521784218818 1344.8638658239583
2333.133416017634 1557.0569144520732
2333.7145130393765 1575.720352126767
2334.295469518571 1625.1234808101872
2334.876285486658 1710.470294532938
2335.456960975076 1355.506706744604
2336.037496015242 1517.7150535342637
2336.6178906385667 1781.290701595486
2337.198144876451 1454.4103881501642
2337.778258760278 1699.6997664898415
2338.3582323214214 1643.3036725645204
2338.938065591243 1586.7352397886082
2339.517758601087 1461.1380587077438
2340.0973113822965 1498.9026630692106
2340.676723966193 1350.4022495629456
2341.255996384094 1455.3863516901667
2341.835128667295 1560.5741812453703
2342.4141208470883 1709.2275758460553
2342.992972954751 1400.9494361863642
2343.5716850215467 1690.165413055216
2344.1502570787306 1287.4716861103045
2344.7286891575386 1279.9890500035558
2345.3069812892045 1531.4541465075813
2345.885133504944 1449.1556321617359
2346.4631458359618 1537.2643287340475
2347.04101831345 1486.0122931289861
2347.6187509685915 1532.268341674861
2348.196343832553 1486.0935927828425
2348.7737969364935 1418.9196461591243
2349.351110311558 1290.5588557414799
2349.9282839888765 1303.6432715245467
2350.5053179995757 1600.1491293147963
2351.0822123747585 1377.3125561259767
2351.658967145526 1604.4084336251792
2352.2355823429643 1379.62839404837
2352.812057998144 1475.6709442867214
2353.3883941421263 1498.1949990383596
2353.9645908059647 1520.8308318373172
2354.540648020693 1448.5174264740212
2355.116565817336 1592.837942183824
2355.6923442269126 1737.494246826954
2356.2679832804224 1691.71751033031
2356.8434830088518 1424.7948737650347
2357.41884344318 1417.417527885248
2357.994064614377 1415.2763126191983
