#exp_cfg={"servo_angle": 0.0, "laser_lim": 100.0, "servo_angle_to": 18.0, "laser_wup": 0.0, "bt_dev": "EnSpectr-25AE3", "laser_wdn_max": 0.0, "frames": 10.0, "servo_used": 0, "servo_calib_use": 0, "laser_wdn_min": 0.0, "servo_pix_from": 90.0, "cooler_tout": 300.0, "servo_angle_from": 0.0, "servo_calib": "[-1.9174921013161362e-09, 3.9322238269163779e-05, -0.27385609119055809, 653.59552119713567]", "laser_autoctl": 0, "servo_pix_to": 3682.0, "laser_pw": 100.0, "cooler_on": 0, "laser_volt": 4.0, "cooler_autoctl": 0, "cooler_curr": 70.0, "cooler_startup": 10.0, "laser_fixed_pw": 0, "gain": 1.3, "offset": 2.53059635486, "servo_calib_degree": 3.0, "laser_curr": 55.0, "shutter": 8200.0, "servo_calib_step": 1.0, "laser_fixed_curr": 0, "exp": 2000.0, "ccd_volt": 4.7, "bt_addr": "00:06:66:62:5A:E3", "servo_delay": 500.0, "laser_autooff": 1}
#proc_cfg={"flat_auto_wnd": 200.0, "flat_auto_fr": 200.0, "flat_auto_shift": 5.0, "yconv": 1, "flatten": 1, "flatten_strength": 100.0, "xfrom": 300.0, "auto_max_frame": 2000.0, "auto_signal": 48000.0, "flat_auto_tol": 0.1, "autoclip": 1, "xrel_range": 0.0, "flat_auto_to": 4000.0, "intensity_adj": 1.0, "xrel": 7852.0, "rmhot": 1, "flat_auto_slit": 4.999999999999997, "auto_ini_exp": 300.0, "auto_off": 0, "xto": 2860.0, "flat_auto_ref": "", "flat_auto_rank": 1, "autobackg": 0, "xrel_adj": 0.0, "auto_black_lvl": 1, "base_wnd": 100.0, "sub_baseline": 0, "xconv": 2, "auto_max_exp": 1000.0, "auto_total_exp": 10000.0, "auto_exp": 0, "rmripple": 0, "black_lvl": 8219.0875, "shutter_clip_adj": 0.0, "auto_bckg": 0, "flat_auto_thr": 0.9, "subbackg": 1}
316.8218498245369 21816.328594718347
317.89969571804795 21709.943357823227
318.977263876126 21602.953363391425
320.05455438786703 21599.71353249839
321.1315673423287 21389.226066681484
322.2083028285215 21242.448518100493
323.2847609354267 21045.222894590574
324.3609417519747 21080.213559746386
325.43684536705587 20880.333306872177
326.5124718695279 20851.231812739432
327.58782134820103 20663.846365332553
328.66289389184385 20624.677729502517
329.7376895891921 20497.312925698567
330.8122085289342 20400.45682872431
331.88645079971866 20318.53496352165
332.9604164901575 20033.795071479817
334.03410568881554 19963.934779096286
335.1075184842266 20023.814410971692
336.18065496487543 19846.754075076937
337.2535152192122 19731.81787170212
338.32609933564163 19676.322620214698
339.39840740253203 19642.6895333234
340.4704395082099 19496.109311318014
341.5421957409617 19419.408408347965
342.6136761890357 19398.23870340584
343.6848809406365 19286.447095503165
344.75581008392874 19170.747073374947
345.82646370703696 19069.155088043786
346.8968418980512 19056.856025974033
347.96694474501055 19011.944087427313
349.0367723359268 19031.854878534854
350.106324758759 18910.103300417788
351.1756021014353 18912.437137626115
352.2446044518383 18907.44531541624
353.31333189781435 18912.972870422578
354.38178452716966 18824.841506451554
355.449962427665 18806.082981736443
356.51786568702846 18676.31289774852
357.58549439294256 18872.93279113474
358.6528486330535 18708.16584837448
359.71992849496564 18732.34785862793
360.7867340662433 18803.3648787094
361.8532654344144 18690.910550314624
362.9195226869597 18738.326602932364
363.9855059113288 18709.85340992365
365.05121519492604 18751.36959400617
366.11665062511565 18808.633160460395
367.1818122892273 18686.016742472646
368.2467002745434 18737.199049445906
369.31131466831175 18691.93601107424
370.375655557742 18899.270759777377
371.4397230299983 18739.761656402592
372.5035171722102 18723.93288749234
373.5670380714637 18769.66599793737
374.6302858148101 18826.256018079763
375.6932604892554 18734.376095872616
376.7559621817709 18815.89202752588
377.81839097928605 18633.831628157972
378.8805469686886 18599.166285139585
379.94243023683157 18649.841414828043
381.0040408705263 18528.339481013605
382.0653789565458 18411.197726719496
383.1264445816196 18472.781719872033
384.1872378324406 18473.61894661211
385.2477587956637 18376.048788433018
386.3080075579037 18299.403801629753
387.3679842057336 18157.84019197335
388.4276888256918 18173.694350234968
389.48712150426945 18090.46866027403
390.54628232792857 18020.31193027116
391.6051713830857 18076.329036538118
392.66378875611736 17952.15045756183
393.7221345333637 17948.73175508112
394.7802088011249 17900.7013645588
395.838011645661 17872.76277361788
396.89554315319765 17678.465115460174
397.9528034099112 17624.47660820748
399.00979250194723 17596.031919185418
400.06651051541485 17423.383252338663
401.1229575363741 17401.52169746215
402.17913365085224 17408.487616957198
403.23503894483656 17425.077991889335
404.2906735042761 17244.858853322745
405.3460374150818 17212.337508372042
406.401130763119 17262.448659342983
407.455953634224 17076.011949525677
408.5105061141876 17076.553530546636
409.56478828876243 16922.646559780795
410.6188002436629 16915.984041484648
411.6725420645689 16821.83155910494
412.72601383711117 16876.196761157564
413.77921564689314 16907.87143737138
414.8321475794728 16762.049438208498
415.88480972036814 16599.989136871238
416.93720215506437 16723.06301210533
417.9893249690049 16507.013081887384
419.04117824759123 16539.76685225271
420.09276207619223 16437.210826366143
421.144076540133 16392.835347110806
422.1951217247042 16341.9738893811
423.24589771515275 16323.643873167839
424.2964045966928 16172.736503760296
425.34664245449494 16304.265706785987
426.3966113736933 16212.096229995946
427.4463114393875 16187.697146505798
428.49574273662984 16107.094710933356
429.5449053504417 16021.545490838887
430.5937993658026 16041.574887630806
431.6424248676558 16007.531514015767
432.6907819409007 15940.133331155963
433.73887067040596 15837.559305108089
434.7866911409965 15862.019192917007
435.8342434374608 15897.274827533958
436.88152764455117 15869.188192901816
437.9285438469724 15767.900195916609
438.9752921294057 15657.883242179989
440.02177257648145 15710.120364174523
441.06798527279716 15604.275657688311
442.1139303029122 15669.060869687042
443.1596077513459 15578.943627103032
444.2050177025794 15647.8205673577
445.25016024105753 15660.594426220143
446.2950354511886 15590.376030316202
447.33964341733736 15646.100618771434
448.383984223834 15505.55163953955
449.4280579549686 15540.845103957641
450.471864694995 15590.248048582182
451.5154045281306 15444.377970517835
452.5586775385509 15516.425862395676
453.60168381039693 15419.403360837945
454.64442342776783 15563.308451741957
455.6868964747264 15489.969615442737
456.7291030353008 15395.88679737919
457.77104319347563 15480.610605068618
458.8127170332027 15444.27980339713
459.854124638392 15394.511508159823
460.895266092919 15568.926982187768
461.93614148061897 15542.048872536272
462.97675088529104 15454.440908400382
464.01709439069236 15558.242579789137
465.0571720805492 15656.55942444884
466.0969840385442 15616.364019911858
467.1365303483253 15714.88950001023
468.17581109350067 15612.277631916306
469.2148263576437 15736.72015739892
470.2535762242878 15744.08605749861
471.29206077693016 15881.296408712276
472.33028009902773 15905.698861725232
473.3682342740012 15953.402692622147
474.40592338523857 16047.138625406402
475.4433475160804 16252.316887276795
476.4805067498364 16261.740457877157
477.51740116978 16515.711093572285
478.5540308591426 16706.584369985074
479.59039590112116 16989.23626055067
480.6264963788726 17126.026962535572
481.6623323755193 17614.152350895685
482.6979039741436 17795.500472823103
483.7332112577915 18311.20467595521
484.76825430947247 18672.111471038013
485.80303321215797 19091.24050145271
486.837548048783 19329.11266594941
487.8717989022425 19617.76486581508
488.90578585539697 19570.705117702837
489.9395089910686 19803.301591884807
490.97296839203955 19862.983798182195
492.00616414106116 19688.90239009731
493.0390963208429 19544.98410879049
494.0717650140559 19370.813097956783
495.10417030333883 19076.975082903755
496.1363122712901 18766.34715944138
497.16819100046814 18342.02545264847
498.1998065734024 17979.482159461128
499.2311590725767 17671.516348479312
500.26224858044407 17270.72362312326
501.2930751794156 17059.4122503315
502.3236389518679 16732.49026542678
503.35393998014115 16518.60096935802
504.38397834653733 16359.576846012747
505.4137541333221 16213.334167603345
506.4432674227228 16048.676162848646
507.4725182969323 15921.375351208708
508.5015068381035 15755.687402850974
509.53023312835467 15648.23925855244
510.55869724976765 15613.322114055423
511.58689928438434 15501.330211965256
512.6148393142121 15418.07117735091
513.6425174212218 15393.349067759316
514.6699336873462 15406.093002011727
515.6970881944835 15361.30510227404
516.7239810244901 15254.570529645101
517.7506122591931 15268.825979556064
518.7769819803761 15279.46367550428
519.8030902697901 15226.62306574867
520.8289372091476 15378.748782861981
521.8545228801249 15348.233260403587
522.8798473643619 15256.791538141106
523.9049107434621 15357.67683834858
524.9297130989908 15330.81203737939
525.9542545124805 15166.623047785712
526.9785350654201 15145.571144953847
528.0025548392696 15179.816810279672
529.0263139154504 15065.278094693282
530.0498123753423 15147.7713007393
531.073050300296 15033.804182129094
532.0960277716204 14943.779536647908
533.1187448705896 15004.082195391715
534.1412016784416 14928.096542311896
535.1633982763833 14879.429609512172
536.1853347455726 14794.82163928496
537.2070111671401 14771.22424947419
538.2284276221817 14770.096861980554
539.2495841917516 14670.126894219362
540.2704809568677 14623.886918866177
541.2911179985167 14595.624941929349
542.3114953976419 14573.421370092745
543.3316132351592 14578.39295900762
544.3514715919409 14487.138830214395
545.3710705488247 14551.01397194964
546.3904101866156 14605.810016224199
547.4094905860784 14597.757192945737
548.4283118279418 14584.317694603164
549.4468739929034 14635.693546927258
550.4651771616191 14556.517309864299
551.4832214147063 14588.304721062092
552.501006832761 14609.696859115847
553.5185334963226 14570.10474380923
554.5358014859103 14672.324777779015
555.5528108820035 14627.224468516055
556.5695617650363 14690.115809902945
557.5860542154242 14709.288172214558
558.6022883135283 14684.983223803123
559.6182641396881 14649.579056405148
560.6339817741991 14564.955863400042
561.6494412973225 14685.344179971382
562.6646427892883 14620.964096399
563.6795863302796 14535.0045464174
564.694272000459 14529.959205362291
565.7086998799423 14612.179227937924
566.7228700488104 14489.560204495205
567.7367825871115 14559.327341966087
568.7504375748576 14515.107117682177
569.7638350920224 14518.757490832588
570.7769752185486 14489.673355577874
571.7898580343353 14500.93108046572
572.802483619258 14478.347023016735
573.8148520531431 14602.6534174325
574.8269634157932 14629.770147993573
575.8388177869692 14712.485341954578
576.8504152463938 14824.791314800008
577.8617558737587 14976.904455751172
578.8728397487175 15089.939925888268
579.883666950891 15340.75033061828
580.8942375598654 15500.058536835117
581.9045516551851 15638.077911469023
582.9146093163617 15936.447341099672
583.924410622878 15929.164305704102
584.9339556541727 15983.571876994125
585.9432444896538 16077.818075811389
586.9522772086875 15857.110069792401
587.9610538906127 15946.68923676822
588.9695746147318 15695.166438981909
589.9778394603054 15738.76785975614
590.985848506567 15634.40322388356
591.9936018327098 15352.086641905491
593.0010995178891 15150.00158182086
594.0083416412344 15080.744817131286
595.0153282818283 14919.66644186615
596.0220595187293 14783.270433001278
597.0285354309508 14609.121570379637
598.0347560974806 14498.586108825059
599.0407215972609 14408.646670235932
600.0464320092051 14400.661223863222
601.0518874121954 14343.912949224314
602.0570878850685 14264.996515304112
603.062033506636 14300.923750655598
604.0667243556636 14334.245194364257
605.0711605108936 14264.664956349017
606.0753420510264 14515.876882248465
607.0792690547278 14513.202960062108
608.082941600629 14473.153999836717
609.0863597673306 14592.26133250174
610.0895236333909 14729.180466763306
611.0924332773357 14911.695413407366
612.0950887776617 15000.519030195524
613.0974902128219 15232.894446943474
614.0996376612384 15527.083045401538
615.1015312013005 15754.172376734321
616.1031709113595 15988.612105881268
617.1045568697336 16287.828099688388
618.1056891547069 16644.0564626575
619.1065678445229 16982.33129524345
620.1071930173985 17440.431232278297
621.1075647515099 17616.5513050807
622.1076831250048 17894.20300341712
623.1075482159849 18189.590803356354
624.1071601025305 18568.84785734484
625.1065188626781 18887.977255270085
626.105624574433 19390.154235866863
627.1044773157682 19429.94110940352
628.1030771646128 19877.325586186846
629.1014241988742 20113.27665891206
630.0995184964158 20250.206981464908
631.0973601350688 20595.484647679972
632.0949491926294 20826.803315988007
633.0922857468631 20616.870371111454
634.089369875499 20645.4557269671
635.0862016562278 20569.58371793154
636.0827811667077 20376.074488348568
637.0791084845641 20378.257803755514
638.0751836873878 20137.482843879192
639.0710068527369 19828.891234217353
640.0665780581294 19537.83747330833
641.0618973810506 19175.483703553804
642.0569648989604 18867.462738046244
643.0517806892676 18527.525535980512
644.0463448293649 18108.483046252317
645.040657396592 17762.191654514827
646.0347184682723 17431.291838567595
647.0285281216875 16944.815805518858
648.0220864340772 16737.05110996901
649.0153934826558 16491.96449841596
650.0084493446047 16173.436982500833
651.0012540970674 15848.772589962897
651.9938078171526 15774.662685625819
652.9861105819346 15515.850351867204
653.9781624684565 15278.631916243039
654.9699635537254 15070.027987394245
655.9615139147136 15001.043425178175
656.9528136283589 14726.410720373286
657.9438627715699 14725.605589432342
658.9346614212154 14473.86079685599
659.925209654135 14287.459870646004
660.9155075471263 14263.640939184546
661.9055551769616 14091.380974311984
662.895352620375 14127.386220448656
663.8848999540678 14073.363176122144
664.8741972547068 13814.124626385494
665.863244598926 13743.666940963103
666.8520420633213 13765.84808401711
667.8405897244611 13700.69400203959
668.8288876588758 13609.888311779268
669.8169359430613 13563.185464220489
670.8047346534822 13441.000203722457
671.7922838665672 13433.058883242198
672.7795836587156 13485.83738460855
673.766634106285 13580.282272298782
674.7534352856092 13400.127478479155
675.7399872729766 13390.146814476724
676.7262901446538 13416.393511727201
677.712343976862 13280.241980667648
678.6981488457986 13520.156799939348
679.6837048276229 13342.897913960867
680.6690119984596 13375.21346465342
681.6540704344043 13428.01420208801
682.6388802115107 13231.617851555895
683.6234414058108 13373.014518940196
684.6077540932874 13251.378847778538
685.591818349907 13250.182424461364
686.575634251587 13186.511665145696
687.5592018742263 13148.36818835454
688.5425212936734 13079.287332989708
689.5255925857564 13193.690106987211
690.5084158262707 13079.048836121348
691.4909910909646 13100.074395932901
692.4733184555644 12962.461918160905
693.4553979957618 13023.31620230569
694.4372297872123 12981.463657177526
695.4188139055404 12989.881353957422
696.4001504263324 13014.058218581808
697.3812394251509 13089.68559965634
698.3620809775111 13046.199866577455
699.3426751589104 13097.624447073618
700.3230220448004 13021.74138355147
701.3031217106054 13281.161331912052
702.2829742317172 13255.085225032108
703.2625796834873 13230.792473926467
704.2419381412474 13238.942215621422
705.22104968028 13369.943468683565
706.1999143758458 13393.126609076158
707.178532303169 13340.240001400205
708.1569035374378 13581.742441179664
709.1350281538107 13807.387210632598
710.1129062274158 14006.472919573502
711.0905378333373 14363.088766469145
712.0679230466376 14551.699984216728
713.0450619423427 14977.95739202747
714.0219545954424 15428.81557530793
714.9986010808989 15819.143167709291
715.9750014736292 16304.805603171932
716.9511558485392 16801.256475072947
717.9270642804786 17162.8246654717
718.9027268442787 17507.898624360238
719.8781436147328 17627.9129632851
720.8533146666014 17844.08206784029
721.828240074612 17867.92351444735
722.8029199134635 17798.967105786676
723.7773542578125 17547.986826378947
724.751543182294 17327.802146733884
725.7254867615029 17154.742121568528
726.6991850700015 16911.076589675715
727.6726381823228 16775.576843938827
728.6458461729599 16554.493946013405
729.6188091163858 16532.57549424587
730.5915270870246 16509.90938859553
731.5640001592856 16568.529282966803
732.536228407529 16875.85746909281
733.5082119060917 17050.599878266006
734.4799507292755 17128.19049139205
735.4514449513481 17360.37578479469
736.4226946465496 17506.58633257488
737.3936998890786 17350.606906181107
738.3644607531078 17218.108690301655
739.3349773127793 17112.959097715684
740.3052496421951 16798.315775419887
741.27527781543 16422.75109223234
742.2450619065221 15935.720712701117
743.2146019894826 15576.19451590291
744.183898138288 15080.171922802514
745.1529504268801 14735.874137443538
746.1217589291682 14218.084686778933
747.0903237190341 13865.39820648185
748.058644870318 13584.204036677595
749.0267224568397 13295.797553415669
749.994556552374 13064.580810595131
750.9621472306771 12908.375317087552
751.9294945654583 12710.932086809526
752.8965986304011 12621.481410678887
753.8634594991636 12481.789983329749
754.8300772453586 12489.301299583516
755.7964519425768 12330.58089623062
756.762583664371 12289.720525440069
757.7284724842611 12370.121101969937
758.6941184757416 12311.80545217569
759.6595217122667 12318.66003850011
760.6246822672638 12235.623325149381
761.5896002141235 12167.14132882039
762.5542756262093 12253.975890554468
763.5187085768503 12205.471516781503
764.4828991393406 12146.092707305765
765.4468473869474 12090.301674361757
766.4105533929032 12000.681677507144
767.3740172304078 11921.13279271718
768.3372389726283 11754.594976315273
769.3002186926988 11705.244813681858
770.2629564637282 11602.616407257246
771.2254523587872 11489.908347114379
772.1877064509154 11467.018574568496
773.1497188131179 11304.458008165862
774.1114895183728 11216.718740233586
775.0730186396268 11300.155184851705
776.0343062497905 11107.55926131651
776.9953524217381 11054.052763406104
777.9561572283274 11108.92487829683
778.9167207423689 11121.443610692146
779.8770430366476 11072.007896454217
780.8371241839159 10951.287169067951
781.7969642568951 11017.753131859974
782.7565633282757 11095.227480983533
783.7159214707099 11055.758290249658
784.6750387568281 11110.722352374836
785.6339152592227 11105.661668460192
786.5925510504512 10994.450147474763
787.5509462030477 11099.974329253073
788.5091007895098 11130.386677237602
789.4670148823006 11109.665845628806
790.4246885538596 11128.164413028131
791.3821218765861 11016.203737903825
792.3393149228505 10956.495240843298
793.2962677649975 11054.502825518251
794.2529804753303 11146.820054170692
795.20945312613 11131.985967613617
796.1656857896378 11136.196798766347
797.1216785380675 11232.447715516626
798.0774314435985 11370.279524868238
799.0329445783846 11453.100502518102
799.9882180145414 11555.669976590789
800.9432518241574 11553.078612781099
801.89804607929 11778.95115926945
802.852600851962 11870.10396221465
803.8069162141637 11945.007784334743
804.760992237856 12036.820881669124
805.714828994971 12125.159493882598
806.6684265574077 12192.944299810773
807.6217849970271 12066.510350322187
808.574904385674 12110.779463992261
809.527784795142 12123.751476532383
810.4804262972102 12150.021476739455
811.4328289636178 11925.787814150293
812.3849928660748 11834.925782267217
813.3369180762638 11728.428672101498
814.2886046658241 11636.363917132661
815.2400527063783 11499.307240751186
816.1912622695108 11403.60854626847
817.1422334267718 11215.215744875613
818.0929662496856 11060.895142028105
819.0434608097457 10926.685670433164
819.9937171784059 10806.80641145042
820.9437354271013 10706.716570799335
821.8935156272255 10593.206960418252
822.8430578501484 10465.491918787793
823.7923621672016 10358.576045116175
824.7414286496896 10372.699359921044
825.6902573688876 10302.584572415228
826.6388483960363 10282.915721217809
827.5872018023492 10147.700119338655
828.5353176590033 10270.80754584901
829.4831960371503 10139.582696786927
830.4308370079016 10162.135074239197
831.3782406423525 10067.94901754162
832.3254070115545 10068.275378462364
833.2723361865319 9951.27517244509
834.2190282382799 9890.817596576173
835.1654832377644 10152.770673742783
836.1117012559116 10005.908264054862
837.0576823636256 9987.845551359806
838.003426631778 9906.67957396557
838.9489341312074 9930.582235964179
839.8942049327197 9934.10085135248
840.8392391070975 9954.23422325298
841.7840367250865 9911.196635137676
842.7285978573982 9904.912253888377
843.672922574724 9878.471167083826
844.6170109477152 9923.267698301846
845.560863046996 9893.984520737862
846.5044789431595 9810.56174166358
847.4478587067697 9852.237159879933
848.3910024083561 9871.421173133765
849.333910118421 9916.4336260139
850.2765819074339 9837.468835810587
851.2190178458332 9904.153125397292
852.161218004032 9901.738421138472
853.1031824524016 9878.34428250071
854.0449112612987 9885.786268479895
854.9864045010327 9908.303999922526
855.9276622418947 9820.899252480298
856.8686845541379 9822.416679973647
857.8094715079915 9882.480530356053
858.7500231736467 9980.289645765659
859.690339621271 9975.514595335468
860.6304209209939 10026.282583583537
861.5702671429244 9922.947179175673
862.5098783571284 10023.656976647268
863.4492546336569 10075.876386187796
864.3883960425155 10075.26646503587
865.3273026536863 10083.939162933904
866.2659745371238 10132.40925080223
867.2044117627465 10286.507366844457
868.1426144004472 10253.02134233814
869.0805825200823 10446.430024576552
870.0183161914847 10454.164210622144
870.9558154844526 10445.63189324513
871.8930804687552 10523.632775968685
872.8301112141307 10577.858147528075
873.7669077902865 10741.355904227566
874.7034702669062 10808.376344693334
875.6397987136315 10808.110436278896
876.5758932000863 10880.469768202458
877.5117537958522 10922.766495913453
878.4473805704911 10978.01285132646
879.3827735935283 11031.52938649187
880.3179329344603 11055.347841780194
881.2528586627541 11055.532510513538
882.1875508478479 11231.996692860794
883.1220095591489 11018.754930004494
884.0562348660296 11167.458504826036
884.9902268378391 11099.449047688957
885.9239855438955 11087.152538872575
886.8575110534839 10967.425386049228
887.7908034358588 10839.33672914355
888.7238627602474 10935.825021144356
889.6566890958475 10884.942059306648
890.5892825118208 10657.675360473268
891.5216430773125 10626.224863726457
892.4537708614189 10493.042769012605
893.3856659332196 10462.124556095267
894.3173283617652 10321.561496630882
895.2487582160684 10301.461426174808
896.179955565116 10227.063165331718
897.110920477864 10134.464256261677
898.0416530232451 10094.849845804833
898.9721532701478 10066.347323838061
899.9024212874428 9980.58279907728
900.8324571439662 9937.640021949945
901.7622609085302 9882.721187769213
902.6918326499072 9842.718706027157
903.6211724368477 9875.91663753089
904.5502803380696 9875.620306930112
905.4791564222614 9762.346656533417
906.4078007580792 9730.338149083214
907.3362134141571 9831.074322773758
908.2643944590909 9801.14735206015
909.1923439614493 9784.094847138473
910.1200619897754 9760.645803544317
911.0475486125779 9800.057138640108
911.9748038983344 9793.699356648776
912.9018279155007 9753.799352452057
913.8286207324982 9635.8662214352
914.7551824177117 9768.441579084825
915.6815130395116 9697.559873005284
916.6076126662283 9584.206573073454
917.533481366163 9603.851925786921
918.4591192075914 9610.203335918099
919.3845262587565 9656.108066396491
920.3097025878706 9468.116526410675
921.2346482631237 9377.860806224578
922.1593633526682 9535.204482380901
923.0838479246304 9386.949798075202
924.0081020471061 9474.12190814798
924.9321257881656 9315.463504533709
925.8559192158464 9307.253583675483
926.7794823981512 9214.697252714537
927.7028154030686 9289.038796108607
928.6259182985414 9228.511933262855
929.5487911524906 9268.661092287988
930.4714340328119 9159.840704572507
931.3938470073608 9066.999903031905
932.3160301439748 9160.187578495737
933.2379835104548 9136.385890877547
934.1597071745709 9177.650075050271
935.0812012040769 9125.006921547667
936.002465666681 9252.565637274023
936.9235006300696 9189.671855926663
937.8443061619055 9205.007851595996
938.7648823298077 9054.599269029068
939.6852292013809 9098.304640442451
940.6053468441951 9159.910793616194
941.5252353257874 9052.516849433723
942.4448947136698 9189.196056619567
943.364325075323 9141.166066568036
944.2835264782043 9182.962722494856
945.2024989897309 9260.260434635991
946.1212426773054 9148.666213145585
947.0397576082851 9239.063870808252
947.9580438500125 9364.07405546926
948.8761014697939 9359.924753979174
949.7939305349064 9401.456696051058
950.7115311125999 9322.538804518575
951.6289032700952 9382.05466374907
952.5460470745875 9388.071569948774
953.4629625932339 9373.321175112756
954.3796498931715 9530.084608041825
955.2961090415029 9489.584672453762
956.2123401053068 9460.456882790935
957.1283431516276 9288.218871068673
958.0441182474842 9371.673115152822
958.9596654598663 9467.432188707691
959.8749848557309 9398.718714633129
960.7900765020167 9264.625246267497
961.7049404656209 9287.327274746654
962.6195768134185 9375.889306265326
963.5339856122537 9234.883145792879
964.4481669289453 9303.86858702638
965.3621208302793 9118.549113346384
966.2758473830145 9139.124974233924
967.1893466538822 9126.181234172385
968.1026187095813 9156.440101582124
969.0156636167867 9064.02902080699
969.9284814421426 9113.669269990778
970.8410722522622 8963.594220057388
971.753436113735 9019.82518059682
972.6655730931161 8919.547646189169
973.5774832569368 9001.349980916926
974.4891666716958 8977.51626647863
975.4006234038698 8877.89967351682
976.3118535198955 8882.464204080867
977.2228570861935 9004.727942033865
978.1336341691494 8855.392943745766
979.0441848351202 8900.443126587545
979.9545091504333 8948.029019451147
980.864607181391 8971.181317837543
981.7744789942699 8966.64750132841
982.6841246553086 9060.61344015159
983.5935442307236 8942.239437760782
984.5027377867027 8888.159235978266
985.4117053894024 9053.220152512698
986.3204471049557 8937.864677272006
987.2289629994648 9008.404361419738
988.1372531390007 8985.249154702728
989.0453175896091 9034.351978301602
989.9531564173067 9120.577937887172
990.860769688079 9043.607963582339
991.7681574678918 9057.861820025628
992.6753198226706 9027.660524400897
993.582256818323 9105.876708698499
994.4889685207218 9152.355505609883
995.3954549957143 9225.30591529641
996.301716309119 9245.98931556649
997.2077525267232 9275.919718307165
998.1135637142943 9277.625558247053
999.0191499375615 9276.05191793944
999.924511262232 9170.785447118133
1000.8296477539861 9347.012181625903
1001.7345594784656 9270.477975526323
1002.6392465012996 9288.319074208102
1003.5437088880753 9334.097928960031
1004.4479467043584 9355.859277275224
1005.3519600156869 9260.332297675623
1006.2557488875718 9323.019753873701
1007.1593133854858 9341.827997964121
1008.0626535748888 9344.041267407349
1008.9657695212009 9235.275224049072
1009.8686612898182 9291.162712704136
1010.7713289461135 9317.014426662867
1011.6737725554212 9227.417461108344
1012.5759921830577 9324.102242230734
1013.4779878943027 9266.195968932205
1014.379759754418 9150.285645024667
1015.2813078286254 9181.502667790386
1016.18263218213 9075.489123979294
1017.0837328801026 9076.810495533884
1017.9846099876886 9001.645124213928
1018.8852635700023 9014.75661421163
1019.7856936921362 8951.892472498574
1020.6859004191447 8965.764380646702
1021.5858838160675 8937.999462083662
1022.4856439479063 8869.45670539647
1023.3851808796389 8888.467302472058
1024.2844946762143 8857.737605151162
1025.183585402554 8819.25424180909
1026.082453123554 8643.160553153686
1026.9810979040776 8711.91615056872
1027.8795198089647 8752.431026181297
1028.777718903024 8685.698263195492
1029.6756952510368 8705.234252575521
1030.5734489177648 8644.108845948369
1031.4709799679313 8595.839206385204
1032.3682884662358 8664.147659923205
1033.2653744773506 8530.255833777126
1034.1622380659192 8477.874453082284
1035.058879296559 8638.855205774924
1035.9552982338591 8623.311585832345
1036.8514949423825 8617.397479739004
1037.7474694866614 8569.40507304211
1038.6432219312028 8588.165272052467
1039.5387523404825 8658.220659203938
1040.4340607789582 8519.785602508857
1041.3291473110476 8557.398507884243
1042.2240120011465 8679.012658862954
1043.1186549136273 8766.32505061912
1044.0130761128294 8723.531051277963
1044.9072756630649 8673.350146947454
1045.8012536286205 8824.399783592864
1046.6950100737577 8859.742798240875
1047.588545062701 8997.107152518056
1048.481858659663 8983.513750241926
1049.3749509288118 9033.808699179719
1050.2678219343034 8991.92923580488
1051.1604717402515 8949.861795167435
1052.0529004107575 9012.996495128136
1052.9451080098825 9134.769199860712
1053.8370946016694 9111.391847816321
1054.7288602501267 9141.986292659032
1055.6204050192446 9137.369480894447
1056.511728972977 9209.0480572271
1057.402832175254 9080.474944470992
1058.2937146899785 9143.258808357215
1059.1843765810263 9074.500637126466
1060.0748179122456 9106.39547553961
1060.9650387474576 9173.948736750444
1061.855039150456 9252.620607841625
1062.7448191850071 9190.52760359829
1063.6343789148505 9236.164413596207
1064.5237184037014 9302.51444753849
1065.412837715241 9216.029559887822
1066.3017369131267 9107.632289765601
1067.190416060992 9163.625480333547
1068.0788752224398 9236.927456341491
1068.9671144610438 9163.347051722923
1069.8551338403558 9151.613228200755
1070.7429334239023 9138.42191484609
1071.6305132751695 9121.269847481508
1072.517873457633 9163.95329179861
1073.4050140347335 9006.512929491473
1074.2919350698776 9043.569563374576
1075.1786366264623 9051.13794513756
1076.0651187678395 9025.598975236346
1076.95138155735 8941.165925392545
1077.8374250582929 8965.39419914244
1078.7232493339507 8945.109209347649
1079.608854447577 8885.35560155148
1080.4942404623907 8961.069876876103
1081.3794074415982 9005.672849666695
1082.2643554483657 9051.827353072156
1083.149084545841 8972.192392225483
1084.033594797138 8868.00233816444
1084.9178862653516 9080.177353279261
1085.8019590135427 9127.85203838816
1086.6858131047484 9065.43999587182
1087.5694486019802 9169.41237737826
1088.4528655682225 9217.26302644343
1089.3360640664287 9197.067599526332
1090.2190441595321 9204.187122508803
1091.1018059104317 9301.58654947938
1091.98434938201 9395.10394309893
1092.866674637111 9308.078205399088
1093.748781738559 9310.846776146685
1094.6306707491512 9249.648463294874
1095.5123417316554 9303.152948988522
1096.3937947488157 9250.279970221787
1097.2750298633455 9316.120786984216
1098.156047137938 9211.108866383089
1099.0368466352556 9207.905690731113
1099.9174284179317 9232.996751379009
1100.7977925485757 9096.24943525816
1101.6779390897755 9036.852870411602
1102.5578681040806 9095.496264306912
1103.4375796540226 9038.314589114772
1104.3170738021054 8840.931824062925
1105.1963506108077 8765.887099183388
1106.0754101425773 8824.408189246411
1106.9542524598382 8802.173584257886
1107.8328776249855 8796.242702730828
1108.7112857003904 8727.735044650151
1109.5894767483987 8857.345583835768
1110.4674508313292 8796.857372279894
1111.3452080114657 8788.25169252888
1112.2227483510815 8737.158618799327
1113.1000719124077 8930.126277626112
1113.9771787576592 8812.212271211793
1114.854068949022 8967.876444674363
1115.7307425486542 9050.870240143184
1116.6071996186893 9085.170946680662
1117.483440221229 9295.675289069924
1118.3594644183577 9313.365180632882
1119.235272272128 9441.737706820215
1120.1108638445658 9539.097861305834
1120.9862391976712 9661.221447402644
1121.8613983934229 9884.121353694623
1122.7363414937627 9914.96944326653
1123.6110685606182 10130.386750271351
1124.485579655884 10157.075711091304
1125.359874841426 10356.626967401748
1126.2339541790916 10321.91874604734
1127.1078177306936 10493.094988006671
1127.9814655580267 10509.22197981726
1128.854897722851 10599.44556340068
1129.7281142869106 10632.030001693272
1130.6011153119125 10649.797625975432
1131.473900859548 10703.599065749038
1132.3464709914697 10613.222306927271
1133.2188257693178 10552.299187826618
1134.0909652546961 10436.121691449716
1134.96288950919 10369.250878634977
1135.8345985943506 10342.097200694225
1136.7060925717087 10236.926179923224
1137.57737150277 10135.205850336188
1138.4484354490069 10001.931389159701
1139.3192844718778 9786.487828196692
1140.1899186327992 9776.840989296772
1141.060337993178 9615.348472895057
1141.930542614382 9424.661298825025
1142.8005325577597 9321.415315084325
1143.670307884635 9178.238680153638
1144.5398686563003 9128.906728167336
1145.409214934025 9034.494341446061
1146.2783467790541 8884.305693050019
1147.1472642526023 8761.594826314593
1148.0159674158622 8719.623673960752
1148.8844563300026 8547.007287036595
1149.7527310561618 8579.431972348822
1150.6207916554504 8436.60788961077
1151.4886381889592 8288.322685878775
1152.3562707177498 8349.86917531664
1153.2236893028585 8256.628211584704
1154.090894005296 8231.558312363202
1154.9578848860474 8220.99488019119
1155.8246620060709 8092.101084551299
1156.6912254262988 8045.431903571458
1157.5575752076438 8049.315084859479
1158.42371141098 8078.441684988192
1159.2896340971656 8065.673983665207
1160.1553433270346 7935.678693282753
1161.0208391613887 8016.064917765248
1161.8861216610057 7969.513012501287
1162.75119088664 7814.947572486692
1163.6160468990201 7911.4415138320355
1164.4806897588442 7889.62557070874
1165.3451195267917 7869.793142643088
1166.2093362635114 7857.818186764147
1167.0733400296285 7871.148102278661
1167.9371308857444 7779.165561862409
1168.8007088924278 7838.869889008354
1169.6640741102328 7863.455155431378
1170.5272265996773 7765.4114083285185
1171.390166421259 7797.422881509311
1172.252893635452 7798.268642499667
1173.1154083026995 7847.092209663069
1173.977710483421 7900.165752691629
1174.8398002380145 7872.534599646895
1175.7016776268483 7914.157674923199
1176.563342710264 7891.781834853517
1177.4247955485826 7838.407722204976
1178.2860362020947 7965.494490886437
1179.147064731069 7813.30899193385
1180.0078811957483 7988.806980640667
1180.8684856563486 8022.801131669687
1181.7288781730604 8113.17538774308
1182.589058806052 8217.467825256175
1183.4490276154593 8201.0006153935
1184.3087846614017 8043.480332356315
1185.1683300039676 8260.85437846025
1186.027663703222 8403.81362198394
1186.8867858192025 8388.369862780728
1187.7456964119228 8447.590818631887
1188.6043955413716 8489.816720053946
1189.4628832675116 8617.578579280154
1190.3211596502842 8657.10308801914
1191.179224749596 8731.341583252286
1192.0370786253388 8589.822682557025
1192.8947213373758 8849.346387345984
1193.7521529455407 8930.082131158877
1194.6093735096438 8833.248245823876
1195.466383089477 8951.36278083054
1196.3231817447977 8931.53105386407
1197.1797695353398 9024.136908009143
1198.0361465208189 8958.89973074018
1198.8923127609214 9012.486269555517
1199.7482683153048 9109.779146395495
1200.6040132436028 9071.402935754055
1201.459547605431 8989.126971668999
1202.3148714603722 8856.626621062112
1203.1699848679855 8908.969153860964
1204.0248878878065 9056.899853393592
1204.8795805793507 8810.13272856504
1205.7340630020935 8846.21499981366
1206.5883352155033 8814.666074374367
1207.4423972790064 8679.1365454972
1208.2962492520237 8621.119448836824
1209.1498911939307 8684.874817257922
1210.0033231640937 8503.312854383801
1210.8565452218427 8381.236208907847
1211.7095574264913 8298.954559009982
1212.5623598373222 8235.82606550971
1213.4149525135963 8200.216329770661
1214.2673355145507 8166.614004142994
1215.1195088993936 8067.280702669908
1215.9714727273113 8010.189830260075
1216.8232270574663 8027.824206308738
1217.6747719489904 7956.789585060391
1218.5261074609934 7835.128770743882
1219.3772336525653 7902.203947682026
1220.2281505827668 7909.334789452322
1221.0788583106296 7896.916836184626
1221.9293568951707 7733.592851848024
1222.7796463953746 7616.761049564487
1223.629726870202 7599.386403168666
1224.4795983785934 7659.510352280561
1225.3292609794553 7532.185625756663
1226.1787147316809 7572.013233645894
1227.0279596941327 7508.078439029554
1227.8769959256424 7685.692123157178
1228.7258234850306 7612.084815484852
1229.5744424310833 7437.755200159816
1230.422852822563 7564.229942285607
1231.2710547182105 7555.297714337396
1232.119048176739 7602.061275899783
1232.9668332568417 7538.130470426242
1233.8144100171812 7546.157977011369
1234.6617785163999 7595.242140300563
1235.508938813111 7514.238472914716
1236.3558909659114 7442.716385045909
1237.2026350333617 7588.951743641401
1238.049171074008 7548.915719876364
1238.8954991463652 7521.403801335354
1239.741619308932 7519.958162017894
1240.587531620169 8541.959792084988
1241.4332361385277 7645.336095923824
1242.2787329224248 7545.028934545022
1243.1240220302534 7449.57518241667
1243.9691035203869 7479.853904204999
1244.813977451171 7644.698529198968
1245.6586438809263 7598.231719797026
1246.5031028679496 7494.664573644378
1247.3473544705157 7637.498224984459
1248.1913987468706 7625.406386603159
1249.0352357552383 7605.140757358329
1249.8788655538228 7653.837714605192
1250.7222882007918 7624.536076368405
1251.565503754302 7701.788831406072
1252.4085122724755 7642.802121488157
1253.2513138134182 7647.007075751915
1254.0939084352049 7764.553828778828
1254.9362961958905 7728.821703795608
1255.7784771535007 7793.985817139219
1256.6204513660432 7720.360046694851
1257.4622188915 7796.032392998573
1258.3037797878242 7888.28861649494
1259.1451341129468 7838.009275499202
1259.9862819247755 7860.602071043089
1260.8272232811978 7986.620237045868
1261.6679582400666 7813.603718707035
1262.5084868592203 7831.507602436364
1263.34880919647 7865.801484016323
1264.1889253095997 7884.241966978318
1265.0288352563712 7913.679802319898
1265.8685390945266 7797.151941910242
1266.7080368817751 7870.479571383864
1267.5473286758115 7962.809079994178
1268.386414534294 7916.365504921062
1269.2252945148703 7837.293883687799
1270.0639686751547 7848.53913667287
1270.9024370727402 7793.979153369973
1271.7406997651997 7810.986348944098
1272.5787568100714 7777.371410327071
1273.4166082648808 7822.542202849827
1274.2542541871244 7854.711617041187
1275.091694634275 7774.865085741272
1275.9289296637817 7717.042229407818
1276.7659593330663 7811.149811132431
1277.6027836995308 7800.5370229755235
1278.4394028205552 7816.58240537237
1279.2758167534867 7790.21174362606
1280.112025555658 7821.781349960646
1280.9480292843746 7875.61919186492
1281.7838279969128 7721.585872656979
1282.6194217505326 7785.065975153365
1283.4548106024686 7616.0528985759465
1284.289994609926 7804.775469332529
1285.1249738300921 7840.365907971458
1285.959748320127 7752.681057273592
1286.7943181371702 7890.148772531646
1287.6286833383328 7919.449708390341
1288.4628439807038 7882.7839229501205
1289.2968001213521 7885.228772057955
1290.1305518173194 7892.013240619628
1290.9640991256183 7920.29120994044
1291.7974421032523 8103.278857473803
1292.630580807183 8045.498328891398
1293.463515294361 8145.03864187579
1294.29624562171 8252.091761982663
1295.12877184613 8255.759057389265
1295.961094024493 8273.234462237833
1296.79321221365 8315.42737227379
1297.6251264704333 8518.427684369162
1298.4568368516466 8518.337248584496
1299.2883434140658 8637.195581198446
1300.1196462144526 8544.044602425918
1300.9507453095375 8803.222847575258
1301.7816407560313 8726.08519378313
1302.6123326106172 8770.197521489268
1303.4428209299622 8886.10334477961
1304.2731057707024 9134.762179861664
1305.1031871894502 9072.114638722105
1305.933065242798 9021.232167079841
1306.7627399873181 9102.025623450329
1307.5922114795467 9324.84545221888
1308.4214797760123 9198.465549336452
1309.2505449332057 9223.925137360875
1310.0794070076026 9234.65488554102
1310.9080660556538 9413.761646924326
1311.736522133786 9426.641951760683
1312.5647752983987 9429.243471192764
1313.3928256058734 9372.307139422299
1314.2206731125661 9542.18417231998
1315.048317874809 9523.858793393147
1315.8757599489109 9653.233980231027
1316.7029993911547 9673.861643794635
1317.5300362578055 9762.745516514786
1318.356870605101 9633.132557284513
1319.183502489257 9693.571812736413
1320.0099319664623 9769.978098661306
1320.836159092889 9744.49984612998
1321.66218392468 9702.537453987763
1322.4880065179532 9686.687169666453
1323.3136269288134 9725.904015667058
1324.1390452133292 9822.840617810216
1324.9642614275563 9846.839408182072
1325.7892756275214 9671.805838250588
1326.6140878692295 9573.775727533979
1327.4386982086617 9620.155894097872
1328.2631067017755 9489.61623795462
1329.0873134045069 9439.134460033962
1329.911318372764 9280.17218099679
1330.735121662441 9210.553188250022
1331.558723329399 9182.913558020064
1332.3821234294774 8980.173370377177
1333.2053220185007 8975.3726548873
1334.0283191522612 8857.101932474901
1334.851114886529 8731.53099219649
1335.6737092770582 8697.854343637558
1336.4961023795695 8539.948369287038
1337.3182942497697 8528.135583821138
1338.1402849433325 8464.052149574649
1338.962074515921 8290.437366738714
1339.7836630231632 8126.548652555034
1340.6050505206676 8224.049643447794
1341.426237064028 8062.147683199252
1342.2472227088037 8058.607026888142
1343.0680075105338 7902.044646894648
1343.888591524741 7970.27256707739
1344.7089748069138 7888.432045923881
1345.5291574125276 7921.482117201043
1346.3491393970307 7689.576293373002
1347.168920815846 7833.013706863732
1347.9885017243778 7843.13056350657
1348.8078821780036 7582.383834067997
1349.6270622320844 7497.460448582
1350.4460419419447 7611.6743881218335
1351.2648213629054 7469.184650473515
1352.0834005502438 7478.157439829891
1352.90177955923 7454.352651108047
1353.7199584451064 7527.724635692993
1354.5379372630887 7424.805833421169
1355.355716068374 7416.58215357355
1356.1732949161305 7468.249968413664
1356.9906738615155 7457.409367562155
1357.8078529596478 7432.13065366245
1358.6248322656375 7465.292660280409
1359.441611834567 7329.093781560058
1360.2581917214866 7467.719676665909
1361.0745719814367 7291.479798664118
1361.890752669433 7355.595147915488
1362.7067338404577 7376.483392464678
1363.5225155494845 7258.434601004541
1364.3380978514506 7354.403164276484
1365.1534808012839 7196.0104282385
1365.9686644538815 7198.0045206040495
1366.783648864117 7415.898313647488
1367.5984340868417 7334.998189080665
1368.413020176893 7264.879539907277
1369.2274071890715 7319.6643472489795
1370.0415951781652 7281.268802426309
1370.8555841989346 7383.897699329938
1371.6693743061223 7179.444370728862
1372.48296555444 7119.792070763238
1373.2963579985844 7261.209885757407
1374.1095516932255 7174.6735719030185
1374.9225466930166 7130.677450499391
1375.7353430525782 7172.038803624282
1376.5479408265164 7204.448192511988
1377.36034006941 7199.581173310728
1378.1725408358216 7184.61370259171
1378.9845431802805 7211.357648348567
1379.796347157304 7235.462640865904
1380.6079528213813 7230.6818260671325
1381.4193602269788 7252.660967679913
1382.230569428546 7226.94593722031
1383.0415804805016 7291.289172995321
1383.852393437246 7135.143328183904
1384.6630083531563 7378.270700541805
1385.4734252825892 7325.086046446285
1386.2836442798798 7478.169479934108
1387.0936653993322 7394.119335719634
1387.9034886952395 7359.882471483719
1388.713114221864 7341.051296033741
1389.5225420334482 7386.170527330495
1390.331772184214 7527.116708947181
1391.1408047283585 7355.3776203552015
1391.9496397200564 7409.357200509194
1392.758277213461 7434.680493411807
1393.5667172627054 7448.021821385511
1394.3749599218918 7342.958196434965
1395.1830052451114 7364.097876859014
1395.9908532864265 7412.713488720978
1396.7985040998774 7363.429091250386
1397.6059577394808 7322.218366458127
1398.4132142592352 7266.9620967504625
1399.2202737131156 7293.554277053698
1400.027136155073 7373.5549040043525
1400.8338016390353 7259.634583279381
1401.6402702189134 7160.335951087875
1402.446541948586 7170.1540630129075
1403.2526168819204 7262.73819417334
1404.058495072757 7173.08048319616
1404.8641765749107 7162.063822239123
1405.6696614421799 7144.20710588146
1406.4749497283356 7176.454532290207
1407.280041487129 7026.981761014981
1408.084936772295 6919.582659280388
1408.8896356375335 7010.181973362522
1409.6941381365323 6979.389305503137
1410.498444322955 6862.036335178013
1411.3025542504402 6906.246181634984
1412.106467972606 6957.28384573381
1412.9101855430508 6851.001346409309
1413.7137070153458 6703.405261077061
1414.5170324430437 6775.611330527053
1415.320161879672 6819.223747248223
1416.1230953787435 6825.785205349185
1416.925832993742 6712.362731474153
1417.7283747781275 6695.092469723056
1418.5307207853439 6680.358554693841
1419.3328710688093 6729.145756192399
1420.134825681922 6613.675103748887
1420.9365846780584 6641.798917040522
1421.7381481105713 6646.478605549663
1422.539516032788 6721.547698583816
1423.3406884980232 6774.314145087248
1424.1416655595604 6632.094415161005
1424.942447270665 6803.298865726795
1425.7430336845828 6917.394042437758
1426.5434248545298 6921.05267637761
1427.3436208337116 6878.173197246707
1428.143621675301 6931.877524515138
1428.9434274324558 7057.320151024933
1429.7430381583108 6895.935795388842
1430.5424539059713 6996.390988628559
1431.3416747285337 7154.462289321615
1432.1407006790632 7253.302488172534
1432.9395318106053 7097.827730920597
1433.7381681761835 7124.028695483076
1434.5366098288014 7177.185606280128
1435.3348568214424 7118.933870428623
1436.1329092070573 7166.637214067707
1436.9307670385879 7138.440503129845
1437.7284303689503 7333.345920210329
1438.5258992510335 7287.134275182978
1439.3231737377118 7191.114654051674
1440.1202538818306 7208.810674699443
1440.9171397362225 7072.693812164034
1441.7138313536925 7113.046727299542
1442.5103287870243 7016.810068771738
1443.3066320889775 6946.620220634325
1444.1027413122956 7030.437847969923
1444.8986565096966 6962.63396421729
1445.694377733882 6982.566604025504
1446.4899050375207 6798.1231224933
1447.2852384732687 6794.830587902559
1448.0803780937622 6773.374026352775
1448.8753239516063 6702.707146658047
1449.6700760993954 6620.143725364428
1450.464634589689 6718.00619919286
1451.2589994750397 6683.355479270067
1452.0531708079689 6544.179245183814
1452.8471486409799 6465.867645594712
1453.6409330265524 6516.12068617037
1454.4345240171442 6514.3748949883975
1455.2279216651987 6422.4003892990995
1456.0211260231263 6337.272949017397
1456.8141371433194 6685.791006879005
1457.6069550781594 6480.359621969612
1458.3995798799897 6274.712463884933
1459.1920116011424 6250.4488207988725
1459.98425029393 6220.915568844397
1460.7762960106338 6276.699346994826
1461.5681488035225 6316.756615208611
1462.3598087248392 6171.632327111511
1463.1512758268036 6228.293588883039
1463.942550161617 6076.289373001957
1464.7336317814625 6030.7737287804175
1465.524520738496 6066.319928265185
1466.3152170848552 6035.347123562447
1467.1057208726506 6013.656264839561
1467.8960321539817 5984.819043444777
1468.6861509809169 5903.071167692666
1469.4760774055085 5959.112799021377
1470.265811479785 5723.183581115742
1471.055353255755 5745.780969124157
1471.844702785409 5667.401992631029
1472.6338601207044 5736.172886946421
1473.4228253135934 5653.191837545597
1474.2115984159936 5501.165582573648
1475.0001794798063 5595.501849069652
1475.7885685569145 5476.939574551287
1476.576765699172 5492.612606534703
1477.3647709584238 5551.980729099638
1478.1525843864802 5600.7520574804
1478.9402060351367 5497.854812468522
1479.7276359561693 5509.541061021514
1480.514874201328 5437.118604303642
1481.3019208223468 5536.789284181207
1482.0887758709323 5339.2202724225635
1482.8754393987747 5480.110765624964
1483.6619114575406 5393.504878291672
1484.4481920988783 5467.881035720539
1485.2342813744108 5472.048222085497
1486.0201793357446 5482.310632067301
1486.8058860344572 5395.542252171223
1487.591401522117 5451.1636898432025
1488.3767258502594 5466.611215907438
1489.1618590704056 5483.327983676397
1489.9468012340494 5403.233533173826
1490.7315523926754 5487.12635052612
1491.5161125977356 5617.475371666134
1492.3004819006637 5573.997657237016
1493.084660352877 5522.001162261897
1493.8686480057622 5518.143466298323
1494.6524449106964 5466.487864849566
1495.4360511190262 5590.811635851709
1496.219466682087 5478.179572581846
1497.0026916511779 5539.896535512806
1497.7857260775945 5452.2003090792405
1498.5685700125996 5449.342988789834
1499.3512235074395 5559.640341004626
1500.133686613337 5468.855545155689
1500.9159593814966 5558.463643432626
1501.698041863101 5531.402496206327
1502.4799341093094 5478.7596313027125
1503.2616361712662 5471.3611930548195
1504.043148100087 5364.535143602235
1504.8244699468742 5458.16337105839
1505.6056017626997 5454.765207075852
1506.3865435986281 5411.888754714121
1507.1672955056893 5434.923751131837
1507.9478575348967 5346.405962131469
1508.7282297372512 5532.173342169188
1509.5084121637192 5479.7023901183065
1510.2884048652577 5550.386743973269
1511.0682078927948 5433.32341386375
1511.8478212972423 5438.654516676906
1512.6272451294917 5428.182778125941
1513.4064794404076 5468.755023509741
1514.1855242808433 5443.271235889772
1514.9643797016215 5579.194873975228
1515.743045753552 5577.693068165155
1516.5215224874191 5577.520789393277
1517.2998099539836 5556.910280557962
1518.077908203999 5525.107472553582
1518.8558172881785 5658.844738963504
1519.633537257234 5654.72067713673
1520.4110681618404 5576.459768021055
1521.1884100526604 5575.268201427273
1521.9655629803365 5577.84880934978
1522.7425269954856 5831.852164708167
1523.5193021487103 5873.139490413786
1524.2958884905856 5691.373940380855
1525.0722860716687 5835.392847579891
1525.848494942502 5658.632409729091
1526.624515153595 5772.550085088474
1527.4003467554485 5868.137266388951
1528.175989798534 5869.746180939025
1528.9514443333064 5904.529990490619
1529.726710410203 6052.574240934917
1530.5017880796331 5901.957530891762
1531.276677391992 5818.840907840708
1532.0513783976457 5971.774502656659
1532.825891146953 5951.292737673935
1533.6002156902414 6001.071902888407
1534.3743520778207 6017.478634695575
1535.1483003599806 5972.099196370829
1535.9220605869923 5979.4099766264
1536.6956328091019 6024.756117962225
1537.4690170765407 5830.141310960763
1538.242213439511 5875.531349851417
1539.015221948208 5942.3566535217815
1539.78804265279 6030.5569481235825
1540.560675603405 5948.5934676478155
1541.3331208501804 5970.789788523379
1542.1053784432224 6012.611544137154
1542.8774484326168 5956.366440605939
1543.649330868422 5889.834228332612
1544.4210258006842 5838.733408682617
1545.1925332794308 5948.749563259987
1545.9638533546604 6001.16704830429
1546.7349860763552 5959.707776734481
1547.5059314944829 6050.025142674725
1548.27668965898 5941.071350722322
1549.0472606197673 5879.724449047701
1549.817644426752 5885.431503355327
1550.5878411298072 5948.235112591424
1551.3578507787988 5948.148223812464
1552.1276734235635 5887.589317790327
1552.8973091139233 5962.941913763542
1553.6667578996767 5967.209784740187
1554.436019830604 6045.921696388014
1555.20509495646 5926.965000765119
1555.9739833269869 5912.463298091285
1556.7426849919011 6031.048668965389
1557.511200000903 6042.36650071633
1558.2795284036674 5993.126999625717
1559.0476702498509 5982.248875244555
1559.8156255890954 6115.31537390997
1560.5833944710157 6262.086491067974
1561.3509769452048 6114.138828730716
1562.1183730612447 6047.861267796471
1562.8855828686865 5991.553840526936
1563.6526064170703 6040.683207323916
1564.4194437559127 6097.295431627927
1565.1860949347047 6191.233010053109
1565.9525600029283 6120.55955126732
1566.7188390100328 6085.399618091682
1567.4849320054564 6114.536541346211
1568.250839038612 6155.525042866219
1569.0165601588997 6176.312852398613
1569.7820954156887 6102.388697355275
1570.5474448583373 6040.213284858156
1571.31260853618 6096.647360517848
1572.0775864985299 6042.460644750176
1572.8423787946813 6120.24613659784
1573.6069854739108 6166.233682973278
1574.371406585471 6138.621731835116
1575.1356421785986 6250.319047980374
1575.899692302506 6136.800959802771
1576.6635570063845 6242.324412580528
1577.4272363394157 6183.507425494759
1578.190730350747 6097.022489847446
1578.9540390895163 6158.451277922625
1579.7171626048384 5987.049400562613
1580.480100945806 5903.263937270247
1581.2428541614918 6012.830247502112
1582.0054223009538 6023.296746086572
1582.767805413223 6062.384716803152
1583.5300035473156 6011.335282207613
1584.292016752228 6008.090415003068
1585.0538450769309 5937.132752330071
1585.8154885703807 5847.645442501637
1586.5769472815136 5881.854031401409
1587.3382212592405 5907.034243624907
1588.099310552463 6060.261505760694
1588.8602152100484 5837.75605365011
1589.6209352808564 5926.269685114031
1590.3814708137234 5742.905688628705
1591.14182185746 6089.927423865979
1591.9019884608679 5820.180107235168
1592.6619706727215 5731.74871541498
1593.4217685417734 5810.493000823366
1594.1813821167616 5949.915857057871
1594.9408114464022 5683.115411962031
1595.7000565793933 5778.990490593116
1596.459117564409 5737.623681570457
1597.2179944501113 5691.637921099057
1597.9766872851324 5537.984218646996
1598.735196118092 5643.763636189728
1599.4935209975883 5704.309135004042
1600.2516619721973 5638.681507235842
1601.0096190904787 5612.336870410954
1601.7673924009723 5624.579140467231
1602.524981952196 5695.290956127619
1603.2823877926476 5575.725723120163
1604.0396099708087 5532.215252931101
1604.7966485351371 5467.679662974812
1605.5535035340745 5582.08099902444
1606.3101750160404 5573.016698368186
1607.0666630294363 5501.727789439934
1607.822967622642 5553.081734299314
1608.5790888440224 5473.361819199375
1609.3350267419137 5623.282517121667
1610.0907813646445 5476.067242513235
1610.8463527605145 5434.10502462616
1611.601740977805 5556.506792430059
1612.356946064785 5634.62368731785
1613.1119680696902 5472.993649488619
1613.8668070407512 5474.785280032715
1614.6214630261748 5482.700225264903
1615.375936074137 5599.254476895017
1616.1302262328118 5367.738595371578
1616.8843335503425 5528.37990506636
1617.638258074854 5366.811977696687
1618.391999854457 5419.150153640452
1619.1455589372363 5572.953351497612
1619.8989353712623 5529.000010447976
1620.65212920458 5433.148864848576
1621.4051404852235 5418.587908850635
1622.1579692611976 5338.871745173763
1622.9106155804966 5265.1533588223
1623.663079491087 5402.115856682601
1624.4153610409248 5427.019838341863
1625.1674602779385 5408.428805489803
1625.9193772500403 5418.615351036535
1626.6711120051277 5391.107223962933
1627.4226645910676 5519.280978792862
1628.174035055721 5327.164343770981
1628.9252234469168 5469.857896447773
1629.676229812474 5562.220487204568
1630.4270542001905 5556.251238031406
1631.1776966578382 5581.0355748212005
1631.9281572331747 5546.404195707345
1632.678435973945 5736.455298946258
1633.4285329278573 5612.710247695025
1634.1784481426203 5469.865125579277
1634.9281816659113 5664.769404865591
1635.677733545388 5635.574482523305
1636.4271038286934 5708.009083333478
1637.176292563452 5752.671610711428
1637.9252997972635 5862.608501289635
1638.674125577716 5850.640561936065
1639.4227699523672 5915.066926835798
1640.171232968767 5926.4671048237105
1640.9195146744423 5898.901255012386
1641.6676151168977 6036.0212986375545
1642.4155343436178 6078.896353774622
1643.1632724020765 5989.204022130453
1643.9108293397167 6136.267834782191
1644.658205203974 6115.411564733202
1645.4054000422566 6339.989048107194
1646.1524139019566 6024.225168329761
1646.8992468304423 6146.670066877442
1647.6458988750728 6086.885492372773
1648.3923700831765 6123.853084608812
1649.1386605020743 6132.18688296195
1649.8847701790564 6135.485710825018
1650.6306991614038 6272.846637108493
1651.3764474963682 6216.478234318628
1652.1220152311944 6169.53107771682
1652.867402413096 6350.989403112007
1653.6126090892776 6193.017540986844
1654.3576353069184 6166.891366873117
1655.1024811131829 6148.519021357215
1655.8471465552066 6080.221951552632
1656.5916316801213 6243.384745966821
1657.3359365350298 6173.643697990084
1658.0800611670165 6014.811839612619
1658.824005623148 6016.822899598229
1659.5677699504722 5916.231522312113
1660.3113541960192 6004.138645468603
1661.054758406799 5960.330754838678
1661.7979826297997 5916.971137877177
1662.5410269119966 5771.224899287878
1663.283891300338 5715.016432450733
1664.0265758417645 5853.80918260106
1664.7690805831826 5735.456889621205
1665.5114055714948 5539.415304591116
1666.2535508535748 5611.556321582295
1666.9955164762814 5429.061296889153
1667.7373024864555 5535.115754369733
1668.478908930916 5442.182635154235
1669.220335856462 5423.997076544406
1669.9615833098778 5372.826914880775
1670.7026513379296 5342.085524986267
1671.44353998736 5428.03808277325
1672.1842493048916 5154.037633965834
1672.9247793372379 5214.898192434189
1673.6651301310812 5218.564163550253
1674.4053017330934 5148.468983568893
1675.1452941899242 5158.624139632414
1675.885107548207 4930.074777612028
1676.6247418545518 4882.909572966756
1677.3641971555535 4877.773258058152
1678.1034734977893 4955.528000363466
1678.8425709278108 4978.480808149112
1679.5814894921605 4881.816584169495
1680.320229237359 4842.93805140332
1681.0587902098978 4768.493593967457
1681.7971724562685 4678.674962936512
1682.5353760229264 4642.6736891312285
1683.2734009563173 4703.933185099957
1684.0112473028657 4487.5336581619695
1684.7489151089794 4608.062310534451
1685.4864044210462 4462.3266687742125
1686.2237152854377 4414.183704515312
1686.960847748498 4413.224038101455
1687.6978018565642 4254.667562690276
1688.434577655944 4330.831276420474
1689.1711751929379 4162.862113201813
1689.9075945138156 4243.66038969637
1690.6438356648396 4179.262288913761
1691.3798986922448 4060.820167846473
1692.1157836422499 4174.188481390997
1692.851490561059 4102.427472152436
1693.587019494853 4042.6265683823267
1694.3223704897991 3925.5477054140415
1695.0575435920364 3812.446706724759
1695.792538847696 4004.9944963783832
1696.527356302886 3912.6923419246805
1697.2619960036936 3816.5997317806396
1697.9964579961907 3778.968896029584
1698.730742326432 3603.10102978048
1699.4648490404488 3732.391447974912
1700.1987781842563 3696.3656232584735
1700.9325298038548 3609.0792078939767
1701.6661039452174 3675.7561464303994
1702.3995006543082 3773.452656439432
1703.1327199770658 3692.2684719545096
1703.865761959416 3630.2560987229226
1704.598626647261 3610.9872463141155
1705.3313140864866 3467.5069911058577
1706.0638243229587 3472.702153479925
1706.7961574025303 3525.8890474566165
1707.528313371029 3444.1005774934356
1708.260292274268 3401.9158490666114
1708.9920941580403 3524.257232372839
1709.7237190681226 3445.3555297846733
1710.4551670502697 3365.371557182813
1711.18643815022 3353.247717552194
1711.9175324136959 3499.597906067588
1712.6484498863938 3329.6525586935
1713.379190614005 3304.326443332369
1714.109754642188 3422.4656071806276
1714.8401420165883 3258.0107154868083
1715.570352782839 3597.6192964470465
1716.3003869865497 3322.5187614276424
1717.0302446733076 3204.148365403901
1717.7599258886876 3333.790823877104
1718.4894306782444 3421.8069179608674
1719.2187590875183 3100.6289608310644
1719.9479111620203 3418.7107220150583
1720.6768869472544 3250.2907555690026
1721.4056864887025 3251.579112063072
1722.1343098318284 3265.6341165778986
1722.8627570220742 3263.2258595296867
1723.591028104871 3229.248711563504
1724.3191231256242 3057.6179761755347
1725.0470421297232 3235.17900049647
1725.7747851625427 3320.218159466912
1726.5023522694337 3159.649492366452
1727.2297434957363 3136.5255178441475
1727.9569588867635 2988.8634273696393
1728.6839984878152 3138.1512628610694
1729.4108623441734 3103.640211166231
1730.1375505011038 3230.1977635285666
1730.8640630038426 3059.6696268149653
1731.5903998976264 3037.516618181921
1732.316561227657 3146.6798582369456
1733.0425470391274 2928.9718610607915
1733.7683573772065 3127.4964433769946
1734.4939922870508 3122.9147537375784
1735.2194518137949 3111.384117210092
1735.9447360025606 3063.1052789994346
1736.669844898439 2973.3307715541005
1737.3947785465189 2977.7587931628664
1738.1195369918605 2839.1190384467004
1738.8441202795093 3048.5409196171795
1739.5685284544943 3063.002015341359
1740.292761561821 3061.2187168515693
1741.0168196464838 3000.314624377462
1741.7407027534518 3146.9470498407436
1742.464410927687 2895.0451010731517
1743.187944214118 2952.8906052351617
1743.9113026576688 3056.269761832002
1744.634486303241 3080.0854702925435
1745.3574951957125 3008.797230006793
1746.0803293799509 3071.5119414807045
1746.8029889008048 3052.071746473751
1747.5254738031017 2968.7015816963076
1748.2477841316504 2848.1617284082686
1748.969919931249 2979.299159139422
1749.6918812466665 2912.670488822181
1750.4136681226646 2873.794389288497
1751.1352806039777 3052.671934169801
1751.856718735331 2750.961571486033
1752.5779825614281 2849.500928463474
1753.2990721269507 2946.0255055885536
1754.0199874765676 2901.8929209712724
1754.7407286549314 2739.9249870509225
1755.4612957066693 2974.577516529775
1756.1816886763954 2907.209746708198
1756.9019076087097 2949.598187002151
1757.6219525481865 2935.3867673297304
1758.3418235393856 2926.2889809872795
1759.061520626854 2908.3004175037904
1759.7810438551096 3004.4935892385492
1760.5003932686614 2899.2374546699075
1761.2195689119999 2811.148272498099
1761.938570829594 2941.9862683936344
1762.657399065898 2920.0491645625534
1763.376053665348 2778.884857463251
1764.0945346723602 2681.7772239599312
1764.812842131334 2889.180647413551
1765.5309760866512 2810.51910873603
1766.2489365826787 2770.5011530103143
1766.9667236637597 2738.4309518094697
1767.684337374223 2669.3073042533706
1768.401777758383 2659.430675869237
1769.1190448605284 2834.793162303672
1769.836138724937 2725.452818052382
1770.5530593958665 2891.910385954521
1771.2698069175603 2922.9818239896645
1771.9863813342326 2862.663148516761
1772.702782690094 2709.7734473696005
1773.4190110293293 2984.900027392825
1774.1350663961111 2805.083412833378
1774.8509488345844 2794.6527691262154
1775.5666583888924 2904.564344583602
1776.2821951031437 2903.418275427715
1776.9975590214362 2771.0715017584757
1777.7127501878585 2817.8113044130414
1778.4277686464684 2862.317105395117
1779.1426144413108 2891.833120889957
1779.8572876164162 2820.5201808943016
1780.571788215797 2758.0881420847263
1781.2861162834415 2720.5796691795767
1782.0002718633277 2874.5118357550027
1782.7142549994132 2785.5726053030517
1783.4280657356376 2647.196271978403
1784.141704115922 2727.8156075802353
1784.855170184177 2778.5086486077134
1785.5684639842839 2669.9318681052755
1786.2815855601148 2561.892375104231
1786.9945349555237 2788.6516382393947
1787.707312214343 2689.527278295059
1788.4199173803918 2909.7184399126477
1789.132350497468 2669.829874370201
1789.8446116093583 2743.1261999495127
1790.556700759822 2711.109716382458
1791.2686179926077 2831.294176149298
1791.9803633514493 2795.3924670104416
1792.6919368800554 2625.630870133758
1793.4033386221236 2648.9299578345504
1794.1145686213295 2861.0104872925995
1794.8256269213307 2828.042972075076
1795.536513565774 2704.8805497115027
1796.247228598284 2578.171033585932
1796.9577720624693 2553.7647219107
1797.6681440019165 2839.0062481823816
1798.3783444602013 2641.1705553363
1799.0883734808776 2688.96856561205
1799.7982311074884 2700.4525756929615
1800.5079173835475 2843.730106552124
1801.2174323525633 2702.348332544567
1801.9267760580187 2622.5390905500876
1802.635948543386 2656.5372837025043
1803.3449498521113 2563.968711618681
1804.0537800276325 2780.6950602438533
1804.7624391133668 2685.5387906514115
1805.47092715271 2496.6745569794493
1806.1792441890484 2658.3025422333303
1806.8873902657433 2709.0524659472753
1807.5953654261448 2743.3371439499833
1808.3031697135812 2652.26490140534
1809.0108031713662 2673.287257790237
1809.71826584279 2580.3044549050246
1810.425557771141 2590.3280001602725
1811.1326789996747 2829.2964194121187
1811.839629571632 2567.4845828818134
1812.5464095302468 2718.0221156708203
1813.2530189187182 2582.4401239259887
1813.959457780249 2653.644744612743
1814.6657261580076 2691.47867868107
1815.371824095153 2697.618702032447
1816.0777516348262 2780.7022662501136
1816.78350882015 2394.9174778395036
1817.4890956942272 2649.582435726242
1818.1945123001533 2674.443953350189
1818.8997586809928 2487.523143024385
1819.6048348798067 2534.1639775452854
1820.3097409396287 2531.3481873338033
1821.0144769034796 2747.3498252686272
1821.7190428143622 2647.0661960278962
1822.423438715261 2580.122016686091
1823.1276646491478 2583.519244917494
1823.8317206589727 2611.1514741510996
1824.5356067876692 2583.2463614770136
1825.2393230781581 2497.2771789402054
1825.942869573335 2532.2770963046687
1826.646246316086 2544.5921989658473
1827.3494533492758 2490.49831295251
1828.052490715756 2707.2707391152194
1828.7553584583547 2631.4228331826034
1829.458056619891 2651.552464259869
1830.1605852431585 2598.5484639216543
1830.8629443709433 2520.352954559031
1831.5651340460063 2582.0837990080927
1832.2671543110919 2421.470975690316
1832.9690052089318 2667.3701788292956
1833.6706867822395 2395.5761354003816
1834.3721990737104 2575.4788556390295
1835.0735421260233 2643.5790034344695
1835.774715981841 2448.2766604416547
1836.4757206838058 2555.511902954766
1837.1765562745459 2640.81787144403
1837.8772227966747 2501.944930474276
1838.5777202927839 2526.784722521898
1839.2780488054523 2537.828099454066
1839.9782083772352 2442.310889753514
1840.6781990506806 2502.544340918599
1841.378020868313 2475.918408902778
1842.0776738726418 2563.2033170316163
1842.777158106157 2418.485862924658
1843.4764736113375 2380.3497635678596
1844.1756204306403 2510.6639003119667
1844.8745986065078 2427.8395259939525
1845.5734081813607 2435.7462178597248
1846.2720491976124 2573.515968960206
1846.970521697649 2407.620755955952
1847.6688257238511 2518.180599811593
1848.3669613185684 2542.80001413388
1849.0649285241452 2350.7048076317737
1849.7627273829057 2593.710592142513
1850.460357937156 2353.1937116564122
1851.1578202291857 2370.036920516637
1851.8551143012664 2451.9122654901216
1852.5522401956569 2442.1435925390356
1853.2491979545957 2539.656122736876
1853.9459876203055 2383.6169361981197
1854.6426092349902 2401.916918728427
1855.3390628408451 2435.215811640406
1856.0353484800362 2492.9488053267514
1856.7314661947203 2449.910577469487
1857.4274160270397 2337.7589354272586
1858.123198019115 2335.2875259653847
1858.8188122130487 2402.910998183489
1859.5142586509319 2441.176426780721
1860.209537374838 2365.0684454486823
1860.9046484268183 2378.1625506682276
1861.599591848917 2391.246479672979
1862.294367683151 2235.784107445213
1862.988975971528 2433.021213667349
1863.6834167560355 2245.1016076821516
1864.3776900786452 2554.8912401166453
1865.0717959813119 2447.7948082301677
1865.7657345059724 2284.776810154184
1866.4595056945564 2472.32694604231
1867.1531095889586 2417.4996249458472
1867.846546231076 2339.948487326268
1868.5398156627743 2410.155887680693
1869.2329179259123 2281.796558731982
1869.9258530623283 2468.6312866463472
1870.618621113843 2540.859304692868
1871.3112221222636 2371.7874139419714
1872.0036561293764 2254.190999587284
1872.695923176956 2356.979843618595
1873.3880233067594 2470.4555204025196
1874.0799565605212 2253.127122433151
1874.7717229799673 2460.123122189905
1875.4633226068036 2425.034469631879
1876.1547554827175 2418.1720777939254
1876.8460216493859 2254.1224807963217
1877.5371211484617 2419.463114524223
1878.2280540215852 2346.2337556943075
1878.9188203103804 2255.1464147828383
1879.6094200564548 2437.638461026665
1880.299853301396 2290.5675953544187
1880.9901200867826 2480.403248968625
1881.6802204541673 2519.5491315041754
1882.3701544450942 2474.2975856016083
1883.059922101087 2174.6270843951525
1883.7495234636517 2267.802813022138
1884.4389585742792 2185.652041379906
1885.1282274744517 2329.6854675677264
1885.8173302056166 2653.116739325572
1886.506266809225 2347.068761709397
1887.195037326701 2326.343638668669
1887.8836417994517 2210.030698607238
1888.5720802688702 2410.1172890970774
1889.260352776333 2323.332423968226
1889.9484593632042 2419.1452727777955
1890.63640007082 2246.3094992365855
1891.3241749405151 2257.1012427286973
1892.0117840135954 2320.0062346561986
1892.6992273313572 2392.914157229366
1893.3865049350788 2277.108689247001
1894.0736168660223 2384.232124215602
1894.7605631654333 2402.2845158422924
1895.4473438745408 2277.859247424293
1896.133959034556 2536.4118526684897
1896.820408686679 2341.2816374839267
1897.506692872088 2341.7669598219486
1898.192811631945 2401.8350239358124
1898.8787650073991 2374.31443925988
1899.5645530395832 2474.3760536894224
1900.2501757696118 2339.3660191770578
1900.9356332385796 2182.589925044208
1901.620925487574 2516.181932214261
1902.3060525576602 2312.479032039987
1902.9910144898859 2235.711323284547
1903.6758113252872 2318.938848178065
1904.3604431048789 2226.7766236373054
1905.0449098696663 2452.4655040513444
1905.7292116606295 2195.2153571595322
1906.4133485187394 2267.9592313143703
1907.0973204849488 2100.3923498583104
1907.7811276001976 2099.8930488010014
1908.4647699053967 1977.0199398792604
1909.1482474414588 1853.8159464251517
1909.8315602492694 2053.838726414443
1910.5147083696957 2304.6426143895
1911.1976918436012 2274.392810638589
1911.880510711815 2247.6601390369324
1912.5631650151681 2297.225850218035
1913.2456547944657 2238.9791133256977
1913.927980090495 2152.0295607304597
1914.6101409440362 2260.6055226962517
1915.2921373958416 2353.6583016409922
1915.9739694866603 2393.281526939818
1916.655637257214 2283.1686527710476
1917.3371407482136 2310.8185435143896
1918.0184800003572 2412.5950548140036
1918.6996550543154 2437.521997120147
1919.3806659507554 2289.8452267530065
1920.0615127303208 2215.180942026074
1920.7421954336423 2312.1292923589526
1921.4227141013343 2400.7352090958234
1922.103068773993 2362.0235796902916
1922.783259492202 2236.789421151446
1923.4632862965227 2229.7012501576783
1924.1431492275078 2227.369745639008
1924.8228483256917 2199.0557165011714
1925.5023836315922 2098.062648840928
1926.1817551857057 2041.8049170272855
1926.8609630285227 2259.2394553420954
1927.5400072005123 2385.507734016158
1928.218887742125 2106.937048445044
1928.8976046938005 2302.8697419826963
1929.5761580959588 2337.13839003193
1930.2545479890086 2165.1273479059646
1930.9327744133352 2163.8722257114573
1931.6108374093164 2305.682192611278
1932.2887370173066 2250.9527805145635
1932.9664732776473 1972.5295682586088
1933.6440462306673 2402.454566765192
1934.3214559166754 2233.9942651290844
1934.9987023759659 2212.7047189330738
1935.675785648813 2246.265205399718
1936.3527057754836 1954.675227826728
1937.029462796223 2363.9177680068615
1937.70605675126 2147.9243190014286
1938.3824876808085 2096.0756336232025
1939.058755625072 2076.5348521089586
1939.7348606242267 2230.498516122933
1940.4108027184448 2277.9305618709127
1941.0865819478713 2261.444784011791
1941.7621983526478 2293.698642656948
1942.4376519728921 2157.435350565434
1943.1129428487038 2139.7230806357347
1943.7880710201734 2120.96281175431
1944.4630365273733 2289.4827224459173
1945.1378394103576 2157.196968287249
1945.8124797091714 2261.441899360621
1946.4869574638324 2092.0830855126706
1947.161272714353 2117.2174181161854
1947.8354255007234 2306.5057013861665
1948.5094158629272 2062.131347125335
1949.1832438409183 2298.091235236304
1949.8569094746435 2267.2297871526926
1950.530412804037 2295.4230499977866
1951.2037538690092 2362.459117330497
1951.8769327094578 2093.672153658533
1952.5499493652678 2124.6096264667276
1953.222803876306 2299.433531861124
1953.895496282421 2262.269774818241
1954.5680266234522 1983.404785533759
1955.2403949392155 2224.4782710488366
1955.9126012695142 2119.6121975710066
1956.5846456541403 2150.230498088213
1957.2565281328643 2082.2959374132006
1957.9282487454457 2314.303863743494
1958.5998075316202 2108.6802259913347
1959.27120453112 2164.1097451063624
1959.9424397836501 2177.5830818905447
1960.613513328908 2148.962072158438
1961.2844252065697 2286.0501595835804
1961.9551754563017 2068.9096439809814
1962.6257641177453 2095.966238275868
1963.29619123054 2059.060788547026
1963.966456834296 2117.417351998956
1964.6365609686181 2088.165261375132
1965.306503673086 2227.208578540193
1965.976284987275 2128.8796600027263
1966.645904950734 2139.816159709418
1967.315363603002 2073.7577307451984
1967.9846609836077 2227.5817166878087
1968.6537971320486 1957.9578940865576
1969.3227720878222 2053.4029398736575
1969.9915858904042 2079.730881688018
1970.660238579252 2202.946607249417
1971.3287301938108 2143.524237424155
1971.997060773514 2033.8185324097267
1972.665230357772 2162.719623991828
1973.3332389859843 2109.832409045889
1974.0010866975335 1927.2202111419192
1974.6687735317864 2127.284291032
1975.3362995280932 2142.0406297463187
1976.003664725793 2041.4673195207415
1976.6708691642052 1994.289240810414
1977.3379128826364 2180.720906846573
1978.004795920373 2095.433859980576
1978.6715183166925 2171.3504436804537
1979.3380801108524 1927.374434842087
1980.0044813420973 2168.8996724336575
1980.6707220496555 1949.752965114433
1981.3368022727373 2150.9377730314236
1982.0027220505417 2073.7255177293237
1982.66848142225 1825.4582164527412
1983.3340804270283 2004.4664717950495
1983.999519104027 2018.4991690235238
1984.6647974923835 2091.7905050579816
1985.329915631215 1994.4465411618796
1985.99487355963 2053.699025252171
1986.6596713167146 2227.7026929919584
1987.3243089415428 2056.4296255258732
1987.9887864731754 1993.680930074157
1988.6531039506553 1955.012659837203
1989.3172614130071 2311.1474176247552
1989.9812588992481 1958.3880964933846
1990.645096448372 1911.5704000106125
1991.3087740993633 2133.0303231298626
1991.9722918911848 1923.1739885529228
1992.635649862792 2153.2190052816636
1993.2988480531185 1986.7160070276561
1993.9618865010852 2200.0953794860934
1994.6247652455968 2014.1398734337945
1995.287484325545 1942.9923536493159
1995.9500437798033 2110.3987947176356
1996.6124436472292 1935.2437133164663
1997.2746839666706 1971.3020566566624
1997.936764776954 1984.9507601906475
1998.598686116895 1989.3871266875663
1999.2604480252903 2140.481605322541
1999.9220505409212 2190.169535531565
2000.5834937025593 1906.731833120189
2001.2447775489582 2087.7559084227482
2001.9059021188514 2033.0649348109553
2002.5668674509616 1972.9423978338607
2003.2276735839987 2010.5788368774436
2003.8883205566508 2023.364504945898
2004.5488084075987 2081.565124365413
2005.2091371755014 2042.6681928543767
2005.8693068990033 1951.0336817928953
2006.5293176167397 2071.695273324929
2007.1891693673224 1962.6497295725264
2007.848862189354 1777.8373762979718
2008.5083961214223 1973.9734045675705
2009.1677712020955 2007.436691424326
2009.8269874699254 1917.2233685143124
2010.4860449634598 2244.9105643881367
2011.1449437212177 1970.2644817902205
2011.8036837817108 2046.1834395950118
2012.4622651834325 2011.464715336774
2013.1206879648653 2225.1846398684784
2013.7789521644736 2091.0241148781543
2014.4370578207036 1866.0349050387806
2015.0950049719922 1972.075508423401
2015.7527936567585 2007.7195855808593
2016.4104239134067 1895.525411544834
2017.067895780323 2086.519746956551
2017.725209295886 1806.6253694334216
2018.3823644984514 1960.8014832269225
2019.0393614263648 2049.509192816329
2019.6962001179545 1886.358261352473
2020.3528806115355 1879.321032696862
2021.0094029454067 2040.7789557442425
2021.6657671578487 1836.4071190565023
2022.321973287133 2110.6450691164414
2022.9780213715148 1941.2926602932039
2023.6339114492293 2211.3303221114465
2024.2896435585026 2061.1949024577843
2024.9452177375442 2005.379023975012
2025.600634024544 1959.166698975568
2026.2558924576842 1927.9576700698374
2026.9109930751292 2135.7023639358654
2027.565935915025 1979.0291823918865
2028.2207210155066 2138.7083949774506
2028.8753484146964 2214.0787669066403
2029.529818150695 1886.6963052198407
2030.1841302615903 1960.5960521008014
2030.8382847854573 1902.3845828991057
2031.4922817603601 1903.9638336891908
2032.1461212243357 1911.8928420826026
2032.7998032154192 1790.2039208387728
2033.4533277716218 1988.552734098656
2034.1066949309443 1866.2434314022278
2034.7599047313688 1851.3166412083654
2035.4129572108704 2027.7403586369571
2036.0658524074006 1904.8193173721731
2036.7185903589016 2050.6614877844545
2037.3711711032956 2135.0558072770145
2038.023594678496 2065.1906746758523
2038.675861122394 1855.047631742001
2039.3279704728757 2154.6826348418927
2039.9799227678031 1886.9692287276362
2040.6317180450278 2057.9096883372545
2041.2833563423865 1886.2105757331785
2041.9348376977014 2214.4058861943986
2042.5861621487784 1851.994282894153
2043.2373297334088 1986.7929024642308
2043.8883404893695 1998.986191950001
2044.5391944544208 1947.3489840777504
2045.1898916663158 2004.968980101218
2045.8404321627804 2047.949880020685
2046.4908159815368 1825.4795794556387
2047.1410431602853 1537.5930397669417
2047.7911137367173 1869.0978578522772
2048.441027748504 2030.4000319503848
2049.090785233302 1897.8340239216136
2049.7403862287592 1895.3150163694452
2050.389830772503 1975.9091994582081
2051.0391189021466 1897.098100524802
2051.688250655294 1940.827398533303
2052.337226069527 1956.6138335741111
2052.986045182417 2047.9884588291648
2053.634708031521 1715.010854102009
2054.283214654375 1673.0335830498293
2054.931565088511 1631.051894455318
2055.579759371436 1870.7579920109551
2056.2277975406523 1839.5239851145645
2056.8756796336384 1990.177066644554
2057.5234056878617 1668.8369337051258
2058.1709757407752 2044.3998459899515
2058.8183898298194 2060.9258116126766
2059.465647992416 1962.8075551098111
2060.1127502659747 2089.981210943647
2060.759696687888 1945.1524805318531
2061.4064872955405 1896.641019594896
2062.053122126292 2130.4253289200888
2062.699601217497 1662.6562971542403
2063.345924606485 1788.9938870318153
2063.992092330587 2089.0784014840324
2064.638104427102 1917.3767410100415
2065.283960933324 1919.2892207373122
2065.92966188653 1796.294955475904
2066.5752073239855 1937.9600410827672
2067.2205972829397 1739.8712887380796
2067.86583180062 1868.0128356281616
2068.5109109142522 1964.4337867090567
2069.15583466104 1985.8358447319351
2069.8006030781708 1935.5135238532253
2070.445216202821 1625.3624965407882
2071.089674072153 1838.115153567299
2071.7339767233116 1995.1829891969574
2072.3781241934303 1844.3631828392067
2073.0221165196253 2070.1238179328348
2073.6659537390024 1982.1162377587273
2074.3096358886505 1986.6483036697318
2074.953163005637 1879.213250052114
2075.596535127028 1680.1686669498388
2076.2397522898664 1803.7409037963541
2076.882814531182 1820.9410904609208
2077.5257218879924 2081.1742288689193
2078.1684743973 1929.9418680917302
2078.8110720960885 1796.8538187738795
2079.453515021336 1944.9273583257338
2080.095803209997 1910.4161960772428
2080.7379366990135 1910.294023074342
2081.37991552532 1982.58997542381
2082.0217397258275 1856.985867769495
2082.6634093374414 1688.6747771181497
2083.3049243970418 1954.5907265149556
2083.9462849415067 1852.053870986167
2084.587491007689 1934.1064645352149
2085.2285426324324 1857.1070106008526
2085.869439852564 1918.7469530776907
2086.510182704902 1574.6253794912313
2087.1507712262483 1834.1217709597556
2087.791205453381 1776.607008866753
2088.4314854230743 1766.4923135000813
2089.0716111720867 2009.3024051052168
2089.7115827371617 1598.6854926451972
2090.351400155023 1911.578405041737
2090.991063462385 1790.0035482058477
2091.6305726959527 1645.0104853438256
2092.2699278924047 1808.7324050090015
2092.9091290884153 1825.8254919612805
2093.548176320641 1736.6859770228598
2094.187069625721 2011.0925103294758
2094.8258090402887 1663.224058357444
2095.464394600951 1954.5639210525994
2096.102826344313 1882.7956131081505
2096.741104306955 1983.5621050096197
2097.379228525453 1783.4976755776315
2098.017199036358 1651.2671827484635
2098.6550158762147 1856.9897263889986
2099.2926790815527 1941.6141699794116
2099.9301886888825 1780.704508532907
2100.5675447347076 1678.5470907323331
2101.2047472555114 2024.781183281087
2101.841796287761 1689.2225922946116
2102.47869186792 1994.6994752518876
2103.1154340324265 1710.6678954635531
2103.752022817709 1592.463540552043
2104.388458260184 1738.213574572847
2105.024740396251 1831.882059431379
2105.660869262292 1810.0865555763899
2106.296844894685 1734.5371899751467
2106.93266732978 1835.7917177084582
2107.5683366039284 1732.6537793029042
2108.2038527534532 1797.0849517031104
2108.8392158146726 1999.6982988877237
2109.4744258238843 1846.0392294886594
2110.1094828173755 1746.1477352963161
2110.744386831422 1876.0882951528579
2111.3791379022787 1844.783300203309
2112.01373606619 1853.26712603599
2112.648181359389 1960.9260267761977
2113.28247381809 1888.41065245776
2113.916613478492 1849.5848516488793
2114.550600376786 1823.9209951146684
2115.1844345491445 1706.9460537782954
2115.818116031729 1991.092036282711
2116.451644860679 1850.6825065090775
2117.085021072133 1746.4602517769315
2117.718244702204 1712.7223942968826
2118.3513157869984 1692.2709007870544
2118.984234362604 1571.4680796271143
2119.617000465092 1828.4295188728672
2120.249614130529 1929.0420567699234
2120.8820753949585 1804.358116841057
2121.5143842944162 1731.038663884677
2122.14654086492 1612.2945240465972
2122.7785451424734 1868.218279070849
2123.4103971630702 1554.1760933485373
2124.042096962681 1993.2484318750878
2124.6736445772767 1815.825448788491
2125.305040042802 1581.2187158667894
2125.936283395191 1793.5693815858153
2126.567374670365 1788.491705729927
2127.198313904233 1636.9655052566015
2127.8291011326855 1695.237372372807
2128.4597363916037 1753.4297025003975
2129.0902197168507 1634.3657229814187
2129.720551144279 1722.7418295604566
2130.3507307097225 1956.8003127443603
2130.980758449008 1619.1635266701421
2131.6106343979427 1692.4230300518507
2132.2403585923203 1890.4106945675426
2132.8699310679276 1686.6928560603033
2133.499351860526 1749.9368303938961
2134.1286210058715 1815.7437315406758
2134.7577385397053 1486.7267725003312
2135.3867044977487 1841.454159329897
2136.0155189157176 1830.0861876664706
2136.644181829308 1777.5022975932734
2137.2726932742025 1637.235021719776
2137.901053286074 1947.0569237736768
2138.5292619005777 1717.7570996486127
2139.1573191533535 1793.3839930879476
2139.7852250800315 1849.0679331071647
2140.4129797162295 1797.9128234422617
2141.0405830975433 1519.9406583133887
2141.6680352595613 1894.6209882723954
2142.2953362378576 1760.135510011402
2142.9224860679915 1587.5045943166358
2143.549484785508 1797.71794922529
2144.1763324259373 1709.592537864948
2144.803029024799 1683.333609513997
2145.429574617594 1544.0754168933936
2146.0559692398165 1942.6208688603433
2146.682212926942 1707.8209418579088
2147.308305714432 1731.84072910023
2147.9342476377333 1881.6960888552653
2148.5600387322847 2064.767966383718
2149.185679033506 2021.4514254911799
2149.8111685768017 1635.4563184850392
2150.4365073975678 1539.7856256282123
2151.061695531187 1851.2413583153495
2151.686733013021 1987.1560200432546
2152.311619878423 1822.962190293688
2152.9363561627342 1698.1350636141829
2153.560941901278 1561.454170388843
2154.1853771293663 1625.73604273161
2154.809661882293 1702.7685430781833
2155.433796195348 2062.265522208488
2156.0577801037944 1742.0951858025296
2156.681613642895 1712.0052586510876
2157.3052968478896 1544.1634031689812
2157.928829754006 1839.3781112500296
2158.552212396462 1890.3141651533992
2159.1754448104566 1719.928710106462
2159.7985270311783 1772.4496050062746
2160.4214590938027 1442.2679173866914
2161.0442410334927 1452.4140987300284
2161.6668728853874 1771.3611845511073
2162.289354684628 1695.3957267942055
2162.911686466332 1863.8497486802603
2163.533868265602 1650.55211839284
2164.1559001175337 1772.510788281048
2164.7777820572046 1705.211724138131
2165.399514119681 1571.5389850875963
2166.021096340013 1545.473321278812
2166.6425287532384 1528.4997498408109
2167.263811394385 1511.5861987120193
2167.8849442984574 1825.6163031535011
2168.505927500455 1560.2143553216506
2169.126761035366 1798.2912301194822
2169.7474449381552 1652.845028372946
2170.367979243778 1635.4044365932255
2170.9883639871823 1751.6653878042594
2171.608599203293 1558.539316758137
2172.2286849270276 1883.9549084931718
2172.8486211932886 1739.0791413488034
2173.4684080369625 1887.5869068467541
2174.0880454929265 1525.8425100413094
2174.7075335960417 1427.3510636390254
2175.3268723811543 1472.1153078383516
2175.9460618831 1517.0135136972426
2176.565102136701 1597.1983713231157
2177.1839931767627 1619.2101352262362
2177.802735038078 1641.3033284249468
2178.421327755432 1711.375857404916
2179.0397713635866 1517.6719801991408
2179.658065897298 1746.5022746695333
2180.276211391305 1677.8221574133865
2180.8942078803357 1730.6377925302252
2181.5120553991 1614.7367379671034
2182.129753982299 1497.1951475536011
2182.7473036646206 1614.317620528577
2183.3647044807367 1753.2493265333646
2183.9819564653044 1616.7383148591346
2184.599059652968 1963.5900307450302
2185.216014078367 1747.5039013351834
2185.832819776113 1580.8160325954896
2186.4494767808137 1735.4275008650602
2187.065985127063 1490.9544518814967
2187.682344849436 1621.1191801936664
2188.298555982501 1812.4053988329058
2188.9146185608097 1847.8339481797889
2189.530532618901 1987.8598202247874
2190.1462981912937 1621.087607543394
2190.761915312507 1672.7881800738128
2191.377384017036 1502.695718324697
2191.9927043393654 1749.4252928599537
2192.6078763139667 1832.3008019977929
2193.2228999753006 1915.3895076251324
2193.837775357808 1779.2717516836306
2194.452502495922 1432.1407255010374
2195.0670814240602 1633.5917635711032
2195.6815121766285 1406.2512602697434
2196.2957947880186 1682.182828814814
2196.9099292926057 1414.5859439525805
2197.523915724758 1743.3817886059892
2198.137754118825 1719.0728003321215
2198.7514445091456 1671.3468602974954
2199.3649869300443 1623.5835201624288
2199.9783814158327 1843.8030703846057
2200.5916280008096 1639.9502661614042
2201.2047267192593 1830.3534261691962
2201.8176776054515 1610.7835544606842
2202.430480693649 1469.8204180464977
2203.0431360180955 1790.0950074296513
2203.6556436130195 1875.9786346839126
2204.268003512645 1493.767042123299
2204.8802157511727 1791.798911463251
2205.492280362796 2012.4706127232555
2206.1041973816937 1813.826204263039
2206.715966842032 1736.5713631951476
2207.3275887779655 1706.7437020962448
2207.93906322363 1737.1204155319151
2208.550390213153 1437.9474480149643
2209.1615697806465 1640.8926180849005
2209.7726019602105 1629.6111837007961
2210.3834867859277 1647.675707359623
2210.9942242918787 1712.1335337079013
2211.6048145121167 1629.5756175379483
2212.2152574806914 1815.386224692702
2212.825553231638 1618.225885701982
2213.435701798975 1689.7506299909921
2214.045703216707 1622.8300481421225
2214.655557518832 1517.797368651558
2215.2652647393297 1475.2042118894574
2215.874824912169 1458.2875137642518
2216.4842380713 1724.2476025699166
2217.09350425067 1756.2528558846068
2217.7026234842033 1788.3955918883155
2218.311595805819 1686.5347938697255
2218.9204212494133 1630.027521262881
2219.52909984888 1619.0198241092887
2220.137631638092 1480.5031596491572
2220.7460166509154 1536.4229720455933
2221.354254921198 1592.3799293510901
2221.9623464827764 1803.4023754663745
2222.5702913694713 1487.603549934113
2223.178089615096 1664.4058142904446
2223.7857412534486 1457.2733224753988
2224.39324631831 1327.5346226304628
2225.000604843457 1667.5608780736925
2225.607816862641 1627.1450856499232
2226.214882409611 1482.583467549986
2226.8218015180973 1716.3633977874374
2227.4285742218217 1569.976166730564
2228.0352005544864 1586.8297638194113
2228.6416805497847 1477.662128839786
2229.248014241399 1391.5194796944247
2229.8542016629945 1421.2421522376037
2230.460242848223 1656.9519193307456
2231.0661378307304 1684.0272932359683
2231.671886644139 1432.4130013693007
2232.277489322065 1572.781880918333
2232.8829458981127 1374.6229240132702
2233.48825640587 1486.0676912245228
2234.0934208789095 1719.9422007333037
2234.6984393507955 1651.176773463126
2235.3033118550793 1442.4263583045645
2235.9080384252975 1552.883716318069
2236.5126190949723 1467.9475279046317
2237.1170538976166 1561.162982092783
2237.721342866729 1645.7826870747335
2238.32548603579 1421.7692874903166
2238.9294834382763 1676.2879724008224
2239.533335107646 1607.264685942731
2240.1370410773434 1338.6196559997848
2240.740601380803 1364.6223774687917
2241.3440160514474 1669.8256249935007
2241.9472851226783 1728.5243542846952
2242.550408627896 1568.0810148966043
2243.1533866004793 1753.5134420680133
2243.756219073799 1553.074155040127
2244.3589060812064 1433.4529227779904
2244.961447656049 1383.0499168926488
2245.5638438316564 1682.8934233194882
2246.166094641343 1526.1806042068686
2246.7682001184166 1773.4976950306486
2247.3701602961664 1638.8713889069593
2247.971975207871 1671.655045594866
2248.5736448867974 1579.704889419285
2249.175169366197 1533.601184754592
2249.7765486793123 1619.7563269596744
2250.3777828593684 1704.4568049532693
2250.9788719395783 1650.5781996398262
2251.579815953146 1645.7423569710882
2252.1806149332606 1437.8792072312465
2252.781268913097 1740.3805249872341
2253.381777925817 1615.9287821830783
2253.9821420045737 1664.7482061109004
2254.5823611825035 1650.829266818229
2255.1824354927303 1740.2110918530664
2255.782364968365 1558.645189281366
2256.38214964251 1376.8765552983682
2256.9817895482483 1494.9033154765605
2257.5812847186553 1452.5291905885838
2258.180635186791 1366.5664485948353
2258.779840985704 1609.8204287933388
2259.37890214843 1545.0040149303154
2259.97781870799 1537.3396756019051
2260.5765906973957 1561.3363172772456
2261.175218149645 1668.3678371034598
2261.773701097718 1641.136296530865
2262.3720395745895 1373.4569905859018
2262.970233613216 1516.7958143445
2263.568283246548 1696.6434948840451
2264.1661885075137 1466.070658297853
2264.763949429038 1433.7521246740876
2265.3615660440246 1533.373572964048
2265.959038385374 1381.0852208123576
2266.5563664859637 1701.1816287719691
2267.153550378669 1471.3526318729296
2267.7505900963424 1468.0212390665
2268.3474856718312 1665.869051663622
2268.9442371379664 1454.0221463997086
2269.5408445275643 1649.3740038976139
2270.1373078734377 1470.819063310375
2270.7336272083758 1498.3909783803751
2271.32980256516 1582.6657585511466
2271.925833976562 1746.7849931081994
2272.5217214753357 1748.5521055861482
2273.117465094223 1655.0603004875077
2273.7130648659586 1370.7216527721826
2274.308520823257 1473.6308877362253
2274.903832998827 1300.9979276127813
2275.4990014253563 1595.9944636611417
2276.094026135528 1474.810311828088
2276.6889071620117 1309.3221289397495
2277.2836445374614 1216.1478362443754
2277.878238294519 1500.319656707384
2278.472688465812 1512.318044620028
2279.066995083962 1282.52151942582
2279.6611581815705 1441.649527092914
2280.255177791232 1549.8223123882367
2280.8490539455233 1669.1006799406682
2281.442786677013 1852.415936663653
2282.0363760182554 1528.9124474309679
2282.6298220017943 1597.407135053637
2283.223124660155 1577.2654330109322
2283.816284025859 1653.9452949250522
2284.4093001314086 1599.5943526893468
2285.002173009292 1351.138899191313
2285.5949026919952 1481.177933128819
2286.1874892119777 1407.612840193046
2286.7799326016993 1343.2401755790688
2287.3722328936 1368.227530637158
2287.964390120109 1494.6417948281255
2288.556404313642 1346.412895581111
2289.1482755066027 1526.428026909173
2289.7400037313873 1540.2757694357401
2290.3315890203703 1363.1172550378303
2290.9230314059205 1468.4627460507124
2291.5143309203904 1574.0247061148975
2292.1054875961236 1331.7082825627583
2292.6965014654506 1640.2302273980858
2293.287372560684 1481.7313415924186
2293.878100914131 1667.3970110474245
2294.468686558086 1478.5402170257423
2295.059129524827 1437.2242808848175
2295.649429846617 1404.5626732769824
2296.239587555716 1371.7903368870766
2296.8296026843636 1499.2433287292129
2297.419475264791 1399.2614781916518
2298.0092053292137 1299.0065783679656
2298.598792909839 1400.8934870188245
2299.1882380388597 1363.5455041745722
2299.777540748455 1680.1714034733127
2300.3667010707904 1626.734355907813
2300.9557190380256 1391.8514048024274
2301.544594682302 1386.9921863927968
2302.1333280357503 1382.1061655129147
2302.721919130485 1556.4123302313021
2303.3103679986198 1771.2114144009774
2303.898674672242 1701.660598712878
2304.486839183437 1393.8717760894506
2305.0748615642697 1364.5607917461768
2305.6627418468015 1345.006018157525
2306.2504800630704 1286.7326612033817
2306.8380762451143 1169.3385858406705
2307.425530424949 1051.6824501700335
2308.012842634582 1424.07471569056
2308.6000129060103 1523.0584938092518
2309.187041271214 1458.1866763597648
2309.773927762164 1511.9250369577924
2310.3606724108213 1658.6488179035218
2310.9472752491274 1372.0802950311493
2311.5337363090184 1618.63691450486
2312.120055622414 1406.5394805888768
2312.706233221221 1478.664170925694
2313.2922691373424 1339.5837655429527
2313.8781634026564 1524.9670277883115
2314.463916049037 1459.4753676534026
2315.049527108342 1270.4664434613696
2315.6349966124235 1602.898735670042
2316.2203245931123 1588.2789440913084
2316.8055110822315 1261.6938955083515
2317.3905561115935 1436.574328198451
2317.9754597129977 1509.2922915933602
2318.560221918229 1661.661528015459
2319.1448427590603 1297.2228564385239
2319.729322267256 1323.655684755193
2320.313660474563 1275.4446373765634
2320.8978574127195 1593.226914805806
2321.481913113452 1723.6626825167375
2322.0658276084705 1300.6180646640119
2322.6496009294806 1599.8546952664556
2323.233233108165 1234.0421053169578
2323.8167241762058 1240.8046404178035
2324.4000741652617 1388.4678176359016
2324.983283106987 1410.4306581328005
2325.5663510330232 1546.6901483171785
2326.1492779749933 1373.2589639650914
2326.7320639645204 1688.0751627784089
2327.3147090332004 1463.4474254811348
2327.897213212629 1487.2998478606125
2328.4795765343843 1511.0718011699446
2329.0617990300307 1476.5078213528354
2329.643880731124 1648.2545962777804
2330.22582166921 1652.7590674808318
2330.807621875816 1657.3881352653395
2331.3892813824623 1319.7516930865875
2331.9708002206517 1393.9137597788513
2332.5521784218818 1488.6910590513824
2333.133416017634 1590.5271565738421
2333.7145130393765 1612.629692088154
2334.295469518571 1634.8133141710655
2334.876285486658 1481.3913550494976
2335.456960975076 1503.521806906371
2336.037496015242 1525.7277685149106
2336.6178906385667 1527.4776335706217
2337.198144876451 1534.4018886617364
2337.778258760278 1368.1007140265467
2338.3582323214214 1511.3885704363822
2338.938065591243 1299.0682861847815
2339.517758601087 1524.286935195849
2340.0973113822965 1482.856068961055
2340.676723966193 1441.2843425201197
2341.255996384094 1406.4993564865745
2341.835128667295 1525.465043151452
2342.4141208470883 1584.1120307838075
2342.992972954751 1464.4911854555187
2343.5716850215467 1216.3166278718297
2344.1502570787306 1345.066249322147
2344.7286891575386 1124.8487317291638
2345.3069812892045 1355.3162742577738
2345.885133504944 1248.518371067754
2346.4631458359618 1366.0823388502406
2347.04101831345 1295.5509490953796
2347.6187509685915 1338.2013585627199
2348.196343832553 1448.9139951937782
2348.7737969364935 1537.0720355786484
2349.351110311558 1326.6927570484017
2349.9282839888765 1532.0594002959415
2350.5053179995757 1269.0347890569387
2351.0822123747585 1140.4673071972443
2351.658967145526 1419.9244558267333
2352.2355823429643 1252.8428458423364
2352.812057998144 1118.873145731295
2353.3883941421263 1365.019670456099
2353.9645908059647 1223.1049521258494
2354.540648020693 1347.629496952779
2355.116565817336 1134.1067826487924
2355.6923442269126 1482.9013913933052
2356.2679832804224 1459.8045200390416
2356.8434830088518 1288.10561838677
2357.41884344318 1284.1267427204498
2357.994064614377 1287.1684504927384
