#exp_cfg={"servo_angle": 0.0, "laser_lim": 100.0, "servo_angle_to": 18.0, "laser_wup": 0.0, "bt_dev": "EnSpectr-25AE3", "laser_wdn_max": 0.0, "frames": 10.0, "servo_used": 0, "servo_calib_use": 0, "laser_wdn_min": 0.0, "servo_pix_from": 90.0, "cooler_tout": 300.0, "servo_angle_from": 0.0, "servo_calib": "[-1.9174921013161362e-09, 3.9322238269163779e-05, -0.27385609119055809, 653.59552119713567]", "laser_autoctl": 0, "servo_pix_to": 3682.0, "laser_pw": 100.0, "cooler_on": 0, "laser_volt": 4.0, "cooler_autoctl": 0, "cooler_curr": 70.0, "cooler_startup": 10.0, "laser_fixed_pw": 0, "gain": 1.3, "offset": 2.53059635486, "servo_calib_degree": 3.0, "laser_curr": 55.0, "shutter": 8200.0, "servo_calib_step": 1.0, "laser_fixed_curr": 0, "exp": 2000.0, "ccd_volt": 4.7, "bt_addr": "00:06:66:62:5A:E3", "servo_delay": 500.0, "laser_autooff": 1}
#proc_cfg={"flat_auto_wnd": 200.0, "flat_auto_fr": 200.0, "flat_auto_shift": 5.0, "yconv": 1, "flatten": 1, "flatten_strength": 100.0, "xfrom": 300.0, "auto_max_frame": 2000.0, "auto_signal": 48000.0, "flat_auto_tol": 0.1, "autoclip": 1, "xrel_range": 0.0, "flat_auto_to": 4000.0, "intensity_adj": 1.0, "xrel": 7852.0, "rmhot": 1, "flat_auto_slit": 4.999999999999997, "auto_ini_exp": 300.0, "auto_off": 0, "xto": 2860.0, "flat_auto_ref": "", "flat_auto_rank": 1, "autobackg": 0, "xrel_adj": 0.0, "auto_black_lvl": 1, "base_wnd": 100.0, "sub_baseline": 0, "xconv": 2, "auto_max_exp": 1000.0, "auto_total_exp": 10000.0, "auto_exp": 0, "rmripple": 0, "black_lvl": 8216.625, "shutter_clip_adj": 0.0, "auto_bckg": 0, "flat_auto_thr": 0.9, "subbackg": 1}
316.8218498245369 16203.11657317969
317.89969571804795 16079.00699847416
318.977263876126 16089.647589531896
320.05455438786703 15910.747964452934
321.1315673423287 15880.887138302747
322.2083028285215 15931.881074697008
323.2847609354267 15885.33273342154
324.3609417519747 15722.850651806846
325.43684536705587 15703.372409130727
326.5124718695279 15671.594213454006
327.58782134820103 15741.643371001355
328.66289389184385 15676.22784784538
329.7376895891921 15502.962774351623
330.8122085289342 15595.273672768602
331.88645079971866 15540.305496127086
332.9604164901575 15521.774021177713
334.03410568881554 15427.81851275534
335.1075184842266 15521.12935400824
336.18065496487543 15350.703393229162
337.2535152192122 15373.556613559911
338.32609933564163 15386.516771587281
339.39840740253203 15323.366651903978
340.4704395082099 15367.538949176527
341.5421957409617 15216.273995906091
342.6136761890357 15241.80860080114
343.6848809406365 15174.857267710828
344.75581008392874 15132.320454329578
345.82646370703696 14992.516960483921
346.8968418980512 15144.93938870388
347.96694474501055 15102.087849074616
349.0367723359268 15106.223724271982
350.106324758759 15039.99356052689
351.1756021014353 15014.660563550176
352.2446044518383 15008.860073832697
353.31333189781435 15067.859898893777
354.38178452716966 14944.693341211558
355.449962427665 14895.300821000981
356.51786568702846 14869.05108453696
357.58549439294256 15062.78990779546
358.6528486330535 15003.135312672723
359.71992849496564 14945.294650984124
360.7867340662433 15008.4354311303
361.8532654344144 14933.375595805166
362.9195226869597 14960.618015135391
363.9855059113288 14897.640524179424
365.05121519492604 14826.151637816214
366.11665062511565 15020.112207029368
367.1818122892273 14897.826809540182
368.2467002745434 14918.712434450077
369.31131466831175 14871.402825477582
370.375655557742 14894.464778988822
371.4397230299983 14972.630231414096
372.5035171722102 14909.632862723394
373.5670380714637 14941.507436059237
374.6302858148101 14921.688811147871
375.6932604892554 14910.65383095745
376.7559621817709 14929.405155812801
377.81839097928605 14908.956751281783
378.8805469686886 14832.365008065692
379.94243023683157 15023.292797533324
381.0040408705263 14803.847343331625
382.0653789565458 14759.544659927193
383.1264445816196 14800.48373423405
384.1872378324406 14782.726229814314
385.2477587956637 14753.219644212766
386.3080075579037 14649.67546832769
387.3679842057336 14682.82303262238
388.4276888256918 14624.99214212042
389.48712150426945 14611.86034200245
390.54628232792857 14562.665110872496
391.6051713830857 14489.021413403487
392.66378875611736 14553.720924783658
393.7221345333637 14527.479674108432
394.7802088011249 14428.99210738141
395.838011645661 14490.21919540408
396.89554315319765 14368.204602290964
397.9528034099112 14396.499111047058
399.00979250194723 14291.717279172994
400.06651051541485 14245.771120927853
401.1229575363741 14297.201185608725
402.17913365085224 14248.08671547112
403.23503894483656 14356.890987643774
404.2906735042761 14132.177163312119
405.3460374150818 14167.541630691863
406.401130763119 14096.387903209048
407.455953634224 14106.406585111323
408.5105061141876 14135.375309831134
409.56478828876243 13980.583757963086
410.6188002436629 13989.759279445067
411.6725420645689 13992.468750420021
412.72601383711117 13985.900149940493
413.77921564689314 14019.169438888333
414.8321475794728 13948.283810922814
415.88480972036814 13844.74492916959
416.93720215506437 13836.737209999934
417.9893249690049 13847.115308587023
419.04117824759123 13727.60108981135
420.09276207619223 13710.265793812865
421.144076540133 13734.84785421502
422.1951217247042 13683.646615514464
423.24589771515275 13653.784291926331
424.2964045966928 13543.618860610168
425.34664245449494 13639.866957285263
426.3966113736933 13619.583048842489
427.4463114393875 13640.888298996942
428.49574273662984 13646.43156470665
429.5449053504417 13531.175703971632
430.5937993658026 13573.171843532557
431.6424248676558 13481.574876145247
432.6907819409007 13514.334109941026
433.73887067040596 13447.497363142049
434.7866911409965 13460.890762215296
435.8342434374608 13503.976249927993
436.88152764455117 13425.246833812495
437.9285438469724 13428.166175064438
438.9752921294057 13387.64993081387
440.02177257648145 13412.24782299569
441.06798527279716 13227.970075380668
442.1139303029122 13414.843732862379
443.1596077513459 13252.138162251222
444.2050177025794 13268.497540027489
445.25016024105753 13297.364175067381
446.2950354511886 13206.763267821492
447.33964341733736 13255.09788218499
448.383984223834 13217.9024919535
449.4280579549686 13147.912555312218
450.471864694995 13209.491097962624
451.5154045281306 13173.725217288276
452.5586775385509 13184.08310200974
453.60168381039693 13155.901642559296
454.64442342776783 13241.075710717667
455.6868964747264 13248.202021196823
456.7291030353008 13096.544831062081
457.77104319347563 13191.382124912794
458.8127170332027 13117.915545456068
459.854124638392 13091.6595637864
460.895266092919 13209.554658314033
461.93614148061897 13169.735802783016
462.97675088529104 13117.161601808682
464.01709439069236 13099.515299625918
465.0571720805492 13234.271970205411
466.0969840385442 13136.825904562511
467.1365303483253 13278.514795132374
468.17581109350067 13274.002739524793
469.2148263576437 13150.29826991751
470.2535762242878 13187.710743825159
471.29206077693016 13241.09748531043
472.33028009902773 13223.312047433501
473.3682342740012 13283.919714012804
474.40592338523857 13301.498383660204
475.4433475160804 13179.646672708399
476.4805067498364 13266.488324766096
477.51740116978 13287.822741894986
478.5540308591426 13322.176193610658
479.59039590112116 13408.351993815702
480.6264963788726 13390.050471679066
481.6623323755193 13496.286581852522
482.6979039741436 13445.458079971551
483.7332112577915 13629.19940633549
484.76825430947247 13664.628325168096
485.80303321215797 13792.357317039618
486.837548048783 13868.755962957503
487.8717989022425 13900.95277581849
488.90578585539697 13872.634411893965
489.9395089910686 14110.344574779781
490.97296839203955 13933.333731833918
492.00616414106116 13894.967989863546
493.0390963208429 13939.36443865202
494.0717650140559 13850.453166827883
495.10417030333883 13708.341824842335
496.1363122712901 13701.692473054887
497.16819100046814 13450.850389437875
498.1998065734024 13413.50513822967
499.2311590725767 13374.33992975826
500.26224858044407 13190.090009807964
501.2930751794156 13124.780374096288
502.3236389518679 12982.382657297732
503.35393998014115 12919.09501101102
504.38397834653733 12883.56039877966
505.4137541333221 12879.323910534671
506.4432674227228 12747.885269023334
507.4725182969323 12703.319904438622
508.5015068381035 12628.860525972803
509.53023312835467 12667.443143405104
510.55869724976765 12623.055864745644
511.58689928438434 12557.066865203857
512.6148393142121 12502.68493627146
513.6425174212218 12531.41636721293
514.6699336873462 12578.51460456136
515.6970881944835 12523.825979139747
516.7239810244901 12457.193647330369
517.7506122591931 12447.072107423366
518.7769819803761 12467.186609383249
519.8030902697901 12475.717793891814
520.8289372091476 12517.440652089741
521.8545228801249 12578.745778470275
522.8798473643619 12448.613231596973
523.9049107434621 12538.705341052771
524.9297130989908 12502.208988580413
525.9542545124805 12366.2145078316
526.9785350654201 12401.774024483517
528.0025548392696 12350.766192953737
529.0263139154504 12292.781894487927
530.0498123753423 12330.834015052522
531.073050300296 12215.33896604061
532.0960277716204 12248.773275176201
533.1187448705896 12198.398492434873
534.1412016784416 12202.086971427256
535.1633982763833 12189.50645450921
536.1853347455726 12108.108391764386
537.2070111671401 12118.986910641604
538.2284276221817 12143.854787488499
539.2495841917516 11982.289017749063
540.2704809568677 11938.371070487128
541.2911179985167 11962.874481383105
542.3114953976419 11822.708085565586
543.3316132351592 11826.88952077282
544.3514715919409 11755.913213915908
545.3710705488247 11706.267412132227
546.3904101866156 11707.047347064425
547.4094905860784 11819.186291345417
548.4283118279418 11651.782475537106
549.4468739929034 11632.48262725156
550.4651771616191 11568.852564995892
551.4832214147063 11598.19004551367
552.501006832761 11631.085363632157
553.5185334963226 11496.441817999792
554.5358014859103 11667.438114302424
555.5528108820035 11480.258954433553
556.5695617650363 11512.587804809742
557.5860542154242 11580.97290082195
558.6022883135283 11486.590959882331
559.6182641396881 11455.180565472416
560.6339817741991 11445.928425794958
561.6494412973225 11552.085641553656
562.6646427892883 11530.923767233919
563.6795863302796 11432.269936392539
564.694272000459 11387.631390162556
565.7086998799423 11411.337185513428
566.7228700488104 11382.579394506956
567.7367825871115 11417.72868205652
568.7504375748576 11356.168325511095
569.7638350920224 11399.88944567601
570.7769752185486 11387.927767018555
571.7898580343353 11359.019996597612
572.802483619258 11364.979922484086
573.8148520531431 11403.50222184367
574.8269634157932 11396.830121849147
575.8388177869692 11329.525601872314
576.8504152463938 11418.80170561892
577.8617558737587 11447.158930047948
578.8728397487175 11455.305537792376
579.883666950891 11457.44473884636
580.8942375598654 11541.07434384337
581.9045516551851 11614.535887801994
582.9146093163617 11704.868082601743
583.924410622878 11693.231204720772
584.9339556541727 11734.982550838049
585.9432444896538 11718.10275290501
586.9522772086875 11836.881942828539
587.9610538906127 11824.037048829285
588.9695746147318 11674.269235094256
589.9778394603054 11677.74628329348
590.985848506567 11598.58960475645
591.9936018327098 11535.087133125264
593.0010995178891 11504.526210277376
594.0083416412344 11482.014330889786
595.0153282818283 11309.867628647979
596.0220595187293 11229.93875991218
597.0285354309508 11188.547047346708
598.0347560974806 11161.427416712586
599.0407215972609 11147.723996982559
600.0464320092051 11183.4816544195
601.0518874121954 11080.27775559909
602.0570878850685 11105.664861103562
603.062033506636 10977.35002177353
604.0667243556636 11014.744201174939
605.0711605108936 10975.688765386254
606.0753420510264 11131.281826839802
607.0792690547278 10989.641957701817
608.082941600629 10953.036292398087
609.0863597673306 11056.923012232659
610.0895236333909 11060.944735994335
611.0924332773357 11120.519279768703
612.0950887776617 11107.82251859621
613.0974902128219 11181.460166208084
614.0996376612384 11186.216678948414
615.1015312013005 11257.298755297916
616.1031709113595 11274.15688901383
617.1045568697336 11251.919173894898
618.1056891547069 11376.88271838701
619.1065678445229 11481.220240021483
620.1071930173985 11664.81966194756
621.1075647515099 11725.491567383518
622.1076831250048 11812.956536483072
623.1075482159849 11842.255067521457
624.1071601025305 11958.58983948314
625.1065188626781 12077.76962804475
626.105624574433 12234.871630433272
627.1044773157682 12257.771835628495
628.1030771646128 12411.723559031807
629.1014241988742 12426.680526960781
630.0995184964158 12496.854339699681
631.0973601350688 12648.546011113533
632.0949491926294 12728.6022199788
633.0922857468631 12633.842418400127
634.089369875499 12681.822344979806
635.0862016562278 12624.49635149657
636.0827811667077 12524.715466977865
637.0791084845641 12572.669448675113
638.0751836873878 12389.143239275993
639.0710068527369 12380.551166251502
640.0665780581294 12296.47120538814
641.0618973810506 12024.073429926819
642.0569648989604 12022.979495344187
643.0517806892676 11850.23545575063
644.0463448293649 11742.929832643658
645.040657396592 11663.700763788951
646.0347184682723 11520.568459974618
647.0285281216875 11372.36341968591
648.0220864340772 11299.377187716507
649.0153934826558 11183.197739295421
650.0084493446047 11132.552394463502
651.0012540970674 11031.096908470181
651.9938078171526 10981.663122293012
652.9861105819346 10936.569797938493
653.9781624684565 10904.239669864244
654.9699635537254 10785.539555893234
655.9615139147136 10773.255388453963
656.9528136283589 10664.423523650086
657.9438627715699 10653.62408088148
658.9346614212154 10590.64304925258
659.925209654135 10441.024164488575
660.9155075471263 10509.191964318017
661.9055551769616 10421.55296616186
662.895352620375 10449.809830743547
663.8848999540678 10467.84296963426
664.8741972547068 10289.38309615396
665.863244598926 10300.530652387582
666.8520420633213 10260.344601230368
667.8405897244611 10283.815878515565
668.8288876588758 10149.26607785723
669.8169359430613 10190.588953684473
670.8047346534822 10188.664432333
671.7922838665672 10096.710006388663
672.7795836587156 10142.18639925716
673.766634106285 10250.105213174158
674.7534352856092 10142.528007324483
675.7399872729766 10071.759529590914
676.7262901446538 10077.005997730483
677.712343976862 10030.04653223093
678.6981488457986 10142.092219649272
679.6837048276229 10032.59661662373
680.6690119984596 10052.52297228813
681.6540704344043 10060.430070344235
682.6388802115107 9977.457369310041
683.6234414058108 9958.104254062824
684.6077540932874 9896.254674513397
685.591818349907 9942.231028153707
686.575634251587 10026.23114256777
687.5592018742263 9813.766442864904
688.5425212936734 9826.395181190577
689.5255925857564 9851.153092776603
690.5084158262707 9868.773358660701
691.4909910909646 9749.300849702371
692.4733184555644 9746.266197698893
693.4553979957618 9706.77384967036
694.4372297872123 9681.086271094038
695.4188139055404 9650.661139351865
696.4001504263324 9580.070249586941
697.3812394251509 9705.899560451473
698.3620809775111 9588.612508999253
699.3426751589104 9522.399190127591
700.3230220448004 9528.685011857617
701.3031217106054 9558.0061058287
702.2829742317172 9524.152819644616
703.2625796834873 9536.742316411888
704.2419381412474 9507.562978601347
705.22104968028 9430.430143990567
706.1999143758458 9544.198482388096
707.178532303169 9340.918307679074
708.1569035374378 9509.804585441421
709.1350281538107 9466.554165524361
710.1129062274158 9456.389530027285
711.0905378333373 9470.716858166597
712.0679230466376 9505.383713941523
713.0450619423427 9583.935934843394
714.0219545954424 9592.739470401079
714.9986010808989 9558.311963300815
715.9750014736292 9580.530507026608
716.9511558485392 9623.155949182046
717.9270642804786 9752.078997576351
718.9027268442787 9711.469615431608
719.8781436147328 9760.236037284933
720.8533146666014 9675.802623474652
721.828240074612 9628.41941603548
722.8029199134635 9659.700487146536
723.7773542578125 9633.834969870046
724.751543182294 9609.847497351753
725.7254867615029 9504.828433177192
726.6991850700015 9391.973289024849
727.6726381823228 9450.479122133289
728.6458461729599 9361.29416503655
729.6188091163858 9335.821092765527
730.5915270870246 9362.834016878665
731.5640001592856 9322.131544681612
732.536228407529 9270.440261268266
733.5082119060917 9255.326916379287
734.4799507292755 9264.084488989689
735.4514449513481 9290.50466794014
736.4226946465496 9318.82161922342
737.3936998890786 9240.299703199436
738.3644607531078 9235.903909563855
739.3349773127793 9198.05488791153
740.3052496421951 9164.043419992839
741.27527781543 9146.150865688223
742.2450619065221 9122.767891344165
743.2146019894826 9126.39763559723
744.183898138288 9108.28439919792
745.1529504268801 9066.31677608048
746.1217589291682 8980.668160210793
747.0903237190341 8894.051400893666
748.058644870318 9004.393011619699
749.0267224568397 8914.308641690855
749.994556552374 8932.217400618345
750.9621472306771 8918.356154966557
751.9294945654583 8883.330177690867
752.8965986304011 8898.593241169354
753.8634594991636 8879.299736590858
754.8300772453586 8929.483318200979
755.7964519425768 8889.703842614497
756.762583664371 8905.749945692634
757.7284724842611 8866.296416713974
758.6941184757416 8880.436945670082
759.6595217122667 8927.811500659613
760.6246822672638 8896.566439662663
761.5896002141235 8831.957902565331
762.5542756262093 8858.751347083333
763.5187085768503 8869.403619493141
764.4828991393406 8834.998121758648
765.4468473869474 8846.646944914104
766.4105533929032 8861.836219254394
767.3740172304078 8882.829237251328
768.3372389726283 8756.568274388123
769.3002186926988 8661.247400799075
770.2629564637282 8730.666176702554
771.2254523587872 8584.52657057063
772.1877064509154 8656.040484946254
773.1497188131179 8554.509237672884
774.1114895183728 8523.214097298252
775.0730186396268 8533.74836501214
776.0343062497905 8485.631763034558
776.9953524217381 8437.820295118043
777.9561572283274 8472.011591024262
778.9167207423689 8444.73344884731
779.8770430366476 8440.559273760238
780.8371241839159 8410.749263371496
781.7969642568951 8425.71365199577
782.7565633282757 8471.678199094873
783.7159214707099 8370.10000999203
784.6750387568281 8423.699283213999
785.6339152592227 8407.065025136906
786.5925510504512 8294.995044087525
787.5509462030477 8358.362663191496
788.5091007895098 8374.097811490383
789.4670148823006 8396.977045697886
790.4246885538596 8388.907139726154
791.3821218765861 8378.920876563065
792.3393149228505 8250.1351491945
793.2962677649975 8325.522110337008
794.2529804753303 8413.579378515717
795.20945312613 8370.086685087797
796.1656857896378 8259.88392747711
797.1216785380675 8234.684960036597
798.0774314435985 8304.820972938
799.0329445783846 8408.146654279884
799.9882180145414 8374.843169072048
800.9432518241574 8343.167039816533
801.89804607929 8457.759089807383
802.852600851962 8507.597596949978
803.8069162141637 8510.132884732693
804.760992237856 8606.04613684228
805.714828994971 8587.73575511094
806.6684265574077 8630.800274042746
807.6217849970271 8603.386748680492
808.574904385674 8592.235749126681
809.527784795142 8591.517822111378
810.4804262972102 8594.148989223797
811.4328289636178 8493.218386820046
812.3849928660748 8417.687962596854
813.3369180762638 8334.24492013045
814.2886046658241 8320.86699302497
815.2400527063783 8314.941366492654
816.1912622695108 8215.673787418596
817.1422334267718 8137.155189114552
818.0929662496856 8135.459681484535
819.0434608097457 8085.54154758695
819.9937171784059 8060.419497314145
820.9437354271013 7967.856789649302
821.8935156272255 8041.44451285741
822.8430578501484 7947.2228116623255
823.7923621672016 7793.838966627636
824.7414286496896 7872.655406158224
825.6902573688876 7873.282552617542
826.6388483960363 7819.316107215236
827.5872018023492 7781.759325215215
828.5353176590033 7845.110142952566
829.4831960371503 7746.4189035399995
830.4308370079016 7759.791205679523
831.3782406423525 7733.74317878499
832.3254070115545 7746.1817149666695
833.2723361865319 7680.032455373452
834.2190282382799 7664.349480273608
835.1654832377644 7726.526256706971
836.1117012559116 7681.123663057362
837.0576823636256 7691.104140373002
838.003426631778 7614.644310811715
838.9489341312074 7645.041917996396
839.8942049327197 7632.605414021605
840.8392391070975 7770.2377450802
841.7840367250865 7592.4908555771935
842.7285978573982 7626.934042571564
843.672922574724 7674.956843737184
844.6170109477152 7706.975949118909
845.560863046996 7580.784547643702
846.5044789431595 7585.625279742408
847.4478587067697 7582.499003975308
848.3910024083561 7616.0129759113315
849.333910118421 7510.19922048907
850.2765819074339 7578.180519945369
851.2190178458332 7621.948149379748
852.161218004032 7549.245020148689
853.1031824524016 7590.445654950318
854.0449112612987 7554.937208041575
854.9864045010327 7591.8911927508325
855.9276622418947 7547.073228294784
856.8686845541379 7530.167847721857
857.8094715079915 7519.364271068713
858.7500231736467 7616.065588327389
859.690339621271 7560.4813704585
860.6304209209939 7546.748867847622
861.5702671429244 7465.657802101925
862.5098783571284 7565.023389679746
863.4492546336569 7519.011551916187
864.3883960425155 7498.046357275695
865.3273026536863 7514.213490525055
866.2659745371238 7500.225116850927
867.2044117627465 7615.211595938565
868.1426144004472 7602.207499434677
869.0805825200823 7520.867051452381
870.0183161914847 7620.098966329342
870.9558154844526 7595.610510144504
871.8930804687552 7585.597516712861
872.8301112141307 7616.833664811056
873.7669077902865 7604.338191421048
874.7034702669062 7726.452813387087
875.6397987136315 7681.301297691209
876.5758932000863 7731.57755169099
877.5117537958522 7781.6889515704215
878.4473805704911 7741.784536693574
879.3827735935283 7754.358473259752
880.3179329344603 7740.44191548609
881.2528586627541 7916.59431527076
882.1875508478479 7872.215860410372
883.1220095591489 7760.862467535075
884.0562348660296 7793.633879057916
884.9902268378391 7781.035848579207
885.9239855438955 7825.315617390768
886.8575110534839 7714.201712255068
887.7908034358588 7726.827371799271
888.7238627602474 7721.958983828836
889.6566890958475 7652.638614778496
890.5892825118208 7621.477735807966
891.5216430773125 7520.690845191479
892.4537708614189 7506.85421299382
893.3856659332196 7424.500791691884
894.3173283617652 7444.95238711827
895.2487582160684 7408.740189554095
896.179955565116 7436.982253408193
897.110920477864 7350.20473663227
898.0416530232451 7344.90383961804
898.9721532701478 7345.758507035777
899.9024212874428 7332.564332891666
900.8324571439662 7255.409870119789
901.7622609085302 7183.468307624427
902.6918326499072 7207.277177902999
903.6211724368477 7251.558730363977
904.5502803380696 7222.600428576821
905.4791564222614 7264.589162145768
906.4078007580792 7212.285736345388
907.3362134141571 7079.939575954103
908.2643944590909 7179.852503663451
909.1923439614493 7101.042136000277
910.1200619897754 7126.811650988648
911.0475486125779 7148.340554329274
911.9748038983344 7118.821397121816
912.9018279155007 7101.246396574604
913.8286207324982 7006.862723830383
914.7551824177117 7045.037786644156
915.6815130395116 7087.677061875422
916.6076126662283 6994.477276803244
917.533481366163 7004.5376422235695
918.4591192075914 6977.780763688535
919.3845262587565 7044.462996679273
920.3097025878706 6904.613439809167
921.2346482631237 6892.279326195266
922.1593633526682 6994.552131424889
923.0838479246304 6926.371302881283
924.0081020471061 7025.570190365838
924.9321257881656 6886.214809294608
925.8559192158464 6895.29802172576
926.7794823981512 6772.864396182922
927.7028154030686 6831.80425672292
928.6259182985414 6852.530046294475
929.5487911524906 6940.07813707622
930.4714340328119 6820.707256289521
931.3938470073608 6791.976565380481
932.3160301439748 6820.772659622018
933.2379835104548 6762.817925984513
934.1597071745709 6865.225854332326
935.0812012040769 6826.895051978541
936.002465666681 6805.999478122055
936.9235006300696 6854.6865001246815
937.8443061619055 6798.180271463304
938.7648823298077 6696.697598533801
939.6852292013809 6722.7012007130015
940.6053468441951 6723.029462802345
941.5252353257874 6740.519787758545
942.4448947136698 6758.013055643709
943.364325075323 6659.646579789262
944.2835264782043 6694.7462322251085
945.2024989897309 6727.944833707892
946.1212426773054 6657.165850665229
947.0397576082851 6658.742207289544
947.9580438500125 6733.252189321504
948.8761014697939 6631.4035945148335
949.7939305349064 6708.311389903251
950.7115311125999 6717.57562059238
951.6289032700952 6746.991959255737
952.5460470745875 6689.613724139714
953.4629625932339 6643.3045021978105
954.3796498931715 6727.282817327583
955.2961090415029 6677.281637755797
956.2123401053068 6664.2969804078475
957.1283431516276 6627.710607600884
958.0441182474842 6652.320003833296
958.9596654598663 6650.296146104907
959.8749848557309 6634.453200529116
960.7900765020167 6573.442456405181
961.7049404656209 6513.994966616779
962.6195768134185 6656.713681342723
963.5339856122537 6591.756842731733
964.4481669289453 6634.588994994136
965.3621208302793 6501.169117946359
966.2758473830145 6545.274813117679
967.1893466538822 6562.896568093516
968.1026187095813 6586.972679042537
969.0156636167867 6576.115329690697
969.9284814421426 6580.749076729364
970.8410722522622 6523.953286742325
971.753436113735 6547.866956415237
972.6655730931161 6471.378216966283
973.5774832569368 6522.546649300324
974.4891666716958 6516.564206162653
975.4006234038698 6484.779527415025
976.3118535198955 6462.108408537005
977.2228570861935 6628.4812022012175
978.1336341691494 6519.804372937587
979.0441848351202 6498.993593054201
979.9545091504333 6550.076250820296
980.864607181391 6545.8184014981325
981.7744789942699 6572.143920752977
982.6841246553086 6533.862332073548
983.5935442307236 6512.43915662859
984.5027377867027 6509.671846805272
985.4117053894024 6530.183642094009
986.3204471049557 6466.124548381767
987.2289629994648 6493.078267835603
988.1372531390007 6653.350922354932
989.0453175896091 6564.432013229414
989.9531564173067 6536.752159178094
990.860769688079 6507.442105635321
991.7681574678918 6577.873028478108
992.6753198226706 6548.190940612997
993.582256818323 6555.503230662549
994.4889685207218 6517.049596264244
995.3954549957143 6630.133367237815
996.301716309119 6581.347411624411
997.2077525267232 6687.856278347403
998.1135637142943 6521.879074883918
999.0191499375615 6643.421996238389
999.924511262232 6656.14568727595
1000.8296477539861 6656.771231374276
1001.7345594784656 6538.580687939474
1002.6392465012996 6614.6552075954505
1003.5437088880753 6689.99505531345
1004.4479467043584 6612.297003618625
1005.3519600156869 6584.27289907976
1006.2557488875718 6617.286237251552
1007.1593133854858 6663.943210135209
1008.0626535748888 6544.900979242478
1008.9657695212009 6507.1152407653735
1009.8686612898182 6553.7448885275835
1010.7713289461135 6564.44184818995
1011.6737725554212 6508.927907877983
1012.5759921830577 6534.748508501711
1013.4779878943027 6545.447891012698
1014.379759754418 6426.541002064772
1015.2813078286254 6387.974900348161
1016.18263218213 6385.859151244575
1017.0837328801026 6432.81313498561
1017.9846099876886 6428.297554805914
1018.8852635700023 6392.276543462549
1019.7856936921362 6385.198522746731
1020.6859004191447 6359.355979711642
1021.5858838160675 6380.196561165146
1022.4856439479063 6322.060951010848
1023.3851808796389 6284.689961170347
1024.2844946762143 6341.400302189684
1025.183585402554 6263.232210004534
1026.082453123554 6112.338240752656
1026.9810979040776 6176.704421155494
1027.8795198089647 6245.218289857067
1028.777718903024 6234.8869831826105
1029.6756952510368 6254.3129339407
1030.5734489177648 6124.783767264093
1031.4709799679313 6241.94152170397
1032.3682884662358 6247.074419648374
1033.2653744773506 6085.830252172722
1034.1622380659192 6095.301938203346
1035.058879296559 6220.212402750345
1035.9552982338591 6165.059515111772
1036.8514949423825 6204.100598884124
1037.7474694866614 6191.328636833903
1038.6432219312028 6094.336641984196
1039.5387523404825 6265.43726049566
1040.4340607789582 6198.896850433151
1041.3291473110476 6158.260092343247
1042.2240120011465 6257.432046406504
1043.1186549136273 6268.516143895866
1044.0130761128294 6346.499383909197
1044.9072756630649 6251.492239985589
1045.8012536286205 6331.025444778542
1046.6950100737577 6306.179379510926
1047.588545062701 6429.411865640804
1048.481858659663 6381.394995912884
1049.3749509288118 6482.069901243839
1050.2678219343034 6344.8606863212835
1051.1604717402515 6420.683660473941
1052.0529004107575 6351.6085388132915
1052.9451080098825 6463.785315953097
1053.8370946016694 6367.482557910757
1054.7288602501267 6391.964926772697
1055.6204050192446 6358.991949838304
1056.511728972977 6316.130074861034
1057.402832175254 6229.771787061609
1058.2937146899785 6240.905824160636
1059.1843765810263 6168.798245508149
1060.0748179122456 6169.674180279736
1060.9650387474576 6209.357281883697
1061.855039150456 6262.112385179009
1062.7448191850071 6104.9185665831
1063.6343789148505 6123.083884434225
1064.5237184037014 6139.568114450491
1065.412837715241 6148.471789584615
1066.3017369131267 6081.501554155842
1067.190416060992 6054.781692142482
1068.0788752224398 6056.3592002508385
1068.9671144610438 6053.794971566658
1069.8551338403558 6002.671302685723
1070.7429334239023 6087.692851577003
1071.6305132751695 6022.863096581945
1072.517873457633 6057.638178768268
1073.4050140347335 5971.2886007584975
1074.2919350698776 5954.3063318051445
1075.1786366264623 5963.979480663537
1076.0651187678395 5948.603566335032
1076.95138155735 5868.043388818326
1077.8374250582929 5915.527708116695
1078.7232493339507 5851.886946400088
1079.608854447577 5828.473124605932
1080.4942404623907 5836.02046322683
1081.3794074415982 5892.182185346814
1082.2643554483657 5913.897286488432
1083.149084545841 5772.585519787618
1084.033594797138 5731.237778892876
1084.9178862653516 5742.2985551127085
1085.8019590135427 5794.850372736035
1086.6858131047484 5703.662972623142
1087.5694486019802 5761.225252563136
1088.4528655682225 5697.14552088949
1089.3360640664287 5787.533741613488
1090.2190441595321 5746.340370543261
1091.1018059104317 5800.527643383353
1091.98434938201 5824.841019361845
1092.866674637111 5809.832721201259
1093.748781738559 5670.387793774349
1094.6306707491512 5598.32944976732
1095.5123417316554 5701.556252744479
1096.3937947488157 5601.547870665978
1097.2750298633455 5740.045695055393
1098.156047137938 5609.861730410945
1099.0368466352556 5681.75014789602
1099.9174284179317 5695.073185959412
1100.7977925485757 5599.946995419197
1101.6779390897755 5561.136407903955
1102.5578681040806 5618.121642667516
1103.4375796540226 5659.657748084826
1104.3170738021054 5554.893321271717
1105.1963506108077 5470.956026360409
1106.0754101425773 5528.599648008916
1106.9542524598382 5695.116733369835
1107.8328776249855 5533.199932215009
1108.7112857003904 5568.9436288001525
1109.5894767483987 5624.8429796406035
1110.4674508313292 5620.6336343733665
1111.3452080114657 5534.044743735409
1112.2227483510815 5595.580794939897
1113.1000719124077 5694.12118899493
1113.9771787576592 5631.208112985125
1114.854068949022 5662.877028703093
1115.7307425486542 5794.286878452164
1116.6071996186893 5640.053135382118
1117.483440221229 5723.594862808879
1118.3594644183577 5731.7977140307175
1119.235272272128 5742.055879869687
1120.1108638445658 5769.455727645232
1120.9862391976712 5857.307777996543
1121.8613983934229 5843.715682193071
1122.7363414937627 5876.667524904394
1123.6110685606182 5934.998867744782
1124.485579655884 5999.447727166112
1125.359874841426 6058.075153371344
1126.2339541790916 6010.934631582524
1127.1078177306936 6110.638904484154
1127.9814655580267 6061.1487175560005
1128.854897722851 6080.903648438112
1129.7281142869106 6080.212868454355
1130.6011153119125 6240.347502843217
1131.473900859548 6202.9652980638275
1132.3464709914697 6129.35108624486
1133.2188257693178 6193.381318444948
1134.0909652546961 6108.306150385463
1134.96288950919 6050.546562838907
1135.8345985943506 6069.305990773945
1136.7060925717087 6000.753420148582
1137.57737150277 5989.910635534499
1138.4484354490069 5951.990555369728
1139.3192844718778 5896.466737371195
1140.1899186327992 5762.630745605473
1141.060337993178 5789.999054623962
1141.930542614382 5815.401878539599
1142.8005325577597 5673.1989472773175
1143.670307884635 5652.596901958372
1144.5398686563003 5557.387941227231
1145.409214934025 5549.2024023694285
1146.2783467790541 5444.329097957604
1147.1472642526023 5471.317201360806
1148.0159674158622 5485.430325879415
1148.8844563300026 5313.431899657323
1149.7527310561618 5336.524691412
1150.6207916554504 5324.194384574421
1151.4886381889592 5235.262236367034
1152.3562707177498 5130.16224871702
1153.2236893028585 5281.152800210547
1154.090894005296 5228.801636040127
1154.9578848860474 5278.926474192816
1155.8246620060709 5144.17759574692
1156.6912254262988 5161.807875374163
1157.5575752076438 5144.585476696626
1158.42371141098 5205.294311117925
1159.2896340971656 5304.529207154474
1160.1553433270346 5155.340976324459
1161.0208391613887 5147.739966767023
1161.8861216610057 5124.239159173057
1162.75119088664 5146.279850737106
1163.6160468990201 5124.237621260807
1164.4806897588442 5072.9160346801755
1165.3451195267917 5113.31461930763
1166.2093362635114 5099.486569264005
1167.0733400296285 5127.25299979354
1167.9371308857444 5055.366743162762
1168.8007088924278 5066.539137810096
1169.6640741102328 4998.334486382364
1170.5272265996773 5041.2574822735005
1171.390166421259 4952.191982882106
1172.252893635452 5094.42651991351
1173.1154083026995 5078.563057483426
1173.977710483421 5027.876338928286
1174.8398002380145 4998.583040881355
1175.7016776268483 5079.025243262518
1176.563342710264 5094.949186299879
1177.4247955485826 5079.859840641079
1178.2860362020947 5087.324639854494
1179.147064731069 4966.09013553551
1180.0078811957483 5074.009097393872
1180.8684856563486 4992.551560949314
1181.7288781730604 5070.200248522753
1182.589058806052 5068.9405681111875
1183.4490276154593 5160.603709880496
1184.3087846614017 5033.19144479812
1185.1683300039676 5082.219676858157
1186.027663703222 5226.303547437022
1186.8867858192025 5108.234958026298
1187.7456964119228 5230.443294184775
1188.6043955413716 5195.546194930723
1189.4628832675116 5303.796424455
1190.3211596502842 5246.244939846142
1191.179224749596 5295.1269697352955
1192.0370786253388 5136.274447154352
1192.8947213373758 5430.413873204112
1193.7521529455407 5381.5329117752535
1194.6093735096438 5330.143050609794
1195.466383089477 5346.80879923154
1196.3231817447977 5342.127811618005
1197.1797695353398 5342.055075618859
1198.0361465208189 5268.752078769935
1198.8923127609214 5345.655317567501
1199.7482683153048 5421.68367771472
1200.6040132436028 5427.671885914007
1201.459547605431 5356.321578969814
1202.3148714603722 5310.313152679299
1203.1699848679855 5333.644026849328
1204.0248878878065 5463.756640503231
1204.8795805793507 5331.961669302868
1205.7340630020935 5362.696991102196
1206.5883352155033 5360.3326023199415
1207.4423972790064 5336.96585070243
1208.2962492520237 5290.852569089879
1209.1498911939307 5343.985868091988
1210.0033231640937 5308.897117234007
1210.8565452218427 5191.487804090235
1211.7095574264913 5105.292528264145
1212.5623598373222 5173.666018388359
1213.4149525135963 5057.744893143474
1214.2673355145507 5111.702378651099
1215.1195088993936 5025.306003457344
1215.9714727273113 5079.514932080228
1216.8232270574663 5105.418333278461
1217.6747719489904 5022.049783752093
1218.5261074609934 5032.472759792102
1219.3772336525653 5038.320785707391
1220.2281505827668 4980.56997208416
1221.0788583106296 5050.669994430958
1221.9293568951707 4886.128820006682
1222.7796463953746 4847.632661822437
1223.629726870202 4945.389016414492
1224.4795983785934 4816.593684185563
1225.3292609794553 4816.886673202444
1226.1787147316809 4818.87024727922
1227.0279596941327 4784.567283412813
1227.8769959256424 4861.298491541369
1228.7258234850306 4900.194742681668
1229.5744424310833 4730.752345549887
1230.422852822563 4865.904808233248
1231.2710547182105 4840.680475992552
1232.119048176739 4855.994487229959
1232.9668332568417 4697.894762705614
1233.8144100171812 4787.0195003492145
1234.6617785163999 4812.112748773215
1235.508938813111 4663.002350549521
1236.3558909659114 4743.360999721514
1237.2026350333617 4875.987171944058
1238.049171074008 4811.55905652241
1238.8954991463652 4680.668836686043
1239.741619308932 4743.37825306671
1240.587531620169 4806.762270888942
1241.4332361385277 4869.038420005656
1242.2787329224248 4749.835463557015
1243.1240220302534 4680.9077225156625
1243.9691035203869 4761.203802243181
1244.813977451171 4844.162526701894
1245.6586438809263 4740.472072189756
1246.5031028679496 4674.691303907492
1247.3473544705157 4696.662786686544
1248.1913987468706 4768.277572856985
1249.0352357552383 4612.362604425526
1249.8788655538228 4688.030597011919
1250.7222882007918 4690.726220675601
1251.565503754302 4723.693828169927
1252.4085122724755 4621.413763292867
1253.2513138134182 4717.310507779189
1254.0939084352049 4679.371684460891
1254.9362961958905 4620.8807771618995
1255.7784771535007 4692.013376699342
1256.6204513660432 4630.310164463104
1257.4622188915 4659.648259714642
1258.3037797878242 4545.135922027236
1259.1451341129468 4678.390584061991
1259.9862819247755 4664.394555697146
1260.8272232811978 4756.554692196349
1261.6679582400666 4783.366621005942
1262.5084868592203 4617.4316027816985
1263.34880919647 4634.024290110478
1264.1889253095997 4645.54992424677
1265.0288352563712 4604.427452293688
1265.8685390945266 4599.261138909963
1266.7080368817751 4587.288409559912
1267.5473286758115 4672.828964758257
1268.386414534294 4674.511668327103
1269.2252945148703 4508.056647238076
1270.0639686751547 4581.803672432926
1270.9024370727402 4501.2277051419715
1271.7406997651997 4554.353940342016
1272.5787568100714 4467.105523522236
1273.4166082648808 4530.571337067637
1274.2542541871244 4472.380358772016
1275.091694634275 4594.543701577895
1275.9289296637817 4473.129451003552
1276.7659593330663 4593.068248983808
1277.6027836995308 4476.57140961931
1278.4394028205552 4577.358911294513
1279.2758167534867 4563.849900908315
1280.112025555658 4526.445997687215
1280.9480292843746 4424.362029590328
1281.7838279969128 4409.966805063587
1282.6194217505326 4497.635665927729
1283.4548106024686 4398.112469805292
1284.289994609926 4487.417876145016
1285.1249738300921 4590.105282233165
1285.959748320127 4364.632707114761
1286.7943181371702 4460.21875311672
1287.6286833383328 4425.014871502458
1288.4628439807038 4482.763803022079
1289.2968001213521 4463.70217821227
1290.1305518173194 4483.300813284992
1290.9640991256183 4451.817701691546
1291.7974421032523 4452.634496978101
1292.630580807183 4416.990478502163
1293.463515294361 4445.713214340705
1294.29624562171 4507.468112278856
1295.12877184613 4409.043187549129
1295.961094024493 4320.298567411753
1296.79321221365 4456.194273743942
1297.6251264704333 4445.953276259888
1298.4568368516466 4602.501513138159
1299.2883434140658 4470.00828960887
1300.1196462144526 4416.134496364831
1300.9507453095375 4537.916448160312
1301.7816407560313 4504.941900783694
1302.6123326106172 4492.320007197364
1303.4428209299622 4462.7616481570885
1304.2731057707024 4668.3296466520405
1305.1031871894502 4524.133984724392
1305.933065242798 4453.5019044647
1306.7627399873181 4520.079247430802
1307.5922114795467 4668.721333138373
1308.4214797760123 4729.931460192659
1309.2505449332057 4530.093966513779
1310.0794070076026 4553.4418642858745
1310.9080660556538 4571.682498766882
1311.736522133786 4547.129849243809
1312.5647752983987 4523.425808010872
1313.3928256058734 4474.446192128228
1314.2206731125661 4544.130920559183
1315.048317874809 4504.582687851263
1315.8757599489109 4522.961758975251
1316.7029993911547 4582.2377030201305
1317.5300362578055 4639.617555934775
1318.356870605101 4548.613531000048
1319.183502489257 4524.279849177823
1320.0099319664623 4500.502481106445
1320.836159092889 4594.8027316305215
1321.66218392468 4572.827539420127
1322.4880065179532 4516.977252318765
1323.3136269288134 4589.599859767547
1324.1390452133292 4663.985712826399
1324.9642614275563 4709.577750178081
1325.7892756275214 4626.441793164069
1326.6140878692295 4552.2613225328
1327.4386982086617 4690.0049204122715
1328.2631067017755 4564.90178827763
1329.0873134045069 4574.256680171807
1329.911318372764 4499.010651031843
1330.735121662441 4549.8071313477385
1331.558723329399 4562.063442459999
1332.3821234294774 4442.998902228394
1333.2053220185007 4577.962002795177
1334.0283191522612 4486.820319077198
1334.851114886529 4502.856804198073
1335.6737092770582 4496.374274356335
1336.4961023795695 4448.349485130712
1337.3182942497697 4380.337028671643
1338.1402849433325 4558.335980447775
1338.962074515921 4375.2055230484875
1339.7836630231632 4326.415938017048
1340.6050505206676 4447.8315593374855
1341.426237064028 4524.05223736459
1342.2472227088037 4450.089040748562
1343.0680075105338 4379.631727187703
1343.888591524741 4491.166088270255
1344.7089748069138 4368.313616084344
1345.5291574125276 4427.656436807258
1346.3491393970307 4265.652411840301
1347.168920815846 4432.405599646192
1347.9885017243778 4451.879386590485
1348.8078821780036 4296.176335017711
1349.6270622320844 4383.598841663979
1350.4460419419447 4279.027335880097
1351.2648213629054 4232.08111384263
1352.0834005502438 4254.384020855978
1352.90177955923 4257.459742698197
1353.7199584451064 4283.053429454056
1354.5379372630887 4318.188005740007
1355.355716068374 4319.523789067616
1356.1732949161305 4282.811335401039
1356.9906738615155 4318.45188142168
1357.8078529596478 4266.242249440094
1358.6248322656375 4242.936598978647
1359.441611834567 4285.3513873630955
1360.2581917214866 4380.507607544399
1361.0745719814367 4233.304150670701
1361.890752669433 4304.922527613722
1362.7067338404577 4199.984428356584
1363.5225155494845 4229.845614380004
1364.3380978514506 4288.156407069529
1365.1534808012839 4205.275677982119
1365.9686644538815 4090.3818816273933
1366.783648864117 4208.745142988462
1367.5984340868417 4317.64342383665
1368.413020176893 4276.4618642563955
1369.2274071890715 4341.759319588681
1370.0415951781652 4226.359777187272
1370.8555841989346 4207.8937552516945
1371.6693743061223 4127.529758525632
1372.48296555444 4001.687647212259
1373.2963579985844 4193.5285177347005
1374.1095516932255 4181.4771093371255
1374.9225466930166 3983.8818930344523
1375.7353430525782 4109.881046410266
1376.5479408265164 4009.769093139992
1377.36034006941 4019.055503595365
1378.1725408358216 4099.987848278817
1378.9845431802805 3965.559993371321
1379.796347157304 4160.525601119003
1380.6079528213813 4038.2829885571277
1381.4193602269788 4005.3352387457626
1382.230569428546 3956.7941849248273
1383.0415804805016 4069.0719314931157
1383.852393437246 4053.2225968620332
1384.6630083531563 4042.192118139662
1385.4734252825892 4048.8434486153283
1386.2836442798798 4069.9737759220175
1387.0936653993322 4047.493536557659
1387.9034886952395 4027.065526571362
1388.713114221864 4084.048421200075
1389.5225420334482 4049.4478514249067
1390.331772184214 4005.0359890143204
1391.1408047283585 3972.9235810497435
1391.9496397200564 4061.535304060544
1392.758277213461 4074.0812019685973
1393.5667172627054 3965.102849013941
1394.3749599218918 3992.055280021896
1395.1830052451114 3991.940809476986
1395.9908532864265 3968.5305329979756
1396.7985040998774 4041.2980981188075
1397.6059577394808 3990.802867645566
1398.4132142592352 3941.9224283594535
1399.2202737131156 3936.9341440851886
1400.027136155073 4085.894491855928
1400.8338016390353 4044.0291002603567
1401.6402702189134 3973.7521825897966
1402.446541948586 3946.657943571704
1403.2526168819204 3927.552230859619
1404.058495072757 3929.4455803556752
1404.8641765749107 4038.754471945586
1405.6696614421799 3990.542629171922
1406.4749497283356 4058.8588389720535
1407.280041487129 3945.038012503546
1408.084936772295 3772.4439429780505
1408.8896356375335 3980.902071090827
1409.6941381365323 3979.0693806270597
1410.498444322955 3904.4148673994255
1411.3025542504402 3956.829492424601
1412.106467972606 3887.65290565174
1412.9101855430508 3899.159258464357
1413.7137070153458 3782.6871110762377
1414.5170324430437 3834.9039214634904
1415.320161879672 3998.97276501257
1416.1230953787435 3885.3966051659786
1416.925832993742 3838.2273192967505
1417.7283747781275 3740.547793494613
1418.5307207853439 3697.8637681185683
1419.3328710688093 3824.3519091827357
1420.134825681922 3687.55653307349
1420.9365846780584 3808.36696650694
1421.7381481105713 3815.887578748635
1422.539516032788 3772.5737605730174
1423.3406884980232 3758.817587799007
1424.1416655595604 3746.828488248092
1424.942447270665 3644.6057388009503
1425.7430336845828 3746.8215542426456
1426.5434248545298 3677.2181815095837
1427.3436208337116 3729.792114222947
1428.143621675301 3661.549920399279
1428.9434274324558 3753.3224004404283
1429.7430381583108 3672.024395698856
1430.5424539059713 3680.952103577844
1431.3416747285337 3698.9357753255113
1432.1407006790632 3737.236922044257
1432.9395318106053 3691.71650150087
1433.7381681761835 3692.8499052347083
1434.5366098288014 3682.0386685033823
1435.3348568214424 3737.7394917813263
1436.1329092070573 3681.474533826559
1436.9307670385879 3729.1622673869524
1437.7284303689503 3758.218956139715
1438.5258992510335 3832.7372575463023
1439.3231737377118 3665.7134182772475
1440.1202538818306 3693.385681441449
1440.9171397362225 3646.7549781534535
1441.7138313536925 3641.1435948951344
1442.5103287870243 3588.275539660329
1443.3066320889775 3548.420180591984
1444.1027413122956 3771.2663297212084
1444.8986565096966 3630.6733372680474
1445.694377733882 3658.5489443543215
1446.4899050375207 3565.9219452353755
1447.2852384732687 3660.539667575732
1448.0803780937622 3593.768567944964
1448.8753239516063 3614.0769900939495
1449.6700760993954 3461.1253384210313
1450.464634589689 3632.508019570746
1451.2589994750397 3745.3061910833885
1452.0531708079689 3503.0523880495975
1452.8471486409799 3468.103817224427
1453.6409330265524 3638.6115489732924
1454.4345240171442 3451.669306529527
1455.2279216651987 3465.6627080342914
1456.0211260231263 3439.769964589547
1456.8141371433194 3756.086760691612
1457.6069550781594 3411.173054166091
1458.3995798799897 3367.916007248764
1459.1920116011424 3459.2570364527833
1459.98425029393 3369.5340447286835
1460.7762960106338 3382.507912898463
1461.5681488035225 3413.4746685618206
1462.3598087248392 3445.56764978367
1463.1512758268036 3472.398262059259
1463.942550161617 3352.3425654333405
1464.7336317814625 3528.9625671847352
1465.524520738496 3485.216845019562
1466.3152170848552 3416.889839465718
1467.1057208726506 3380.5974926116774
1467.8960321539817 3314.3777504768345
1468.6861509809169 3304.1283136288766
1469.4760774055085 3426.0224084464994
1470.265811479785 3336.4034343045882
1471.055353255755 3211.964559270071
1471.844702785409 3277.870092450238
1472.6338601207044 3351.4561468778365
1473.4228253135934 3326.623757106086
1474.2115984159936 3292.560238685125
1475.0001794798063 3193.474620363035
1475.7885685569145 3296.1208146311737
1476.576765699172 3302.590283791279
1477.3647709584238 3299.125159107236
1478.1525843864802 3414.615833130979
1478.9402060351367 3286.0597409376633
1479.7276359561693 3360.6677756058634
1480.514874201328 3337.1959370527265
1481.3019208223468 3189.5160237268083
1482.0887758709323 3152.6824465733234
1482.8754393987747 3280.699497508684
1483.6619114575406 3232.6357187236217
1484.4481920988783 3281.0466741544064
1485.2342813744108 3198.765768465205
1486.0201793357446 3237.9298995550425
1486.8058860344572 3177.0649230759177
1487.591401522117 3208.7387650745522
1488.3767258502594 3218.560136524132
1489.1618590704056 3164.8818417436714
1489.9468012340494 3032.110496084827
1490.7315523926754 3238.1200569357125
1491.5161125977356 3246.1913322802093
1492.3004819006637 3242.8921329894047
1493.084660352877 3186.4874896318574
1493.8686480057622 3318.9571037902315
1494.6524449106964 3257.0673721159783
1495.4360511190262 3309.68289266668
1496.219466682087 3359.374801024938
1497.0026916511779 3269.879401089107
1497.7857260775945 3242.4629157389763
1498.5685700125996 3243.7233117020255
1499.3512235074395 3210.2778521022265
1500.133686613337 3118.7177369064093
1500.9159593814966 3189.524972460211
1501.698041863101 3426.6307013164296
1502.4799341093094 3186.5194851630067
1503.2616361712662 3134.8033129235464
1504.043148100087 3217.8420790794326
1504.8244699468742 3275.341662659132
1505.6056017626997 3154.9302562266757
1506.3865435986281 3182.7283375499564
1507.1672955056893 3173.316449265304
1507.9478575348967 3099.942361646762
1508.7282297372512 3244.662041896797
1509.5084121637192 3241.3052578382312
1510.2884048652577 3142.042659206565
1511.0682078927948 3063.5175556524655
1511.8478212972423 3149.5709171721883
1512.6272451294917 3089.6650669390933
1513.4064794404076 3126.5540796441787
1514.1855242808433 3119.4591501949226
1514.9643797016215 3126.7810618077688
1515.743045753552 3194.8884788079285
1516.5215224874191 3097.612780003681
1517.2998099539836 3079.5335514827952
1518.077908203999 3134.7452572585175
1518.8558172881785 3136.6292042999858
1519.633537257234 3220.455300880898
1520.4110681618404 3165.4393345330564
1521.1884100526604 3180.7088886676365
1521.9655629803365 3084.2074514176875
1522.7425269954856 3210.219808058936
1523.5193021487103 3294.149535741314
1524.2958884905856 3055.887916452164
1525.0722860716687 3107.8206127121857
1525.848494942502 3100.2622359360403
1526.624515153595 3062.550321359952
1527.4003467554485 3190.650111676618
1528.175989798534 3200.8552711717907
1528.9514443333064 3121.8310833176556
1529.726710410203 3271.081422889799
1530.5017880796331 3033.593771888818
1531.276677391992 3047.2652220444734
1532.0513783976457 3175.6366087057077
1532.825891146953 3171.9909991056056
1533.6002156902414 3158.393884399288
1534.3743520778207 3089.1327793802448
1535.1483003599806 3168.8216407980954
1535.9220605869923 3161.450666216275
1536.6956328091019 3191.3543887305377
1537.4690170765407 3057.3112501965206
1538.242213439511 3192.336512207482
1539.015221948208 3158.9408964331096
1539.78804265279 3224.3135096488104
1540.560675603405 3149.943184620097
1541.3331208501804 3103.3317651700004
1542.1053784432224 3232.026252428049
1542.8774484326168 3175.7164760889236
1543.649330868422 3140.398194229139
1544.4210258006842 3210.4086707196648
1545.1925332794308 3118.305894783386
1545.9638533546604 3138.0605751770768
1546.7349860763552 3143.696330277964
1547.5059314944829 3284.72728170478
1548.27668965898 3183.8365175113163
1549.0472606197673 3270.279129237182
1549.817644426752 3124.742034372244
1550.5878411298072 3179.2433248340544
1551.3578507787988 3106.1525889967334
1552.1276734235635 3085.1196127275643
1552.8973091139233 3129.539731240414
1553.6667578996767 3236.4594427043326
1554.436019830604 3183.292831212601
1555.20509495646 3162.1690289990456
1555.9739833269869 3174.368228693845
1556.7426849919011 3201.571650948972
1557.511200000903 3209.580623817928
1558.2795284036674 3249.066769571614
1559.0476702498509 3185.15006570759
1559.8156255890954 3183.3018193091
1560.5833944710157 3347.8451567678385
1561.3509769452048 3182.5675471816685
1562.1183730612447 3210.551329184237
1562.8855828686865 3117.3528048634585
1563.6526064170703 3192.3451912223313
1564.4194437559127 3190.548597844264
1565.1860949347047 3240.5406161042033
1565.9525600029283 3277.2298524285443
1566.7188390100328 3371.4734269915293
1567.4849320054564 3127.745981241281
1568.250839038612 3121.0740619416147
1569.0165601588997 3169.344062451949
1569.7820954156887 3165.5030673497067
1570.5474448583373 3114.589730393837
1571.31260853618 3096.2723114212604
1572.0775864985299 3093.33524240915
1572.8423787946813 3254.5880645929597
1573.6069854739108 3211.3778842703496
1574.371406585471 3187.6875462428125
1575.1356421785986 3197.181005730902
1575.899692302506 3072.660548867474
1576.6635570063845 3237.976617303556
1577.4272363394157 3158.5226884568447
1578.190730350747 3064.136321671845
1578.9540390895163 3054.610016535272
1579.7171626048384 2896.7011300038826
1580.480100945806 3053.9048638200807
1581.2428541614918 3095.115256289965
1582.0054223009538 3013.340527949918
1582.767805413223 3080.55153872761
1583.5300035473156 3137.069754455005
1584.292016752228 3314.366017790996
1585.0538450769309 3155.419241742386
1585.8154885703807 3028.9544021410165
1586.5769472815136 3013.041371747516
1587.3382212592405 3090.889534874749
1588.099310552463 3239.074898769836
1588.8602152100484 3018.034033399253
1589.6209352808564 3146.739085396749
1590.3814708137234 2997.680706364086
1591.14182185746 3086.4509186974574
1591.9019884608679 3047.669013044664
1592.6619706727215 2950.211376368282
1593.4217685417734 3118.7655344891214
1594.1813821167616 3168.833165289704
1594.9408114464022 2959.6939798239687
1595.7000565793933 3060.506567232997
1596.459117564409 3181.9228575157035
1597.2179944501113 2967.808297346548
1597.9766872851324 3008.7704219553557
1598.735196118092 3083.6653977958895
1599.4935209975883 3103.2084074373483
1600.2516619721973 3095.784072712979
1601.0096190904787 2990.9743479318536
1601.7673924009723 3075.270648862197
1602.524981952196 2978.95003332052
1603.2823877926476 2974.1471442573466
1604.0396099708087 3015.1061931942722
1604.7966485351371 2896.762422692108
1605.5535035340745 3013.398065446955
1606.3101750160404 3099.385824740065
1607.0666630294363 2921.112664385684
1607.822967622642 2909.4944546596007
1608.5790888440224 2848.9962234724735
1609.3350267419137 3091.144534544676
1610.0907813646445 2967.504168258369
1610.8463527605145 2944.6078818271308
1611.601740977805 3080.854502053862
1612.356946064785 3037.655931068205
1613.1119680696902 2945.525038356466
1613.8668070407512 2979.318311784983
1614.6214630261748 2911.98155887787
1615.375936074137 3083.287879654924
1616.1302262328118 2972.319699803983
1616.8843335503425 3073.8612415749444
1617.638258074854 2861.298729631867
1618.391999854457 2946.5792555284456
1619.1455589372363 2998.3646347605236
1619.8989353712623 2918.695475485986
1620.65212920458 2775.4263714750687
1621.4051404852235 2954.38643840426
1622.1579692611976 2946.984888815291
1622.9106155804966 2795.2284252776367
1623.663079491087 2903.618846851533
1624.4153610409248 2978.665721462964
1625.1674602779385 2925.75854930736
1625.9193772500403 2912.48726878853
1626.6711120051277 2840.7363743482415
1627.4226645910676 2922.880867971807
1628.174035055721 2897.7341678066805
1628.9252234469168 2911.591244785689
1629.676229812474 2885.2887439132783
1630.4270542001905 3055.745198091699
1631.1776966578382 2921.627331017773
1631.9281572331747 2940.400598206595
1632.678435973945 3068.8533759045977
1633.4285329278573 3026.8570367476095
1634.1784481426203 2869.8099717498876
1634.9281816659113 2901.9502528725734
1635.677733545388 2966.8455077505414
1636.4271038286934 2848.950488657578
1637.176292563452 2907.814435336346
1637.9252997972635 2956.6571564493174
1638.674125577716 3044.7564471007586
1639.4227699523672 3122.9595051181514
1640.171232968767 2942.392710700939
1640.9195146744423 2947.456610972742
1641.6676151168977 3110.4501969311996
1642.4155343436178 3123.0388558920436
1643.1632724020765 3017.0282523147225
1643.9108293397167 3097.8071415877666
1644.658205203974 3033.654790113268
1645.4054000422566 3253.1302668129356
1646.1524139019566 2993.2105016599426
1646.8992468304423 2984.048178983599
1647.6458988750728 3003.8189106353516
1648.3923700831765 3074.075246246825
1649.1386605020743 3005.0198393267788
1649.8847701790564 3093.036478955463
1650.6306991614038 3044.500414515248
1651.3764474963682 3113.148969144945
1652.1220152311944 2879.4464192761357
1652.867402413096 3274.3545035823527
1653.6126090892776 2963.6863196781005
1654.3576353069184 3207.493721061173
1655.1024811131829 3090.315524434316
1655.8471465552066 3092.0245923959683
1656.5916316801213 3166.345517015136
1657.3359365350298 3165.700636437323
1658.0800611670165 3041.687863978768
1658.824005623148 3054.6227681783976
1659.5677699504722 3055.845225208627
1660.3113541960192 3037.5377882390103
1661.054758406799 3076.75547493038
1661.7979826297997 2907.940389632468
1662.5410269119966 3032.782137817604
1663.283891300338 3123.960567293247
1664.0265758417645 3007.0529824970154
1664.7690805831826 3029.5545686696964
1665.5114055714948 2907.66599558829
1666.2535508535748 3116.5924001717613
1666.9955164762814 2912.627774174657
1667.7373024864555 2874.7021599975146
1668.478908930916 3082.027291509386
1669.220335856462 2841.316755655957
1669.9615833098778 2974.643998026147
1670.7026513379296 2904.701506160951
1671.44353998736 2914.3846540260874
1672.1842493048916 2768.264288131092
1672.9247793372379 2870.0934175052626
1673.6651301310812 2886.7666539959146
1674.4053017330934 2951.5551079709085
1675.1452941899242 2881.6270137034026
1675.885107548207 2592.0656845286185
1676.6247418545518 2631.981923551427
1677.3641971555535 2662.574611875033
1678.1034734977893 2879.578715713236
1678.8425709278108 2850.4749900575575
1679.5814894921605 2840.5141971018875
1680.320229237359 2572.910561103955
1681.0587902098978 2900.6293407152766
1681.7971724562685 2682.1564860004255
1682.5353760229264 2585.832842636482
1683.2734009563173 2795.062652397673
1684.0112473028657 2685.6939171706326
1684.7489151089794 2724.9453913044226
1685.4864044210462 2723.147479356977
1686.2237152854377 2544.3733470231136
1686.960847748498 2564.4073906406
1687.6978018565642 2672.9403129818093
1688.434577655944 2541.2072462217284
1689.1711751929379 2465.178829398375
1689.9075945138156 2558.927804831612
1690.6438356648396 2529.310882029481
1691.3798986922448 2352.663848656187
1692.1157836422499 2605.063385626751
1692.851490561059 2417.7027204510146
1693.587019494853 2467.5198603663966
1694.3223704897991 2417.285760832278
1695.0575435920364 2314.2810967009336
1695.792538847696 2492.915448830012
1696.527356302886 2360.428035377405
1697.2619960036936 2384.935131932971
1697.9964579961907 2337.1003680359063
1698.730742326432 2176.5944032527163
1699.4648490404488 2238.510658440743
1700.1987781842563 2425.0575580716372
1700.9325298038548 2372.218498811177
1701.6661039452174 2467.492417943914
1702.3995006543082 2450.6965527255425
1703.1327199770658 2497.123887703154
1703.865761959416 2397.5148311797607
1704.598626647261 2453.0391539254615
1705.3313140864866 2336.5712029474744
1706.0638243229587 2283.3386105324903
1706.7961574025303 2380.450856231671
1707.528313371029 2293.238512023655
1708.260292274268 2243.450536052259
1708.9920941580403 2272.5193299642046
1709.7237190681226 2249.6941604118765
1710.4551670502697 2200.7821419973966
1711.18643815022 2146.519116655477
1711.9175324136959 2428.5154449319334
1712.6484498863938 2279.444049016946
1713.379190614005 2111.7684044980483
1714.109754642188 2295.1290323472685
1714.8401420165883 2230.819633118317
1715.570352782839 2299.647215779203
1716.3003869865497 2299.4789876872005
1717.0302446733076 2271.7912377040257
1717.7599258886876 2268.627298221828
1718.4894306782444 2453.4554747406864
1719.2187590875183 2076.172750016471
1719.9479111620203 2391.8874994291505
1720.6768869472544 2126.0875038585955
1721.4056864887025 2315.8510087585555
1722.1343098318284 2298.370162511689
1722.8627570220742 2227.613762489501
1723.591028104871 2142.447579620962
1724.3191231256242 2046.5514818497409
1725.0470421297232 2087.2334819083135
1725.7747851625427 2209.0895004716467
1726.5023522694337 2228.5305035295323
1727.2297434957363 2242.5613644402592
1727.9569588867635 1927.1289195053025
1728.6839984878152 2157.328766331795
1729.4108623441734 2005.339101144919
1730.1375505011038 2239.1545739732182
1730.8640630038426 2068.616789965836
1731.5903998976264 2033.4558460658616
1732.316561227657 2202.888817980539
1733.0425470391274 2127.3450468235433
1733.7683573772065 2142.793908630819
1734.4939922870508 2194.7629695944643
1735.2194518137949 2190.50493289136
1735.9447360025606 2138.905198004888
1736.669844898439 2180.795121490769
1737.3947785465189 2008.9535228580403
1738.1195369918605 1964.152392059342
1738.8441202795093 2185.861688889213
1739.5685284544943 2220.345412335067
1740.292761561821 2258.565475871267
1741.0168196464838 2195.6323578148754
1741.7407027534518 2133.343208188211
1742.464410927687 2052.587887218181
1743.187944214118 2018.594233833556
1743.9113026576688 2092.154831703302
1744.634486303241 2109.865990798332
1745.3574951957125 2220.033930033286
1746.0803293799509 2195.0710252277177
1746.8029889008048 2159.39432897944
1747.5254738031017 2085.94267291174
1748.2477841316504 1990.7653217282198
1748.969919931249 2027.5403605017298
1749.6918812466665 2007.9147551451556
1750.4136681226646 2109.046174521702
1751.1352806039777 2163.905855552708
1751.856718735331 1853.500911092019
1752.5779825614281 2017.0837279189284
1753.2990721269507 2136.7761086610417
1754.0199874765676 2023.9925844060795
1754.7407286549314 1935.8583945559524
1755.4612957066693 2116.5966407516503
1756.1816886763954 1975.7565542427837
1756.9019076087097 2076.7414566716043
1757.6219525481865 2088.470410665902
1758.3418235393856 2060.0503032478114
1759.061520626854 1961.7090080737314
1759.7810438551096 2102.895762376441
1760.5003932686614 1997.2339604419533
1761.2195689119999 2071.0731628011554
1761.938570829594 2124.656160959155
1762.657399065898 2117.186521446981
1763.376053665348 1971.5987015425387
1764.0945346723602 1866.066914361933
1764.812842131334 2107.4532582740185
1765.5309760866512 1890.3451235793225
1766.2489365826787 1987.408158793333
1766.9667236637597 1963.269373714226
1767.684337374223 1867.3159011691664
1768.401777758383 1807.6006990146448
1769.1190448605284 2055.6342803564917
1769.836138724937 1891.5629778290124
1770.5530593958665 1984.9077610066802
1771.2698069175603 2165.006314925203
1771.9863813342326 2106.2245929859196
1772.702782690094 1881.7083760313265
1773.4190110293293 2147.240335911044
1774.1350663961111 2004.9193805280825
1774.8509488345844 1948.3428862754274
1775.5666583888924 2059.2109067921274
1776.2821951031437 2093.4256543918495
1776.9975590214362 1986.9115902345122
1777.7127501878585 2093.91710561317
1778.4277686464684 2139.493578858274
1779.1426144413108 2057.846019101872
1779.8572876164162 2025.1199549945438
1780.571788215797 1881.6755171908057
1781.2861162834415 2076.3574126017106
1782.0002718633277 2043.8358810497907
1782.7142549994132 2066.797949520285
1783.4280657356376 2049.432525673383
1784.141704115922 2016.5819919045236
1784.855170184177 1866.467536765628
1785.5684639842839 1880.0061174807445
1786.2815855601148 1746.333642993708
1786.9945349555237 2003.2577023703943
1787.707312214343 1839.576941688313
1788.4199173803918 2163.612113634502
1789.132350497468 1878.4368397401201
1789.8446116093583 1938.766109759533
1790.556700759822 1919.7068744419623
1791.2686179926077 1962.5247832450455
1791.9803633514493 1935.4166148972758
1792.6919368800554 1807.9150304514278
1793.4033386221236 1946.2463439162718
1794.1145686213295 2031.7061743929698
1794.8256269213307 1967.5876951361502
1795.536513565774 2039.2693427339916
1796.247228598284 1846.2723816926268
1796.9577720624693 1872.8120919345115
1797.6681440019165 1931.421820237879
1798.3783444602013 1833.0139991126423
1799.0883734808776 1912.1439913811814
1799.7982311074884 1896.5631540735642
1800.5079173835475 1970.7224353324777
1801.2174323525633 1953.2748907957696
1801.9267760580187 1884.4870435549547
1802.635948543386 1809.7282551351923
1803.3449498521113 1716.6170813300585
1804.0537800276325 1982.465071684202
1804.7624391133668 1984.5157257930446
1805.47092715271 1773.670910151483
1806.1792441890484 1906.6410086561173
1806.8873902657433 1843.227911815071
1807.5953654261448 1894.3362231311614
1808.3031697135812 1830.8992571279948
1809.0108031713662 1854.6583097740427
1809.71826584279 1825.165682137555
1810.425557771141 1882.9762041940394
1811.1326789996747 1989.9046415083262
1811.839629571632 1859.3153584244646
1812.5464095302468 1869.4121774224361
1813.2530189187182 1967.8664046763447
1813.959457780249 1861.8755629549516
1814.6657261580076 1907.7316931039525
1815.371824095153 1832.5201106717814
1816.0777516348262 1987.0888680105897
1816.78350882015 1692.0606935482906
1817.4890956942272 1823.407908156111
1818.1945123001533 1880.4643181548495
1818.8997586809928 1834.6196270819248
1819.6048348798067 1836.4873161926967
1820.3097409396287 1768.7424111111818
1821.0144769034796 1996.9383930962827
1821.7190428143622 1852.6788667382848
1822.423438715261 1827.391866953587
1823.1276646491478 1830.5329451342272
1823.8317206589727 1784.0269697529536
1824.5356067876692 1754.2318612709355
1825.2393230781581 1673.9556986607288
1825.942869573335 1695.3295968496848
1826.646246316086 1765.4766897440277
1827.3494533492758 1778.484370870255
1828.052490715756 1969.8513426927252
1828.7553584583547 1936.717950203139
1829.458056619891 1873.3239989317576
1830.1605852431585 1746.8181007445796
1830.8629443709433 1819.9010682927244
1831.5651340460063 1894.8165369426547
1832.2671543110919 1757.4776181344525
1832.9690052089318 1916.1460445533667
1833.6706867822395 1735.034929604777
1834.3721990737104 1825.7908637827973
1835.0735421260233 1889.8782052489903
1835.774715981841 1874.0313258468445
1836.4757206838058 1800.109679408601
1837.1765562745459 1873.2461622584244
1837.8772227966747 1791.634174685764
1838.5777202927839 1878.0135139814076
1839.2780488054523 1807.2840715819518
1839.9782083772352 1785.2614853063883
1840.6781990506806 1903.8964789733654
1841.378020868313 1719.2787752899378
1842.0776738726418 1858.3587703656929
1842.777158106157 1774.5314155914414
1843.4764736113375 1872.9965420104131
1844.1756204306403 1845.304696064151
1844.8745986065078 1763.0346371742876
1845.5734081813607 1668.7197150422282
1846.2720491976124 1678.5940663376193
1846.970521697649 1613.5888258622604
1847.6688257238511 1857.9018772713498
1848.3669613185684 1787.2001628099388
1849.0649285241452 1631.1497343362225
1849.7627273829057 1747.1069830990095
1850.460357937156 1720.9031812909968
1851.1578202291857 1627.829106248315
1851.8551143012664 1765.9192967624253
1852.5522401956569 1717.491223678769
1853.2491979545957 1839.9093686854787
1853.9459876203055 1732.766404918983
1854.6426092349902 1578.4440906690477
1855.3390628408451 1753.5191941761357
1856.0353484800362 1878.0829037598846
1856.7314661947203 1800.0510350703103
1857.4274160270397 1677.025710475134
1858.123198019115 1791.635573277616
1858.8188122130487 1598.3347213578413
1859.5142586509319 1816.1179040400293
1860.209537374838 1903.3445899258768
1860.9046484268183 1838.013605214961
1861.599591848917 1773.4277774281531
1862.294367683151 1647.0426479647153
1862.988975971528 1710.8360527398029
1863.6834167560355 1605.0499952907976
1864.3776900786452 1734.1678662176535
1865.0717959813119 1762.403549555705
1865.7657345059724 1697.4122358344543
1866.4595056945564 1932.5125684065417
1867.1531095889586 1795.183255366474
1867.846546231076 1711.006426413545
1868.5398156627743 1834.0341135359672
1869.2329179259123 1635.1461924053233
1869.9258530623283 1877.4981099344882
1870.618621113843 1648.4537901803692
1871.3112221222636 1727.8982242316313
1872.0036561293764 1611.5558106875312
1872.695923176956 1758.684365775684
1873.3880233067594 1909.5356175459226
1874.0799565605212 1604.6371609622072
1874.7717229799673 1700.1338771956737
1875.4633226068036 1660.9191070836441
1876.1547554827175 1926.9713959788212
1876.8460216493859 1648.6040621284035
1877.5371211484617 1674.6942468469983
1878.2280540215852 1860.0264118208968
1878.9188203103804 1655.245711279727
1879.6094200564548 1771.7105162051387
1880.299853301396 1642.7454080334107
1880.9901200867826 1901.2968274304876
1881.6802204541673 1819.2519906823613
1882.3701544450942 1780.5967990833112
1883.059922101087 1562.2368918793668
1883.7495234636517 1787.5694145267566
1884.4389585742792 1573.3043874878401
1885.1282274744517 1652.7718620819683
1885.8173302056166 1894.613684462828
1886.506266809225 1765.6131324869427
1887.195037326701 1580.2105869610539
1887.8836417994517 1651.8970140788665
1888.5720802688702 1814.0283205886833
1889.260352776333 1724.1145416040538
1889.9484593632042 1764.8427306367844
1890.63640007082 1745.6297681886904
1891.3241749405151 1438.5131526363798
1892.0117840135954 1658.7261948067894
1892.6992273313572 1663.7033690477067
1893.3865049350788 1616.5274439149882
1894.0736168660223 1849.0973457872897
1894.7605631654333 1764.0730370780705
1895.4473438745408 1539.1504115901243
1896.133959034556 1863.9394672951034
1896.820408686679 1644.9261734602703
1897.506692872088 1806.620417180516
1898.192811631945 1748.0313296895613
1898.8787650073991 1728.2636215814334
1899.5645530395832 1897.5737763745838
1900.2501757696118 1662.6113535563013
1900.9356332385796 1625.8038924965517
1901.620925487574 1860.1241377782474
1902.3060525576602 1734.7704242613042
1902.9910144898859 1754.6232576545724
1903.6758113252872 1681.8827226438868
1904.3604431048789 1818.3967697327912
1905.0449098696663 1656.38944968855
1905.7292116606295 1606.2328911209624
1906.4133485187394 1699.3285389725966
1907.0973204849488 1516.5151587263476
1907.7811276001976 1543.761430205623
1908.4647699053967 1388.2482974401964
1909.1482474414588 1561.5727091142273
1909.8315602492694 1440.0564149173301
1910.5147083696957 1702.2556480601718
1911.1976918436012 1683.4541019998185
1911.880510711815 1547.6711021080282
1912.5631650151681 1528.107291441105
1913.2456547944657 1508.4727954621465
1913.927980090495 1693.0582616947406
1914.6101409440362 1673.0315054047273
1915.2921373958416 1728.7212432044466
1915.9739694866603 1656.9805199187995
1916.655637257214 1740.5425256332442
1917.3371407482136 1753.8965227755482
1918.0184800003572 1799.6767661063066
1918.6996550543154 1629.4950132151557
1919.3806659507554 1587.0122600991672
1920.0615127303208 1708.6798341347646
1920.7421954336423 1616.8013784893496
1921.4227141013343 1732.9060446815486
1922.103068773993 1738.4688788696926
1922.783259492202 1720.804025868544
1923.4632862965227 1540.2966344458505
1924.1431492275078 1738.704672735847
1924.8228483256917 1547.8957065743684
1925.5023836315922 1600.3170605750795
1926.1817551857057 1466.2073879193108
1926.8609630285227 1745.7626739447333
1927.5400072005123 1818.3032374063635
1928.218887742125 1550.4483318328416
1928.8976046938005 1647.491173167172
1929.5761580959588 1705.4587755249172
1930.2545479890086 1653.839315471322
1930.9327744133352 1489.413205385064
1931.6108374093164 1748.975994609519
1932.2887370173066 1717.136735189176
1932.9664732776473 1473.9302071978118
1933.6440462306673 1783.385697855172
1934.3214559166754 1561.320792959825
1934.9987023759659 1738.963438141646
1935.675785648813 1617.6424562591305
1936.3527057754836 1465.7249381557158
1937.029462796223 1863.0630987483623
1937.70605675126 1683.5868960626642
1938.3824876808085 1613.1524588799948
1939.058755625072 1538.7867828377143
1939.7348606242267 1611.0976645989329
1940.4108027184448 1635.8625603672692
1941.0865819478713 1667.3713318378764
1941.7621983526478 1590.8382494338198
1942.4376519728921 1570.6220340205837
1943.1129428487038 1537.8679091240506
1943.7880710201734 1487.7276555280569
1944.4630365273733 1766.0745766439663
1945.1378394103576 1614.0048998255202
1945.8124797091714 1700.369359569284
1946.4869574638324 1429.2597911507278
1947.161272714353 1542.5243069589112
1947.8354255007234 1713.9008532319217
1948.5094158629272 1460.291272970907
1949.1832438409183 1675.3955149674548
1949.8569094746435 1627.5157585929405
1950.530412804037 1886.7569466562277
1951.2037538690092 1781.741216308946
1951.8769327094578 1655.1569050136927
1952.5499493652678 1556.488344328776
1953.222803876306 1673.475612990357
1953.895496282421 1667.9472418214668
1954.5680266234522 1597.0714980154908
1955.2403949392155 1607.890731336688
1955.9126012695142 1585.5189265207512
1956.5846456541403 1488.944816074131
1957.2565281328643 1543.6122458582545
1957.9282487454457 1722.491352369554
1958.5998075316202 1636.7098627010557
1959.27120453112 1548.9117819574317
1959.9424397836501 1753.8428093569346
1960.613513328908 1604.3247532803937
1961.2844252065697 1749.8040616491337
1961.9551754563017 1417.3942230434636
1962.6257641177453 1465.586141361132
1963.29619123054 1490.1817314301782
1963.966456834296 1536.3740781758343
1964.6365609686181 1553.0363879415697
1965.306503673086 1707.5368353146891
1965.976284987275 1545.8687617630953
1966.645904950734 1619.6034315448694
1967.315363603002 1456.642049211053
1967.9846609836077 1565.8010516514898
1968.6537971320486 1559.4813513161296
1969.3227720878222 1637.0199976884755
1969.9915858904042 1430.1120723436322
1970.660238579252 1566.9432683639366
1971.3287301938108 1615.0102491495595
1971.997060773514 1610.8609205793132
1972.665230357772 1373.3693262707693
1973.3332389859843 1457.5538511845666
1974.0010866975335 1415.1407110773082
1974.6687735317864 1555.2430194045623
1975.3362995280932 1715.4443744377834
1976.003664725793 1606.569511635737
1976.6708691642052 1489.455450318252
1977.3379128826364 1495.440323001075
1978.004795920373 1732.3282093706907
1978.6715183166925 1670.5569467481025
1979.3380801108524 1356.5197318502637
1980.0044813420973 1473.0290362891192
1980.6707220496555 1315.3050843779934
1981.3368022727373 1626.8897536275638
1982.0027220505417 1595.231144208133
1982.66848142225 1375.549955315569
1983.3340804270283 1529.090270287371
1983.999519104027 1503.5522568279641
1984.6647974923835 1587.3599880975478
1985.329915631215 1529.6888294233486
1985.99487355963 1552.2925651534263
1986.6596713167146 1731.8679150927685
1987.3243089415428 1547.0595933774014
1987.9887864731754 1640.13509717867
1988.6531039506553 1568.8785829950625
1989.3172614130071 1513.6668042023343
1989.9812588992481 1458.3835229717197
1990.645096448372 1287.7002866608057
1991.3087740993633 1575.423731315674
1991.9722918911848 1408.6342069576067
1992.635649862792 1645.2999966743962
1993.2988480531185 1572.745442777811
1993.9618865010852 1734.894603810389
1994.6247652455968 1430.431670919072
1995.287484325545 1497.1755241677733
1995.9500437798033 1442.793099834441
1996.6124436472292 1393.4469389496846
1997.2746839666706 1587.288812901171
1997.936764776954 1449.0082983069292
1998.598686116895 1489.6868933206556
1999.2604480252903 1651.475967946623
1999.9220505409212 1577.3636811978747
2000.5834937025593 1339.5252179834686
2001.2447775489582 1548.7872188742933
2001.9059021188514 1528.6134744365106
2002.5668674509616 1423.7250330777451
2003.2276735839987 1513.5608076952112
2003.8883205566508 1577.621557359979
2004.5488084075987 1622.0876987500524
2005.2091371755014 1622.1663759382
2005.8693068990033 1342.9402842689935
2006.5293176167397 1473.4672933398524
2007.1891693673224 1402.2350743085753
2007.848862189354 1246.9567329106028
2008.5083961214223 1317.8864171636956
2009.1677712020955 1435.8608650435124
2009.8269874699254 1485.4983710565673
2010.4860449634598 1387.8481830280084
2011.1449437212177 1676.7569852313584
2011.8036837817108 1560.459041479086
2012.4622651834325 1511.4281298978747
2013.1206879648653 1550.3759885918537
2013.7789521644736 1535.93316908326
2014.4370578207036 1293.2706956416414
2015.0950049719922 1510.0749746086467
2015.7527936567585 1714.8378796106142
2016.4104239134067 1444.8322765670687
2017.067895780323 1683.8394840145545
2017.725209295886 1363.1285996787772
2018.3823644984514 1408.4994527044391
2019.0393614263648 1595.2355101019139
2019.6962001179545 1411.2621449946434
2020.3528806115355 1512.2167400137182
2021.0094029454067 1346.8327915788016
2021.6657671578487 1351.8914618315123
2022.321973287133 1508.873603896334
2022.9780213715148 1523.929130176031
2023.6339114492293 1515.5171520888694
2024.2896435585026 1606.009045736889
2024.9452177375442 1421.393174789144
2025.600634024544 1544.508639342315
2026.2558924576842 1539.5857847657694
2026.9109930751292 1584.4203464669013
2027.565935915025 1446.2995817801852
2028.2207210155066 1694.0627186452743
2028.8753484146964 1588.21166480515
2029.529818150695 1595.1945457141744
2030.1841302615903 1602.0975771521519
2030.8382847854573 1366.3852518264023
2031.4922817603601 1507.2277883411218
2032.1461212243357 1560.6478217551353
2032.7998032154192 1270.776811768023
2033.4533277716218 1555.3041394520108
2034.1066949309443 1467.7516687931418
2034.7599047313688 1417.3015471284446
2035.4129572108704 1640.7082023990358
2036.0658524074006 1531.8125641889328
2036.7185903589016 1562.743340786662
2037.3711711032956 1604.8251180791872
2038.023594678496 1545.5291099398487
2038.675861122394 1405.6007486297697
2039.3279704728757 1563.1319804639074
2039.9799227678031 1300.2552024787196
2040.6317180450278 1491.532240009466
2041.2833563423865 1439.0363203168754
2041.9348376977014 1602.0998995865577
2042.5861621487784 1428.1862963777053
2043.2373297334088 1568.0624183748757
2043.8883404893695 1548.560522534161
2044.5391944544208 1279.8041464702828
2045.1898916663158 1505.6306067247883
2045.8404321627804 1571.7101097034708
2046.4908159815368 1371.2962857208634
2047.1410431602853 1143.6202682734497
2047.7911137367173 1430.0724736777627
2048.441027748504 1683.110441066538
2049.090785233302 1431.457002192345
2049.7403862287592 1414.1377688113143
2050.389830772503 1552.9061537744578
2051.0391189021466 1293.00678917214
2051.688250655294 1317.3036641628755
2052.337226069527 1282.1012142681218
2052.986045182417 1585.7436828539496
2053.634708031521 1297.4693173966598
2054.283214654375 1216.2520829903624
2054.931565088511 1134.9452717092777
2055.579759371436 1290.6500902438152
2056.2277975406523 1399.08651930337
2056.8756796336384 1446.4889403502598
2057.5234056878617 1181.4061148113005
2058.1709757407752 1488.8048724406037
2058.8183898298194 1484.7613771430042
2059.465647992416 1462.4229733140232
2060.1127502659747 1523.8103783785243
2060.759696687888 1327.9304208983158
2061.4064872955405 1508.2747832562914
2062.053122126292 1644.5214506551042
2062.699601217497 1547.9390354839777
2063.345924606485 1451.4090891263227
2063.992092330587 1573.2784567768767
2064.638104427102 1388.8976932807545
2065.283960933324 1485.960843679278
2065.92966188653 1275.3303762134003
2066.5752073239855 1454.2689626330355
2067.2205972829397 1388.9698923937055
2067.86583180062 1430.5249545242716
2068.5109109142522 1466.4453773579787
2069.15583466104 1417.0414629516958
2069.8006030781708 1293.5690355057743
2070.445216202821 1193.9026338226881
2071.089674072153 1437.2363516168632
2071.7339767233116 1620.3511619477595
2072.3781241934303 1448.8216179751403
2073.0221165196253 1449.5218572822598
2073.6659537390024 1403.448790623072
2074.3096358886505 1497.9315354340497
2074.953163005637 1462.2375754864188
2075.596535127028 1393.3594349995553
2076.2397522898664 1324.4176337526483
2076.882814531182 1337.8722610919972
2077.5257218879924 1511.8227332297815
2078.1684743973 1471.4901669496248
2078.8110720960885 1325.4926289793502
2079.453515021336 1596.1654277022426
2080.095803209997 1420.1184113842112
2080.7379366990135 1425.4810167293135
2081.37991552532 1599.9041706161463
2082.0217397258275 1364.7770792523684
2082.6634093374414 1274.5122651933702
2083.3049243970418 1247.5682051058434
2083.9462849415067 1485.8220162410712
2084.587491007689 1418.8013796504736
2085.2285426324324 1378.3447222480277
2085.869439852564 1379.4988256121815
2086.510182704902 1282.3963040134693
2087.1507712262483 1253.4214413934733
2087.791205453381 1266.0777665176688
2088.4314854230743 1512.9354112997785
2089.0716111720867 1503.7313144721736
2089.7115827371617 1499.7520839516487
2090.351400155023 1495.8157321403628
2090.991063462385 1229.5958077816501
2091.6305726959527 1166.74120968371
2092.2699278924047 1357.9518455008163
2092.9091290884153 1390.9036923941046
2093.548176320641 1223.0182936780702
2094.187069625721 1186.349414554843
2094.8258090402887 1149.5996285272313
2095.464394600951 1366.531816023207
2096.102826344313 1395.0273887953585
2096.741104306955 1523.4450042177002
2097.379228525453 1411.0689625278949
2098.017199036358 1164.2239367874067
2098.6550158762147 1479.0209737172563
2099.2926790815527 1407.484068830075
2099.9301886888825 1355.848389524289
2100.5675447347076 1382.1242324165055
2101.2047472555114 1473.5500606011433
2101.841796287761 1207.3175807613993
2102.47869186792 1495.6724480108373
2103.1154340324265 1453.3515002372033
2103.752022817709 1292.0702174310654
2104.388458260184 1189.9499664519835
2105.024740396251 1327.092478484047
2105.660869262292 1389.4153133245236
2106.296844894685 1389.80902507281
2106.93266732978 1344.80765742671
2107.5683366039284 1162.084703065123
2108.2038527534532 1386.4061374577823
2108.8392158146726 1510.5165248901753
2109.4744258238843 1405.4977546296006
2110.1094828173755 1311.0580929212988
2110.744386831422 1493.4328317179245
2111.3791379022787 1384.435504087524
2112.01373606619 1287.2405639806857
2112.648181359389 1432.8477785940704
2113.28247381809 1376.5955904382904
2113.916613478492 1334.6957096539538
2114.550600376786 1462.5659890944876
2115.1844345491445 1262.5309173631836
2115.818116031729 1407.4895394918074
2116.451644860679 1434.5396502969636
2117.085021072133 1226.2785782512951
2117.718244702204 1227.4370670086844
2118.3513157869984 1255.4056220101897
2118.984234362604 1343.2617908504994
2119.617000465092 1310.095403185201
2120.249614130529 1454.3763469780304
2120.8820753949585 1573.155826838801
2121.5143842944162 1380.692073996837
2122.14654086492 1363.5115796928303
2122.7785451424734 1428.7504336549885
2123.4103971630702 1185.5618396211673
2124.042096962681 1228.260357410613
2124.6736445772767 1271.178004003114
2125.305040042802 1245.7432042325986
2125.936283395191 1314.2074584535471
2126.567374670365 1433.5481045451747
2127.198313904233 1241.9213899977908
2127.8291011326855 1408.3415019236595
2128.4597363916037 1352.5903155617411
2129.0902197168507 1138.6866022236347
2129.720551144279 1268.9794237695812
2130.3507307097225 1540.0707174074726
2130.980758449008 1442.6308611114823
2131.6106343979427 1240.2739188971666
2132.2403585923203 1436.7713761755044
2132.8699310679276 1387.5729900260253
2133.499351860526 1564.2913579521087
2134.1286210058715 1350.1944400939265
2134.7577385397053 1319.0179309851624
2135.3867044977487 1287.8690054512986
2136.0155189157176 1501.3886000949065
2136.644181829308 1446.0743827292083
2137.2726932742025 1251.676159632885
2137.901053286074 1278.3905006541067
2138.5292619005777 1305.2035723593924
2139.1573191533535 1399.3121809383742
2139.7852250800315 1454.6409724940972
2140.4129797162295 1366.6245524122087
2141.0405830975433 1236.8955059364587
2141.6680352595613 1283.465638492751
2142.2953362378576 1330.1396033618187
2142.9224860679915 1232.8921529798533
2143.549484785508 1203.7478288283653
2144.1763324259373 1335.3002385156462
2144.803029024799 1206.0578102694724
2145.429574617594 1105.6851324707582
2146.0559692398165 1163.0816766397304
2146.682212926942 1220.4731632093847
2147.308305714432 1254.3353567493525
2147.9342476377333 1458.5867118867113
2148.5600387322847 1551.0613951856735
2149.185679033506 1453.955259388365
2149.8111685768017 1258.7049018831635
2150.4365073975678 1365.4928269506645
2151.061695531187 1388.3711957790931
2151.686733013021 1560.8863430369088
2152.311619878423 1357.890640233669
2152.9363561627342 1223.6173221632657
2153.560941901278 1218.4420038106302
2154.1853771293663 1414.5130028125827
2154.809661882293 1360.4498918030545
2155.433796195348 1293.2810760550722
2156.0577801037944 1225.868261594274
2156.681613642895 1219.9795276620891
2157.3052968478896 1073.81616635594
2157.928829754006 1364.9982101323833
2158.552212396462 1292.1745806142867
2159.1754448104566 1228.3940274998747
2159.7985270311783 1176.2642069481417
2160.4214590938027 1002.9874559867443
2161.0442410334927 1094.0890478855886
2161.6668728853874 1361.0705078104704
2162.289354684628 1350.661222804171
2162.911686466332 1214.7490530901503
2163.533868265602 1446.347587685973
2164.1559001175337 1456.6650973387782
2164.7777820572046 1470.8292254701646
2165.399514119681 1181.1897643092173
2166.021096340013 1152.2233189169515
2166.6425287532384 1264.9597057803212
2167.263811394385 1216.5889889875914
2167.8849442984574 1290.6720566419447
2168.505927500455 1311.5742927420551
2169.126761035366 1297.4196788421582
2169.7474449381552 1336.9476466342921
2170.367979243778 1210.4594034265267
2170.9883639871823 1395.5985446532136
2171.608599203293 1264.9751772561438
2172.2286849270276 1508.5109582502332
2172.8486211932886 1273.6523803701853
2173.4684080369625 1446.5927143523445
2174.0880454929265 1213.5828188483108
2174.7075335960417 1172.8237150821908
2175.3268723811543 1202.0608010885119
2175.9460618831 1231.388895018145
2176.565102136701 1293.9685243521574
2177.1839931767627 1264.4659478592419
2177.802735038078 1234.9035623475704
2178.421327755432 1251.1872304757221
2179.0397713635866 1294.1492309608307
2179.658065897298 1373.2110830400657
2180.276211391305 1300.0637016425296
2180.8942078803357 1301.5948146362027
2181.5120553991 1270.9281536531994
2182.129753982299 1177.1398288574242
2182.7473036646206 1295.2463710680408
2183.3647044807367 1495.6334742611552
2183.9819564653044 1430.8028966977017
2184.599059652968 1365.8658496096173
2185.216014078367 1177.366949010911
2185.832819776113 1108.571614720976
2186.4494767808137 1364.0390864763015
2187.065985127063 1361.4423233237337
2187.682344849436 1099.9393131739737
2188.298555982501 1374.83471498094
2188.9146185608097 1297.2583155135044
2189.530532618901 1552.2912701298399
2190.1462981912937 1408.0973747405383
2190.761915312507 1203.8496951906186
2191.377384017036 1147.7235349904777
2191.9927043393654 1226.480272999835
2192.6078763139667 1314.986410182417
2193.2228999753006 1403.7028582684784
2193.837775357808 1319.0106747895265
2194.452502495922 1042.56765863587
2195.0670814240602 1417.5888276930102
2195.6815121766285 1111.87176858673
2196.2957947880186 1057.401476259442
2196.9099292926057 1002.8249046001478
2197.523915724758 1287.1849959363976
2198.137754118825 1444.1347417116517
2198.7514445091456 1452.618460818327
2199.3649869300443 1236.2521210097345
2199.9783814158327 1574.8269750233897
2200.5916280008096 1446.7250647870178
2201.2047267192593 1465.1483609051697
2201.8176776054515 1093.963412666277
2202.430480693649 1037.040443741846
2203.0431360180955 1110.6739665533617
2203.6556436130195 1184.5263732010012
2204.268003512645 1176.3687723971293
2204.8802157511727 1253.3954892185354
2205.492280362796 1618.6788768858175
2206.1041973816937 1433.455587738777
2206.715966842032 1364.7556345764358
2207.3275887779655 1295.7878299734255
2207.93906322363 1400.1353989117072
2208.550390213153 1223.0251099604793
2209.1615697806465 1310.2130828029383
2209.7726019602105 1156.2139384383713
2210.3834867859277 1245.9219015128758
2210.9942242918787 1116.7124238719541
2211.6048145121167 1309.3463947601329
2212.2152574806914 1478.065152727469
2212.825553231638 1430.62726421204
2213.435701798975 1530.3502017027195
2214.045703216707 1369.918022650799
2214.655557518832 1103.2248940294962
2215.2652647393297 1017.7305290265065
2215.874824912169 926.5416561511695
2216.4842380713 1127.9493767236486
2217.09350425067 1190.5141366017763
2217.7026234842033 1287.4596570206988
2218.311595805819 1197.0911834295446
2218.9204212494133 1106.4375148435367
2219.52909984888 1300.6837701773095
2220.137631638092 1224.7937091908148
2220.7460166509154 1389.325312056612
2221.354254921198 1141.1652890065159
2221.9623464827764 1249.8686247077073
2222.5702913694713 1355.8928608307667
2223.178089615096 1321.2080493330877
2223.7857412534486 1210.1817962214689
2224.39324631831 980.8180521489496
2225.000604843457 1174.9072536246854
2225.607816862641 988.3185992213214
2226.214882409611 1133.5332228610484
2226.8218015180973 1157.490688871545
2227.4285742218217 1181.3914732666517
2228.0352005544864 1274.7095292830313
2228.6416805497847 1298.5762477096534
2229.248014241399 1322.4369523337086
2229.8542016629945 1117.3179110012493
2230.460242848223 1320.9571288401228
2231.0661378307304 1268.0311063614256
2231.671886644139 1161.3570853040426
2232.277489322065 1119.9521805465458
2232.8829458981127 1188.995676094762
2233.48825640587 1258.1342741612082
2234.0934208789095 1360.8513852720846
2234.6984393507955 1220.4706304817041
2235.3033118550793 1167.3878200792453
2235.9080384252975 977.1506881639795
2236.5126190949723 1199.7955119613343
2237.1170538976166 1070.7256903562013
2237.721342866729 991.179911378342
2238.32548603579 1237.8401760626534
2238.9294834382763 1240.304812211606
2239.533335107646 1197.31829269145
2240.1370410773434 989.9606222509195
2240.740601380803 1108.176499365835
2241.3440160514474 1408.7690260462077
2241.9472851226783 1427.5558147407332
2242.550408627896 1274.2210323407564
2243.1533866004793 1225.9589491029344
2243.756219073799 1177.6350388398234
2244.3589060812064 1245.0615222482102
2244.961447656049 1182.6761184559493
2245.5638438316564 1171.9375291338326
2246.166094641343 1220.3896767235535
2246.7682001184166 1230.4617899763812
2247.3701602961664 1148.6645643998236
2247.971975207871 1278.8972581832566
2248.5736448867974 1251.9186777168995
2249.175169366197 1201.0499190631842
2249.7765486793123 1318.161921015469
2250.3777828593684 1299.8658733128027
2250.9788719395783 1180.1154443562214
2251.579815953146 1377.774453233654
2252.1806149332606 1385.3705483695228
2252.781268913097 1392.9390163525902
2253.381777925817 1251.8428924557265
2253.9821420045737 1367.7153415867633
2254.5823611825035 1224.9626241067247
2255.1824354927303 1451.7819323356748
2255.782364968365 1410.822451947275
2256.38214964251 1035.5850474428905
2256.9817895482483 1057.354631040743
2257.5812847186553 1086.6993789417334
2258.180635186791 1182.2353870548325
2258.779840985704 1175.7168290153932
2259.37890214843 1202.3282385899113
2259.97781870799 1222.9801204034998
2260.5765906973957 1281.371913955941
2261.175218149645 1385.13483270402
2261.773701097718 1102.398025360221
2262.3720395745895 1044.3828557430393
2262.970233613216 1210.1460527386641
2263.568283246548 1289.8237958207114
2264.1661885075137 1186.2283486750796
2264.763949429038 1181.0046254007852
2265.3615660440246 1207.618224882441
2265.959038385374 1082.433726969405
2266.5563664859637 1112.0882528286584
2267.153550378669 1141.840353938465
2267.7505900963424 1208.242453095489
2268.3474856718312 1221.529401202736
2268.9442371379664 1253.2208969755634
2269.5408445275643 1179.718834646185
2270.1373078734377 1106.0987202948356
2270.7336272083758 1085.8626129295158
2271.32980256516 1125.2938253035243
2271.925833976562 1253.684441387259
2272.5217214753357 1161.3539186446692
2273.117465094223 1068.8151142989332
2273.7130648659586 1077.5515327155454
2274.308520823257 1212.4920678025492
2274.903832998827 1430.8762821121259
2275.4990014253563 1390.6285919105292
2276.094026135528 1350.2776339178217
2276.6889071620117 1061.0906420653232
2277.2836445374614 922.8614887670867
2277.878238294519 994.7971371683201
2278.472688465812 982.4018017851704
2279.066995083962 969.9547236258713
2279.6611581815705 1042.0044655583156
2280.255177791232 1097.107739444887
2280.8490539455233 1403.9745264527392
2281.442786677013 1490.6774351058884
2282.0363760182554 1267.9829838817477
2282.6298220017943 1085.4463742975227
2283.223124660155 1109.981667098827
2283.816284025859 1134.6300819901112
2284.4093001314086 1118.7490819871637
2285.002173009292 1220.2005633718752
2285.5949026919952 1364.183575928149
2286.1874892119777 1364.191595975685
2286.7799326016993 1354.7208608404285
2287.3722328936 1114.1098896178223
2287.964390120109 954.7379664351753
2288.556404313642 1262.6618997372746
2289.1482755066027 1188.0863948234141
2289.7400037313873 1274.2146941264882
2290.3315890203703 1071.5914904987271
2290.9230314059205 1077.1820452775682
2291.5143309203904 1082.8151628857458
2292.1054875961236 1110.6634989364854
2292.6965014654506 1418.9788206605206
2293.287372560684 1152.4466998408232
2293.878100914131 1207.6203945797697
2294.468686558086 1262.9508012716362
2295.059129524827 1073.469446288598
2295.649429846617 1082.6070119681865
2296.239587555716 1091.7334963765404
2296.8296026843636 1319.4298702246713
2297.419475264791 1248.025041046731
2298.0092053292137 1176.4097726101397
2298.598792909839 1121.3947864536437
2299.1882380388597 1436.1011365067973
2299.777540748455 1294.5041164270156
2300.3667010707904 1380.3141143518892
2300.9557190380256 1238.3376449326402
2301.544594682302 1361.0080289768305
2302.1333280357503 1329.6084151633427
2302.721919130485 1298.1987339852753
2303.3103679986198 1382.6000930115547
2303.898674672242 1280.5948858820275
2304.486839183437 1197.9104541134118
2305.0748615642697 1126.5056311041528
2305.6627418468015 1176.0860901066999
2306.2504800630704 1012.6268020298091
2306.8380762451143 1422.936175249802
2307.425530424949 1374.3818953343014
2308.012842634582 1325.705465570653
2308.6000129060103 1367.7809713998513
2309.187041271214 1440.8236848092097
2309.773927762164 1195.267571071722
2310.3606724108213 1302.5334461268499
2310.9472752491274 1111.7264031778566
2311.5337363090184 1261.6491701712637
2312.120055622414 1207.6483215572446
2312.706233221221 1320.4367743411985
2313.2922691373424 1413.0094638759776
2313.8781634026564 1505.7934357627341
2314.463916049037 1213.6117181120158
2315.049527108342 1360.604706620954
2315.6349966124235 1507.9205285041276
2316.2203245931123 1392.6415493433421
2316.8055110822315 1112.0398578738696
2317.3905561115935 1100.0692081237908
2317.9754597129977 985.5210402062254
2318.560221918229 976.6931245817963
2319.1448427590603 967.8664583378875
2319.729322267256 969.0142940978773
2320.313660474563 1172.939641277657
2320.8978574127195 1532.184933277772
2321.481913113452 1629.216838679205
2322.0658276084705 1366.2068374270734
2322.6496009294806 1162.6383510930564
2323.233233108165 1186.8805944705932
2323.8167241762058 1211.169421138688
2324.4000741652617 1117.191762638237
2324.983283106987 1239.5998176070755
2325.5663510330232 1402.565075705009
2326.1492779749933 1388.9395207610755
2326.7320639645204 1375.1097145029235
2327.3147090332004 1202.5128834405175
2327.897213212629 1611.9009062647683
2328.4795765343843 1501.4646235058306
2329.0617990300307 1499.8539062436544
2329.643880731124 1498.2595169397332
2330.22582166921 1213.257376256329
2330.807621875816 1437.7368367614386
2331.3892813824623 1346.5556730457197
2331.9708002206517 1255.317694048082
2332.5521784218818 1144.4611050760789
2333.133416017634 1300.3454701149496
2333.7145130393765 1109.4075383206548
2334.295469518571 1362.752608269478
2334.876285486658 1374.473636900642
2335.456960975076 1405.8766615220761
2336.037496015242 1437.3742313283108
2336.6178906385667 1238.796019327424
2337.198144876451 1325.9099857219358
2337.778258760278 1423.528037053874
2338.3582323214214 1345.3408381400195
2338.938065591243 1266.938133354171
2339.517758601087 1363.0260052884048
2340.0973113822965 1019.8741355988954
2340.676723966193 1158.9353490980093
2341.255996384094 1213.649333464898
2341.835128667295 1323.7765483165422
2342.4141208470883 1466.9986899865612
2342.992972954751 1071.8746188469618
2343.5716850215467 903.0541449161541
2344.1502570787306 1185.081351511473
2344.7286891575386 984.6904735820401
2345.3069812892045 1267.1930081290914
2345.885133504944 1301.2604153119714
2346.4631458359618 1063.657195883235
2347.04101831345 1177.6151940419797
2347.6187509685915 1126.0461558005984
2348.196343832553 1119.749170790887
2348.7737969364935 1205.961692191524
2349.351110311558 923.7615494234818
2349.9282839888765 1058.9507184648025
2350.5053179995757 902.283844334221
2351.0822123747585 1013.2381965717868
2351.658967145526 1070.9924455931146
2352.2355823429643 1128.9064110791348
2352.812057998144 1189.6184823646336
2353.3883941421263 1203.957669606819
2353.9645908059647 1218.3791445113816
2354.540648020693 1077.0914176804397
2355.116565817336 1000.7278068512118
2355.6923442269126 1102.390371860381
2356.2679832804224 1204.2697401607518
2356.8434830088518 1053.512821969586
2357.41884344318 994.4266876610254
2357.994064614377 1246.9755775870294
