#exp_cfg={"servo_angle": 0.0, "laser_lim": 100.0, "servo_angle_to": 18.0, "laser_wup": 0.0, "bt_dev": "EnSpectr-25AE3", "laser_wdn_max": 0.0, "frames": 10.0, "servo_used": 0, "servo_calib_use": 0, "laser_wdn_min": 0.0, "servo_pix_from": 90.0, "cooler_tout": 300.0, "servo_angle_from": 0.0, "servo_calib": "[-1.9174921013161362e-09, 3.9322238269163779e-05, -0.27385609119055809, 653.59552119713567]", "laser_autoctl": 0, "servo_pix_to": 3682.0, "laser_pw": 100.0, "cooler_on": 0, "laser_volt": 4.0, "cooler_autoctl": 0, "cooler_curr": 70.0, "cooler_startup": 10.0, "laser_fixed_pw": 0, "gain": 1.3, "offset": 2.53059635486, "servo_calib_degree": 3.0, "laser_curr": 55.0, "shutter": 8200.0, "servo_calib_step": 1.0, "laser_fixed_curr": 0, "exp": 2000.0, "ccd_volt": 4.7, "bt_addr": "00:06:66:62:5A:E3", "servo_delay": 500.0, "laser_autooff": 1}
#proc_cfg={"flat_auto_wnd": 200.0, "flat_auto_fr": 200.0, "flat_auto_shift": 5.0, "yconv": 1, "flatten": 1, "flatten_strength": 100.0, "xfrom": 300.0, "auto_max_frame": 2000.0, "auto_signal": 48000.0, "flat_auto_tol": 0.1, "autoclip": 1, "xrel_range": 0.0, "flat_auto_to": 4000.0, "intensity_adj": 1.0, "xrel": 7852.0, "rmhot": 1, "flat_auto_slit": 4.999999999999997, "auto_ini_exp": 300.0, "auto_off": 0, "xto": 2860.0, "flat_auto_ref": "", "flat_auto_rank": 1, "autobackg": 0, "xrel_adj": 0.0, "auto_black_lvl": 1, "base_wnd": 100.0, "sub_baseline": 0, "xconv": 2, "auto_max_exp": 1000.0, "auto_total_exp": 10000.0, "auto_exp": 0, "rmripple": 0, "black_lvl": 8224.909375, "shutter_clip_adj": 0.0, "auto_bckg": 0, "flat_auto_thr": 0.9, "subbackg": 1}
316.8218498245369 21095.479583339915
317.89969571804795 21081.670502579982
318.977263876126 21066.14881335561
320.05455438786703 21021.962228274373
321.1315673423287 20874.34580214256
322.2083028285215 20975.239260277915
323.2847609354267 20734.2073775381
324.3609417519747 20718.557217247242
325.43684536705587 20737.153501227873
326.5124718695279 20706.485949087855
327.58782134820103 20431.443057258275
328.66289389184385 20523.23529837221
329.7376895891921 20370.9322472598
330.8122085289342 20383.78646835655
331.88645079971866 20344.204283372575
332.9604164901575 20164.99577164087
334.03410568881554 20048.851558250248
335.1075184842266 20112.789301923378
336.18065496487543 19922.0933550631
337.2535152192122 19931.980902460702
338.32609933564163 19805.50131977199
339.39840740253203 19761.577746793482
340.4704395082099 19723.634717674828
341.5421957409617 19541.70134259101
342.6136761890357 19620.10034782583
343.6848809406365 19517.535442754226
344.75581008392874 19429.64869170426
345.82646370703696 19366.47567030904
346.8968418980512 19449.41636950846
347.96694474501055 19356.354977497096
349.0367723359268 19329.316950431225
350.106324758759 19251.62784202792
351.1756021014353 19186.78620625179
352.2446044518383 19147.148678071957
353.31333189781435 19077.725308814508
354.38178452716966 19061.221678773327
355.449962427665 19098.61038709555
356.51786568702846 18930.38619063677
357.58549439294256 19000.705361124583
358.6528486330535 18977.733548879092
359.71992849496564 18867.655052998984
360.7867340662433 18941.317846401875
361.8532654344144 18785.283423718938
362.9195226869597 18858.79035791128
363.9855059113288 18756.040611567147
365.05121519492604 18726.325370704628
366.11665062511565 18699.18633263147
367.1818122892273 18722.72181925071
368.2467002745434 18695.13902014726
369.31131466831175 18664.974249524785
370.375655557742 18696.142658622375
371.4397230299983 18586.552653270195
372.5035171722102 18521.52254004016
373.5670380714637 18525.60712703427
374.6302858148101 18533.637844963687
375.6932604892554 18499.12358836977
376.7559621817709 18470.909940174242
377.81839097928605 18386.477273442833
378.8805469686886 18340.22969856312
379.94243023683157 18499.202045323
381.0040408705263 18239.30018774067
382.0653789565458 18254.46577140851
383.1264445816196 18206.343699578476
384.1872378324406 18181.04598696834
385.2477587956637 18214.077488898223
386.3080075579037 18080.414624740275
387.3679842057336 17959.53472223979
388.4276888256918 18029.088373480674
389.48712150426945 17929.652695398792
390.54628232792857 17852.74315056303
391.6051713830857 17792.964379143374
392.66378875611736 17750.02788219049
393.7221345333637 17875.763615977092
394.7802088011249 17699.109759824692
395.838011645661 17813.152238175673
396.89554315319765 17708.8773517358
397.9528034099112 17600.013789455257
399.00979250194723 17542.1308577441
400.06651051541485 17518.513271784155
401.1229575363741 17464.921027524797
402.17913365085224 17539.893660487352
403.23503894483656 17510.581442038147
404.2906735042761 17422.353186316475
405.3460374150818 17362.03134548231
406.401130763119 17286.93895556226
407.455953634224 17345.81621969219
408.5105061141876 17281.34661611304
409.56478828876243 17160.115436574713
410.6188002436629 17170.09670538331
411.6725420645689 17172.744704279532
412.72601383711117 17175.086973237296
413.77921564689314 17210.199323925674
414.8321475794728 17119.175675876984
415.88480972036814 17012.008185512335
416.93720215506437 17073.93071895452
417.9893249690049 17023.986008529286
419.04117824759123 16905.487825358952
420.09276207619223 16967.239855755695
421.144076540133 16926.598851013034
422.1951217247042 16917.48547091517
423.24589771515275 16848.183067463535
424.2964045966928 16779.705693068492
425.34664245449494 16879.21003618339
426.3966113736933 16773.3035830246
427.4463114393875 16683.313546413458
428.49574273662984 16685.01554827193
429.5449053504417 16599.562047026684
430.5937993658026 16663.79594492881
431.6424248676558 16596.342568313754
432.6907819409007 16568.714563168025
433.73887067040596 16591.270926725618
434.7866911409965 16572.18276029008
435.8342434374608 16552.962129609346
436.88152764455117 16427.01622867141
437.9285438469724 16467.704851394432
438.9752921294057 16346.008691557852
440.02177257648145 16413.110622039596
441.06798527279716 16328.074891626635
442.1139303029122 16428.41516491704
443.1596077513459 16564.42291066921
444.2050177025794 16353.409327371566
445.25016024105753 16377.333852461903
446.2950354511886 16318.305052813885
447.33964341733736 16397.88228970133
448.383984223834 16324.149352920076
449.4280579549686 16278.969238627376
450.471864694995 16296.255439953715
451.5154045281306 16214.756412695628
452.5586775385509 16270.713273673964
453.60168381039693 16272.941389084915
454.64442342776783 16473.397922952783
455.6868964747264 16257.958307955187
456.7291030353008 16252.109479070186
457.77104319347563 16291.430618804108
458.8127170332027 16278.090812006063
459.854124638392 16263.340364721036
460.895266092919 16396.01527501069
461.93614148061897 16549.139763698
462.97675088529104 16509.449950988303
464.01709439069236 16444.177271045693
465.0571720805492 16368.612713725155
466.0969840385442 16447.50069196021
467.1365303483253 16583.84617628357
468.17581109350067 16474.13319920431
469.2148263576437 16484.731320978746
470.2535762242878 16466.494204046146
471.29206077693016 16576.11988662293
472.33028009902773 16499.871124529353
473.3682342740012 16619.366226317397
474.40592338523857 16512.420062058933
475.4433475160804 16637.443239874847
476.4805067498364 16543.4873710402
477.51740116978 16471.266959146993
478.5540308591426 16610.497887709713
479.59039590112116 16797.612249066045
480.6264963788726 16760.068054496358
481.6623323755193 16932.064880531336
482.6979039741436 16910.445852283163
483.7332112577915 17128.33124239839
484.76825430947247 17169.178424213147
485.80303321215797 17239.370527927476
486.837548048783 17304.631698635574
487.8717989022425 17466.23159665859
488.90578585539697 17343.872887846497
489.9395089910686 17472.501169941017
490.97296839203955 17389.459777378208
492.00616414106116 17218.44030235965
493.0390963208429 17186.27858140121
494.0717650140559 17127.775730878784
495.10417030333883 16959.898440180685
496.1363122712901 16893.54884989594
497.16819100046814 16649.152515522946
498.1998065734024 16485.412666679753
499.2311590725767 16432.36634328548
500.26224858044407 16304.610417776441
501.2930751794156 16240.389495126172
502.3236389518679 16249.88079778135
503.35393998014115 16023.815570266326
504.38397834653733 16069.110357623907
505.4137541333221 15978.012610284926
506.4432674227228 15847.809907734108
507.4725182969323 15817.58556171058
508.5015068381035 15732.02029694057
509.53023312835467 15750.369344431112
510.55869724976765 15778.966981319094
511.58689928438434 15621.954688079632
512.6148393142121 15633.591384821944
513.6425174212218 15656.966719461008
514.6699336873462 15749.203563934298
515.6970881944835 15641.497362062026
516.7239810244901 15429.924907123379
517.7506122591931 15449.799670457423
518.7769819803761 15522.66792629745
519.8030902697901 15604.777206669309
520.8289372091476 15554.916215441728
521.8545228801249 15634.532104537899
522.8798473643619 15415.248504974918
523.9049107434621 15559.095664207558
524.9297130989908 15508.607168401917
525.9542545124805 15430.634732895967
526.9785350654201 15510.276582246084
528.0025548392696 15412.907042772591
529.0263139154504 15374.302828397713
530.0498123753423 15453.53763683922
531.073050300296 15369.553624595492
532.0960277716204 15281.043445500462
533.1187448705896 15315.33938238626
534.1412016784416 15315.071053263173
535.1633982763833 15351.822537710736
536.1853347455726 15281.447133512193
537.2070111671401 15168.369472402588
538.2284276221817 15198.710205518484
539.2495841917516 15247.652648519743
540.2704809568677 15134.714514978976
541.2911179985167 15161.802716457643
542.3114953976419 15208.784327900652
543.3316132351592 15166.00502498174
544.3514715919409 15160.574278948852
545.3710705488247 15143.165744557124
546.3904101866156 15280.754937822447
547.4094905860784 15285.880278293524
548.4283118279418 15214.85545686977
549.4468739929034 15347.01437818209
550.4651771616191 15337.413819702764
551.4832214147063 15264.933722435959
552.501006832761 15393.470475012107
553.5185334963226 15310.109492978716
554.5358014859103 15428.396853143708
555.5528108820035 15385.027856128761
556.5695617650363 15489.862905299824
557.5860542154242 15446.531897280773
558.6022883135283 15340.762293852924
559.6182641396881 15318.459861053601
560.6339817741991 15357.780333271217
561.6494412973225 15348.237385344535
562.6646427892883 15354.56606018778
563.6795863302796 15135.421960073221
564.694272000459 15184.90598845948
565.7086998799423 15171.260730786857
566.7228700488104 15011.830207927274
567.7367825871115 15015.918119818092
568.7504375748576 14988.078350307303
569.7638350920224 14893.014574754992
570.7769752185486 14921.774139408506
571.7898580343353 14817.23701568286
572.802483619258 14788.344674703476
573.8148520531431 14848.309177113528
574.8269634157932 14919.414271208161
575.8388177869692 14778.161973858028
576.8504152463938 14874.483623302407
577.8617558737587 14889.136884806529
578.8728397487175 14835.381889487011
579.883666950891 14870.651081050519
580.8942375598654 14929.141538637345
581.9045516551851 14966.794690245555
582.9146093163617 15095.079947854034
583.924410622878 14991.148142640837
584.9339556541727 14999.360070965402
585.9432444896538 14963.148969059703
586.9522772086875 15016.898903796551
587.9610538906127 14844.780108774727
588.9695746147318 14818.374471101479
589.9778394603054 14866.385964662619
590.985848506567 14763.565544663195
591.9936018327098 14631.823335229943
593.0010995178891 14483.491852297113
594.0083416412344 14529.338094919052
595.0153282818283 14288.431470687927
596.0220595187293 14321.858757195481
597.0285354309508 14287.50782062166
598.0347560974806 14226.027475137564
599.0407215972609 14153.929577911655
600.0464320092051 14207.598191063273
601.0518874121954 14141.36508455619
602.0570878850685 14099.921872624522
603.062033506636 14191.634205039682
604.0667243556636 14100.569720320851
605.0711605108936 14103.263052802362
606.0753420510264 14310.74000594506
607.0792690547278 14207.283969780776
608.082941600629 14204.540592441965
609.0863597673306 14318.592125161003
610.0895236333909 14425.854431011923
611.0924332773357 14579.48898730946
612.0950887776617 14591.485251903101
613.0974902128219 14847.59562742798
614.0996376612384 14886.155032997482
615.1015312013005 15137.951313106518
616.1031709113595 15329.17874162264
617.1045568697336 15407.277338103004
618.1056891547069 15549.029655793676
619.1065678445229 15752.708047974253
620.1071930173985 15983.867744747364
621.1075647515099 15915.973183592787
622.1076831250048 16031.071471172932
623.1075482159849 16158.147435639636
624.1071601025305 16074.836091102447
625.1065188626781 16181.23662256157
626.105624574433 16311.696288614112
627.1044773157682 16199.916061465434
628.1030771646128 16208.311498607549
629.1014241988742 16272.809238034368
630.0995184964158 16258.226491280966
631.0973601350688 16306.65222464558
632.0949491926294 16330.768024554645
633.0922857468631 16225.331471788053
634.089369875499 16215.139686072482
635.0862016562278 16169.264896867904
636.0827811667077 16023.735614555631
637.0791084845641 16046.215163432764
638.0751836873878 15847.711861975415
639.0710068527369 15894.602867869155
640.0665780581294 15750.442422185366
641.0618973810506 15460.805984610543
642.0569648989604 15446.480044729382
643.0517806892676 15376.364577524986
644.0463448293649 15175.9818333775
645.040657396592 15138.265895196158
646.0347184682723 14922.155474062058
647.0285281216875 14758.689185047484
648.0220864340772 14661.886337666054
649.0153934826558 14647.187197268306
650.0084493446047 14520.409123589241
651.0012540970674 14441.98114135912
651.9938078171526 14393.21341286634
652.9861105819346 14227.281776227484
653.9781624684565 14251.171347049603
654.9699635537254 14111.681072327847
655.9615139147136 14117.088333344325
656.9528136283589 13912.152950011234
657.9438627715699 14003.910763408427
658.9346614212154 13809.204104567089
659.925209654135 13728.968460187132
660.9155075471263 13691.457977021713
661.9055551769616 13601.49209330862
662.895352620375 13697.934546472034
663.8848999540678 13519.236964659165
664.8741972547068 13365.844475714359
665.863244598926 13356.505114338495
666.8520420633213 13415.39129521511
667.8405897244611 13325.431406816313
668.8288876588758 13156.069176390714
669.8169359430613 13207.220335051254
670.8047346534822 13111.518832462165
671.7922838665672 13094.599350384155
672.7795836587156 13222.903330664616
673.766634106285 13265.770394654988
674.7534352856092 13055.630436830057
675.7399872729766 13018.944176973833
676.7262901446538 13168.042284212159
677.712343976862 13047.144404888295
678.6981488457986 13164.159854015077
679.6837048276229 13041.607721269935
680.6690119984596 13011.514741196
681.6540704344043 13065.521001899799
682.6388802115107 12989.7806660033
683.6234414058108 12975.53935819388
684.6077540932874 12903.4527716878
685.591818349907 12943.32874787704
686.575634251587 12904.537566630179
687.5592018742263 12862.113973665682
688.5425212936734 12767.261208193342
689.5255925857564 12949.85667710819
690.5084158262707 12849.427035912326
691.4909910909646 12923.584468181738
692.4733184555644 12813.20848871271
693.4553979957618 12973.423135425688
694.4372297872123 12875.163132053052
695.4188139055404 12942.975931065146
696.4001504263324 12956.337160101117
697.3812394251509 13122.177585920852
698.3620809775111 13198.91333599782
699.3426751589104 13177.536906856249
700.3230220448004 13205.111290760378
701.3031217106054 13244.648761742821
702.2829742317172 13400.89971432083
703.2625796834873 13293.377312835884
704.2419381412474 13363.799070603034
705.22104968028 13445.664914224812
706.1999143758458 13573.483994045746
707.178532303169 13670.729101123623
708.1569035374378 14012.415957843448
709.1350281538107 14136.606862671248
710.1129062274158 14425.12179055966
711.0905378333373 14886.339150459902
712.0679230466376 15235.229979866135
713.0450619423427 15790.949585632474
714.0219545954424 16287.574324585821
714.9986010808989 16619.692479349542
715.9750014736292 17289.72126209651
716.9511558485392 17823.21644734168
717.9270642804786 18251.043848960995
718.9027268442787 18756.71394257858
719.8781436147328 18746.01135675729
720.8533146666014 18752.93823741129
721.828240074612 18637.77692413996
722.8029199134635 18491.76564095253
723.7773542578125 18006.00375410925
724.751543182294 17673.491765235187
725.7254867615029 17211.21802990368
726.6991850700015 16862.669626505674
727.6726381823228 16734.474458849116
728.6458461729599 16415.35488825232
729.6188091163858 16478.980030162173
730.5915270870246 16549.32909372378
731.5640001592856 16555.899442086615
732.536228407529 16814.224693814645
733.5082119060917 17121.552460806157
734.4799507292755 17186.993309526068
735.4514449513481 17430.845716254185
736.4226946465496 17542.46248460828
737.3936998890786 17501.25837052335
738.3644607531078 17328.772564436826
739.3349773127793 17019.790930188312
740.3052496421951 16558.83499611017
741.27527781543 16179.703636712773
742.2450619065221 15709.894287711117
743.2146019894826 15242.730877856919
744.183898138288 14794.689925552802
745.1529504268801 14389.658245219285
746.1217589291682 13878.186816858963
747.0903237190341 13498.373432882905
748.058644870318 13325.071690155895
749.0267224568397 12984.93942748732
749.994556552374 12721.129041009677
750.9621472306771 12569.856909478938
751.9294945654583 12487.248401962202
752.8965986304011 12297.75200463458
753.8634594991636 12155.278340590896
754.8300772453586 12266.070504313855
755.7964519425768 11992.171692278152
756.762583664371 11973.553038365084
757.7284724842611 11943.470249103082
758.6941184757416 11850.889600011542
759.6595217122667 11903.874807810937
760.6246822672638 11814.803957977678
761.5896002141235 11601.122036330973
762.5542756262093 11718.194749523094
763.5187085768503 11722.212806456404
764.4828991393406 11678.093089234442
765.4468473869474 11614.691839671737
766.4105533929032 11596.25243297124
767.3740172304078 11538.10689270469
768.3372389726283 11464.703902905858
769.3002186926988 11447.926819918628
770.2629564637282 11471.860890498221
771.2254523587872 11376.208658914122
772.1877064509154 11365.744048017095
773.1497188131179 11246.248198614898
774.1114895183728 11117.011330740872
775.0730186396268 11176.108272440459
776.0343062497905 11100.943539552074
776.9953524217381 11120.016965929171
777.9561572283274 11168.800210385221
778.9167207423689 11068.768268463198
779.8770430366476 11049.222250068147
780.8371241839159 11046.59383802763
781.7969642568951 11025.80391432319
782.7565633282757 11238.397403857929
783.7159214707099 11029.05840813453
784.6750387568281 11158.01151100303
785.6339152592227 11020.19335116422
786.5925510504512 10872.29717844059
787.5509462030477 10969.457455420204
788.5091007895098 10996.523256617667
789.4670148823006 10994.055962303302
790.4246885538596 11066.078110953818
791.3821218765861 10883.230870103174
792.3393149228505 10831.725216272665
793.2962677649975 10946.555545404815
794.2529804753303 10886.670579895572
795.20945312613 10990.563581915816
796.1656857896378 10835.157684019676
797.1216785380675 10857.901874970656
798.0774314435985 10949.529946588049
799.0329445783846 10988.46086324015
799.9882180145414 11020.802217304488
800.9432518241574 10955.348146340946
801.89804607929 10996.282814411383
802.852600851962 10972.266158638755
803.8069162141637 10989.36524251669
804.760992237856 11041.019650408982
805.714828994971 11040.033519109846
806.6684265574077 11089.830907616415
807.6217849970271 11063.370228118916
808.574904385674 10972.942037621138
809.527784795142 10916.88291778863
810.4804262972102 11060.683686583872
811.4328289636178 10867.776669290215
812.3849928660748 10833.515783312649
813.3369180762638 10852.880487959574
814.2886046658241 10705.1716773462
815.2400527063783 10729.67665063072
816.1912622695108 10689.574191036425
817.1422334267718 10665.787735504495
818.0929662496856 10547.349604965013
819.0434608097457 10521.598418550051
819.9937171784059 10484.320092729018
820.9437354271013 10383.443425616064
821.8935156272255 10524.613128102861
822.8430578501484 10348.711733813881
823.7923621672016 10278.699639481998
824.7414286496896 10416.770860117731
825.6902573688876 10346.074991674124
826.6388483960363 10342.216485795201
827.5872018023492 10239.539663302785
828.5353176590033 10298.884550191375
829.4831960371503 10150.951284669021
830.4308370079016 10201.518696309242
831.3782406423525 10235.321327188407
832.3254070115545 10127.237207211047
833.2723361865319 10044.464728600144
834.2190282382799 10098.0117058431
835.1654832377644 10199.96309273117
836.1117012559116 10025.300115073771
837.0576823636256 10142.022159967044
838.003426631778 10019.622830363634
838.9489341312074 10029.218780023119
839.8942049327197 9991.364114855667
840.8392391070975 10066.614568566358
841.7840367250865 10013.53521092925
842.7285978573982 9991.330214463484
843.672922574724 9942.45517405753
844.6170109477152 9957.667119063306
845.560863046996 9997.985475194935
846.5044789431595 9969.453995101885
847.4478587067697 9963.583316780321
848.3910024083561 10052.362496183558
849.333910118421 9933.316757856368
850.2765819074339 9808.057039404599
851.2190178458332 10035.264931015376
852.161218004032 9936.740722761071
853.1031824524016 9946.122034573656
854.0449112612987 9963.622343495996
854.9864045010327 9928.730472884712
855.9276622418947 9880.445089815716
856.8686845541379 10003.83019710382
857.8094715079915 10003.28218560743
858.7500231736467 10034.070599361556
859.690339621271 10002.652227091507
860.6304209209939 9979.217387580653
861.5702671429244 9830.791200358606
862.5098783571284 9959.768723808296
863.4492546336569 9931.415841286089
864.3883960425155 9899.033793631874
865.3273026536863 9902.126132759087
866.2659745371238 9772.68764789978
867.2044117627465 9938.748772432013
868.1426144004472 9875.980550071577
869.0805825200823 9976.790507953894
870.0183161914847 9964.262919963377
870.9558154844526 9982.570862778866
871.8930804687552 9923.241345134144
872.8301112141307 9892.848743628514
873.7669077902865 10098.775724407089
874.7034702669062 10125.166209265346
875.6397987136315 9960.938990467032
876.5758932000863 10030.922906646738
877.5117537958522 10075.359042593975
878.4473805704911 10108.369926511332
879.3827735935283 10074.721361879605
880.3179329344603 10146.317958606973
881.2528586627541 10278.376609672041
882.1875508478479 10238.744410164669
883.1220095591489 10134.346937045113
884.0562348660296 10109.82046337399
884.9902268378391 10105.307129628864
885.9239855438955 10082.333220203389
886.8575110534839 9882.781805175451
887.7908034358588 9979.803137595394
888.7238627602474 9901.082598210585
889.6566890958475 9962.675572132544
890.5892825118208 9797.5013556324
891.5216430773125 9839.568159639854
892.4537708614189 9763.124737441756
893.3856659332196 9724.137665973178
894.3173283617652 9635.516168180646
895.2487582160684 9778.713473693333
896.179955565116 9740.453474634669
897.110920477864 9551.790173127123
898.0416530232451 9588.580745582574
898.9721532701478 9516.2172768786
899.9024212874428 9624.715214449308
900.8324571439662 9515.12716251353
901.7622609085302 9512.068998682455
902.6918326499072 9510.952889367702
903.6211724368477 9513.932018148214
904.5502803380696 9521.579666765374
905.4791564222614 9635.093972143424
906.4078007580792 9575.894496706936
907.3362134141571 9522.234492392117
908.2643944590909 9588.980684587616
909.1923439614493 9532.886548567822
910.1200619897754 9565.9653224239
911.0475486125779 9586.291904268615
911.9748038983344 9598.84327442295
912.9018279155007 9552.620799016357
913.8286207324982 9486.08262449598
914.7551824177117 9664.521333139008
915.6815130395116 9559.74495646045
916.6076126662283 9506.109005875998
917.533481366163 9512.865750047247
918.4591192075914 9476.01761826875
919.3845262587565 9492.482562962892
920.3097025878706 9479.452255895803
921.2346482631237 9363.461922714105
922.1593633526682 9401.534838736483
923.0838479246304 9300.1133880136
924.0081020471061 9438.834997204855
924.9321257881656 9215.551674679833
925.8559192158464 9333.902278659523
926.7794823981512 9111.940442479854
927.7028154030686 9201.128405141713
928.6259182985414 9152.482175641104
929.5487911524906 9228.171234531277
930.4714340328119 9218.621589451754
931.3938470073608 9074.798862951624
932.3160301439748 9059.77096082306
933.2379835104548 9052.238900866194
934.1597071745709 9143.959874471522
935.0812012040769 9188.82299355638
936.002465666681 9191.608623868993
936.9235006300696 9213.992213566311
937.8443061619055 9160.386737266484
938.7648823298077 8997.796566167366
939.6852292013809 9114.619932169535
940.6053468441951 9219.467888851688
941.5252353257874 9051.29132343205
942.4448947136698 9192.03081138694
943.364325075323 9189.75312649882
944.2835264782043 9135.929219776935
945.2024989897309 9140.136002273375
946.1212426773054 9261.7084952494
947.0397576082851 9313.08347396652
947.9580438500125 9371.361355543148
948.8761014697939 9313.972599720844
949.7939305349064 9443.618855398956
950.7115311125999 9296.6643066771
951.6289032700952 9461.65268407118
952.5460470745875 9485.936990039198
953.4629625932339 9404.0058870235
954.3796498931715 9545.336489792408
955.2961090415029 9525.496753659045
956.2123401053068 9502.604097849295
957.1283431516276 9543.102642574257
958.0441182474842 9427.005968076497
958.9596654598663 9596.355887514246
959.8749848557309 9388.136347338226
960.7900765020167 9320.427258453394
961.7049404656209 9231.746005733563
962.6195768134185 9359.744315965887
963.5339856122537 9263.427515133477
964.4481669289453 9279.378391602459
965.3621208302793 9067.321918553953
966.2758473830145 9105.571927762052
967.1893466538822 9160.712507686625
968.1026187095813 9167.697209248006
969.0156636167867 9041.196344091708
969.9284814421426 9127.377078718087
970.8410722522622 8928.542846203996
971.753436113735 9003.224475838375
972.6655730931161 8973.04596566942
973.5774832569368 8935.860549694478
974.4891666716958 8846.31613623496
975.4006234038698 8830.49471749757
976.3118535198955 8831.527754605933
977.2228570861935 8891.449366288798
978.1336341691494 8864.981985992552
979.0441848351202 8726.706049096058
979.9545091504333 8824.679298992185
980.864607181391 8844.22929335804
981.7744789942699 8734.906473833082
982.6841246553086 8879.326019472348
983.5935442307236 8843.500144404006
984.5027377867027 8797.443297804119
985.4117053894024 8718.929653144407
986.3204471049557 8777.885634695514
987.2289629994648 8717.35739465968
988.1372531390007 8963.128276245396
989.0453175896091 8865.149413669553
989.9531564173067 8850.393302399658
990.860769688079 8712.629543344967
991.7681574678918 8802.789411243988
992.6753198226706 8851.111486883845
993.582256818323 8750.888123079632
994.4889685207218 8797.734804668424
995.3954549957143 8951.82086404469
996.301716309119 8821.942031196348
997.2077525267232 8977.664652168805
998.1135637142943 8878.45792263418
999.0191499375615 8945.79840476949
999.924511262232 8816.623421567003
1000.8296477539861 8915.573425273353
1001.7345594784656 8836.112866380314
1002.6392465012996 8794.358963335513
1003.5437088880753 8745.233357593806
1004.4479467043584 8906.49992770889
1005.3519600156869 8633.149493441344
1006.2557488875718 8695.127709798098
1007.1593133854858 8692.653366413664
1008.0626535748888 8678.203455882884
1008.9657695212009 8551.987239429793
1009.8686612898182 8678.294135850034
1010.7713289461135 8653.346117410252
1011.6737725554212 8599.876609644023
1012.5759921830577 8580.913393823004
1013.4779878943027 8641.687434612704
1014.379759754418 8615.632333431264
1015.2813078286254 8551.264308073125
1016.18263218213 8422.825249539808
1017.0837328801026 8568.464661247068
1017.9846099876886 8495.881986990538
1018.8852635700023 8478.562741782793
1019.7856936921362 8299.21512883924
1020.6859004191447 8536.938861900826
1021.5858838160675 8379.249291547318
1022.4856439479063 8394.772939840619
1023.3851808796389 8334.79834111299
1024.2844946762143 8446.113314604512
1025.183585402554 8285.938317350681
1026.082453123554 8254.181349967035
1026.9810979040776 8365.518540197018
1027.8795198089647 8281.749001923967
1028.777718903024 8323.895988331711
1029.6756952510368 8319.859446125729
1030.5734489177648 8226.519497479767
1031.4709799679313 8227.814195969991
1032.3682884662358 8336.457280722221
1033.2653744773506 8140.708366140842
1034.1622380659192 8228.153485042796
1035.058879296559 8341.863083367785
1035.9552982338591 8341.356977611878
1036.8514949423825 8334.69315447475
1037.7474694866614 8353.072738824796
1038.6432219312028 8235.967060656574
1039.5387523404825 8397.820557597232
1040.4340607789582 8320.389134244877
1041.3291473110476 8421.44756793447
1042.2240120011465 8389.20384199376
1043.1186549136273 8521.80357981313
1044.0130761128294 8442.644346365862
1044.9072756630649 8523.142286427064
1045.8012536286205 8413.08766662129
1046.6950100737577 8520.513312560437
1047.588545062701 8654.137123489496
1048.481858659663 8527.15750710976
1049.3749509288118 8671.476558456321
1050.2678219343034 8621.611839624402
1051.1604717402515 8624.027481363602
1052.0529004107575 8500.161674334828
1052.9451080098825 8665.234738653187
1053.8370946016694 8573.099325090325
1054.7288602501267 8655.138221018478
1055.6204050192446 8538.961541086832
1056.511728972977 8534.342638160197
1057.402832175254 8385.249614287804
1058.2937146899785 8421.350938355821
1059.1843765810263 8491.39767716297
1060.0748179122456 8455.409670876496
1060.9650387474576 8450.004033246547
1061.855039150456 8409.284490008833
1062.7448191850071 8364.151600058987
1063.6343789148505 8329.307682522176
1064.5237184037014 8512.086228497345
1065.412837715241 8403.959943571901
1066.3017369131267 8297.962774682721
1067.190416060992 8360.669931410364
1068.0788752224398 8343.085158653488
1068.9671144610438 8206.520800684757
1069.8551338403558 8404.326178296285
1070.7429334239023 8453.017854191543
1071.6305132751695 8191.740550037508
1072.517873457633 8472.35705073566
1073.4050140347335 8337.18254671616
1074.2919350698776 8386.002775616884
1075.1786366264623 8371.13426018268
1076.0651187678395 8363.531129859839
1076.95138155735 8339.416265418555
1077.8374250582929 8359.432763423993
1078.7232493339507 8401.866717337463
1079.608854447577 8464.477126437101
1080.4942404623907 8504.463229059136
1081.3794074415982 8535.501367858236
1082.2643554483657 8725.329060238913
1083.149084545841 8686.851010514669
1084.033594797138 8560.557347135697
1084.9178862653516 8888.273585376995
1085.8019590135427 8980.81684177518
1086.6858131047484 8830.935561803086
1087.5694486019802 9098.993971805834
1088.4528655682225 9087.553967672156
1089.3360640664287 9217.629575510866
1090.2190441595321 9197.655795163742
1091.1018059104317 9299.768340897424
1091.98434938201 9339.390424252642
1092.866674637111 9334.206731243348
1093.748781738559 9248.755589110071
1094.6306707491512 9177.658327079496
1095.5123417316554 9291.4660974806
1096.3937947488157 9173.834434406332
1097.2750298633455 9179.148429790686
1098.156047137938 9074.796687163933
1099.0368466352556 9106.692447998623
1099.9174284179317 9196.678849068227
1100.7977925485757 8940.84278362037
1101.6779390897755 8903.514316745222
1102.5578681040806 8823.984460745754
1103.4375796540226 8769.276391983662
1104.3170738021054 8668.461084723353
1105.1963506108077 8436.371541938826
1106.0754101425773 8418.210068850218
1106.9542524598382 8509.925291354743
1107.8328776249855 8364.720882121423
1108.7112857003904 8187.5021633607785
1109.5894767483987 8144.351449776783
1110.4674508313292 8280.339024818515
1111.3452080114657 8179.849157402078
1112.2227483510815 8140.941625302487
1113.1000719124077 8263.457877406503
1113.9771787576592 8079.343384483282
1114.854068949022 8116.083148086977
1115.7307425486542 8217.01615601224
1116.6071996186893 8045.226164231099
1117.483440221229 8187.043520502148
1118.3594644183577 8206.551736389685
1119.235272272128 8258.244239642398
1120.1108638445658 8237.18136018014
1120.9862391976712 8419.596376267322
1121.8613983934229 8421.597351477096
1122.7363414937627 8390.029852713382
1123.6110685606182 8450.778232588647
1124.485579655884 8410.996469171709
1125.359874841426 8457.383187367024
1126.2339541790916 8484.138567695842
1127.1078177306936 8667.652231436083
1127.9814655580267 8511.350495290579
1128.854897722851 8579.760097080056
1129.7281142869106 8529.921746503183
1130.6011153119125 8508.971092041455
1131.473900859548 8637.321863450987
1132.3464709914697 8490.94503048864
1133.2188257693178 8544.982143736412
1134.0909652546961 8470.611741981262
1134.96288950919 8234.047502275502
1135.8345985943506 8367.708384702957
1136.7060925717087 8220.744924058588
1137.57737150277 8204.296737390712
1138.4484354490069 8160.086128832273
1139.3192844718778 8226.831071968885
1140.1899186327992 8015.7139051135355
1141.060337993178 8234.035428568084
1141.930542614382 8041.162862549243
1142.8005325577597 7979.7383104158125
1143.670307884635 7755.5832316208525
1144.5398686563003 7855.75547158794
1145.409214934025 7790.969557945724
1146.2783467790541 7656.214442722339
1147.1472642526023 7727.756723021028
1148.0159674158622 7869.110072822225
1148.8844563300026 7750.987724529679
1149.7527310561618 7641.895114161402
1150.6207916554504 7625.202844522146
1151.4886381889592 7516.078762374344
1152.3562707177498 7638.086774870468
1153.2236893028585 7656.322528992094
1154.090894005296 7519.714011040514
1154.9578848860474 7614.88235230109
1155.8246620060709 7512.4193494717765
1156.6912254262988 7483.290577195786
1157.5575752076438 7607.217635827254
1158.42371141098 7654.8211110893435
1159.2896340971656 7683.103327155475
1160.1553433270346 7606.544131751363
1161.0208391613887 7615.945056777395
1161.8861216610057 7493.163271007006
1162.75119088664 7530.338780252027
1163.6160468990201 7567.190599473084
1164.4806897588442 7435.139084563998
1165.3451195267917 7582.262510315432
1166.2093362635114 7542.578757147043
1167.0733400296285 7565.034642380715
1167.9371308857444 7504.099424347051
1168.8007088924278 7559.248888146297
1169.6640741102328 7526.375809750692
1170.5272265996773 7437.091166872582
1171.390166421259 7282.712886181318
1172.252893635452 7528.075769698153
1173.1154083026995 7645.731885358646
1173.977710483421 7655.020678819579
1174.8398002380145 7446.0575759234835
1175.7016776268483 7715.725716818927
1176.563342710264 7531.170891074961
1177.4247955485826 7573.6708008678925
1178.2860362020947 7648.835318155638
1179.147064731069 7422.471121851189
1180.0078811957483 7663.687277915097
1180.8684856563486 7598.135813464285
1181.7288781730604 7542.619250950786
1182.589058806052 7664.729340958327
1183.4490276154593 7761.253614840146
1184.3087846614017 7516.4265695515005
1185.1683300039676 7739.019566319061
1186.027663703222 7827.258005679207
1186.8867858192025 7751.311743089032
1187.7456964119228 7793.340235936388
1188.6043955413716 7872.773297487899
1189.4628832675116 7910.972748669146
1190.3211596502842 7921.4767892937625
1191.179224749596 7973.293678697807
1192.0370786253388 7789.1265825173905
1192.8947213373758 7998.0441547694845
1193.7521529455407 8188.369164160574
1194.6093735096438 7984.916751215451
1195.466383089477 8023.574550752921
1196.3231817447977 7896.7863890243025
1197.1797695353398 8125.930885037165
1198.0361465208189 8056.926838787292
1198.8923127609214 7998.421640010032
1199.7482683153048 8056.037583915272
1200.6040132436028 8159.937484304415
1201.459547605431 7884.3465337109055
1202.3148714603722 8039.778981116317
1203.1699848679855 8050.864510324679
1204.0248878878065 8059.006374475752
1204.8795805793507 7773.999114839617
1205.7340630020935 7915.718354927308
1206.5883352155033 8032.109407082246
1207.4423972790064 7760.446135358996
1208.2962492520237 7790.79890591319
1209.1498911939307 7804.464239008246
1210.0033231640937 7816.958289059922
1210.8565452218427 7761.630948691917
1211.7095574264913 7518.424909730498
1212.5623598373222 7534.123547845532
1213.4149525135963 7478.160781673505
1214.2673355145507 7561.683780587086
1215.1195088993936 7477.943809547095
1215.9714727273113 7385.7875674176585
1216.8232270574663 7622.0335153732885
1217.6747719489904 7338.071433697705
1218.5261074609934 7446.207571683716
1219.3772336525653 7490.461129912206
1220.2281505827668 7543.672119942914
1221.0788583106296 7420.508718537749
1221.9293568951707 7314.133997230281
1222.7796463953746 7197.453551984191
1223.629726870202 7358.270518895508
1224.4795983785934 7303.845519376536
1225.3292609794553 7281.713174032406
1226.1787147316809 7201.879363033823
1227.0279596941327 7280.862026495849
1227.8769959256424 7261.184686734514
1228.7258234850306 7325.178608880055
1229.5744424310833 7176.9684422064065
1230.422852822563 7250.994736668268
1231.2710547182105 7292.2215778728305
1232.119048176739 7260.378338859651
1232.9668332568417 7086.55775104965
1233.8144100171812 7189.261875430564
1234.6617785163999 7298.055535799436
1235.508938813111 7055.072416571204
1236.3558909659114 7104.76217877996
1237.2026350333617 7258.100300164039
1238.049171074008 7225.23877043713
1238.8954991463652 7127.81930329971
1239.741619308932 7191.960756255295
1240.587531620169 8319.217991162204
1241.4332361385277 7190.887871054717
1242.2787329224248 7108.3298269019015
1243.1240220302534 7146.387875864455
1243.9691035203869 7061.6804938497025
1244.813977451171 7257.0004254561845
1245.6586438809263 7249.892551418629
1246.5031028679496 7026.991778355843
1247.3473544705157 7253.924914687137
1248.1913987468706 7300.39317034362
1249.0352357552383 7022.762620870271
1249.8788655538228 7216.252450357146
1250.7222882007918 7315.9717190111605
1251.565503754302 7310.495207507219
1252.4085122724755 7092.079417087471
1253.2513138134182 7352.375921165149
1254.0939084352049 7378.478630779151
1254.9362961958905 7344.699104212603
1255.7784771535007 7480.669467539768
1256.6204513660432 7377.597816787091
1257.4622188915 7507.824279967475
1258.3037797878242 7523.1001379097725
1259.1451341129468 7437.09515843174
1259.9862819247755 7582.7119653377085
1260.8272232811978 7482.400786060876
1261.6679582400666 7580.892374583879
1262.5084868592203 7465.615329545234
1263.34880919647 7524.08162980288
1264.1889253095997 7654.462588078497
1265.0288352563712 7604.328456045111
1265.8685390945266 7624.309038127778
1266.7080368817751 7694.093450929647
1267.5473286758115 7713.786099920833
1268.386414534294 7836.400711166336
1269.2252945148703 7335.032218854676
1270.0639686751547 7689.008329788473
1270.9024370727402 7647.179823971404
1271.7406997651997 7680.779774386976
1272.5787568100714 7601.879050427769
1273.4166082648808 7591.553052269372
1274.2542541871244 7509.858735481558
1275.091694634275 7723.491381473888
1275.9289296637817 7511.24318088895
1276.7659593330663 7627.335324844949
1277.6027836995308 7580.754220605278
1278.4394028205552 7637.228766964152
1279.2758167534867 7655.733327308747
1280.112025555658 7658.570629597375
1280.9480292843746 7544.830871478877
1281.7838279969128 7475.498176481478
1282.6194217505326 7572.785496535321
1283.4548106024686 7428.395720182943
1284.289994609926 7596.974467863349
1285.1249738300921 7637.245567742789
1285.959748320127 7505.446827676016
1286.7943181371702 7626.554588551403
1287.6286833383328 7657.55121912408
1288.4628439807038 7725.3662370283255
1289.2968001213521 7648.77571307518
1290.1305518173194 7616.09422837384
1290.9640991256183 7811.0068813066155
1291.7974421032523 7730.030221869473
1292.630580807183 7743.212329715439
1293.463515294361 7925.174380178566
1294.29624562171 8129.585796453475
1295.12877184613 7871.750192398935
1295.961094024493 7980.689500328255
1296.79321221365 8061.152977947949
1297.6251264704333 8262.930181751188
1298.4568368516466 8339.330797143863
1299.2883434140658 8352.985424759027
1300.1196462144526 8248.164397044748
1300.9507453095375 8552.733086158383
1301.7816407560313 8466.415212571625
1302.6123326106172 8566.976037416807
1303.4428209299622 8465.644603628765
1304.2731057707024 8777.183488430872
1305.1031871894502 8657.83720781696
1305.933065242798 8724.38196236984
1306.7627399873181 8644.002752232645
1307.5922114795467 9004.444846528737
1308.4214797760123 9012.937552888843
1309.2505449332057 8963.586426933034
1310.0794070076026 8865.287493821656
1310.9080660556538 8991.903981421132
1311.736522133786 9020.02379056517
1312.5647752983987 9014.77882508035
1313.3928256058734 8984.698264881143
1314.2206731125661 9045.068594133834
1315.048317874809 9239.957316805341
1315.8757599489109 9151.872840181628
1316.7029993911547 9216.02250628959
1317.5300362578055 9349.497928910003
1318.356870605101 9144.303895410163
1319.183502489257 9340.368196680556
1320.0099319664623 9290.512264272571
1320.836159092889 9418.076492173997
1321.66218392468 9440.203125396005
1322.4880065179532 9319.630061710512
1323.3136269288134 9289.46714243013
1324.1390452133292 9480.011655603223
1324.9642614275563 9427.389361363144
1325.7892756275214 9179.663677351793
1326.6140878692295 9094.935651389973
1327.4386982086617 9323.99807717112
1328.2631067017755 9123.262688412413
1329.0873134045069 9039.781919354093
1329.911318372764 8912.215988898506
1330.735121662441 8732.83463248934
1331.558723329399 8807.79250081867
1332.3821234294774 8518.229571000262
1333.2053220185007 8640.287290973809
1334.0283191522612 8420.763064717554
1334.851114886529 8369.86785717427
1335.6737092770582 8184.975317982811
1336.4961023795695 8190.167686419378
1337.3182942497697 8083.500166722952
1338.1402849433325 7900.234432731942
1338.962074515921 7835.903163401132
1339.7836630231632 7731.457764545109
1340.6050505206676 8003.498676444944
1341.426237064028 7856.394569421878
1342.2472227088037 7600.613127295439
1343.0680075105338 7417.328784325337
1343.888591524741 7550.8849465547955
1344.7089748069138 7526.191119792699
1345.5291574125276 7496.781006065052
1346.3491393970307 7261.435910431898
1347.168920815846 7473.5663518263445
1347.9885017243778 7335.911698797398
1348.8078821780036 7271.249373584385
1349.6270622320844 7327.572668844108
1350.4460419419447 7026.819115382828
1351.2648213629054 7204.252296864603
1352.0834005502438 7038.938469241177
1352.90177955923 7116.011911313869
1353.7199584451064 7134.322403389355
1354.5379372630887 7140.809891718638
1355.355716068374 7095.24016899309
1356.1732949161305 6946.233485757612
1356.9906738615155 7074.773333682948
1357.8078529596478 6964.757921478085
1358.6248322656375 7082.480682102212
1359.441611834567 7006.308923157443
1360.2581917214866 7005.309763606342
1361.0745719814367 6948.061147494091
1361.890752669433 6960.742963125873
1362.7067338404577 6943.284000565046
1363.5225155494845 6955.176591844934
1364.3380978514506 7003.852337164522
1365.1534808012839 6823.469701284889
1365.9686644538815 6716.133338863471
1366.783648864117 6982.875868027551
1367.5984340868417 6948.267410236549
1368.413020176893 6855.567204252501
1369.2274071890715 6784.766181621
1370.0415951781652 6783.178952336255
1370.8555841989346 6842.95208274453
1371.6693743061223 6764.75658413558
1372.48296555444 6654.300084469674
1373.2963579985844 6887.5805333860235
1374.1095516932255 6820.550420885299
1374.9225466930166 6619.622631609719
1375.7353430525782 6790.3150736692405
1376.5479408265164 6674.66471467187
1377.36034006941 6770.954013867709
1378.1725408358216 6747.182811003191
1378.9845431802805 6637.8602133924815
1379.796347157304 6953.190221637048
1380.6079528213813 6715.382704347883
1381.4193602269788 6731.698904716157
1382.230569428546 6674.590519197093
1383.0415804805016 6609.904131339596
1383.852393437246 6744.181164441639
1384.6630083531563 6878.625661947895
1385.4734252825892 6798.827051391997
1386.2836442798798 6912.370896904156
1387.0936653993322 6868.342483369951
1387.9034886952395 6879.023767779778
1388.713114221864 7003.691816483326
1389.5225420334482 6881.125745169009
1390.331772184214 6911.895218951928
1391.1408047283585 6785.699022356636
1391.9496397200564 6834.030904429434
1392.758277213461 7058.226459600209
1393.5667172627054 7041.180229855617
1394.3749599218918 6880.869443720838
1395.1830052451114 6739.75565995159
1395.9908532864265 6940.554084279208
1396.7985040998774 7008.424176294984
1397.6059577394808 6813.489197393859
1398.4132142592352 6881.406144924545
1399.2202737131156 6882.412540468904
1400.027136155073 6913.505127451853
1400.8338016390353 6850.281514556297
1401.6402702189134 6812.538622098611
1402.446541948586 6838.9323189898905
1403.2526168819204 6798.793160527506
1404.058495072757 6775.0080513153425
1404.8641765749107 6798.414796527725
1405.6696614421799 6827.013443053473
1406.4749497283356 6908.534289709653
1407.280041487129 6751.705320664504
1408.084936772295 6542.481597512846
1408.8896356375335 6815.8200027038165
1409.6941381365323 6692.400695744038
1410.498444322955 6606.542081317125
1411.3025542504402 6763.411480693047
1412.106467972606 6662.907023721942
1412.9101855430508 6646.3893487772875
1413.7137070153458 6542.011527103433
1414.5170324430437 6685.03279675551
1415.320161879672 6845.315827712695
1416.1230953787435 6902.069440702372
1416.925832993742 6603.31395271145
1417.7283747781275 6608.038767130051
1418.5307207853439 6649.611541916832
1419.3328710688093 6814.549343842991
1420.134825681922 6580.107189213317
1420.9365846780584 6788.8687318635175
1421.7381481105713 6907.407626625623
1422.539516032788 6890.00893235892
1423.3406884980232 6793.422654869016
1424.1416655595604 6832.642222220011
1424.942447270665 6832.4779964148165
1425.7430336845828 7072.654664310343
1426.5434248545298 7003.339392949056
1427.3436208337116 7179.096986392282
1428.143621675301 7353.979371081767
1428.9434274324558 7418.250196994124
1429.7430381583108 7209.58335261723
1430.5424539059713 7456.308283464018
1431.3416747285337 7708.147243025183
1432.1407006790632 7499.892202112239
1432.9395318106053 7521.501947225317
1433.7381681761835 7456.834047867749
1434.5366098288014 7632.229408853268
1435.3348568214424 7584.041833635643
1436.1329092070573 7579.616569783118
1436.9307670385879 7731.232342374695
1437.7284303689503 7764.113117176617
1438.5258992510335 7842.505849832518
1439.3231737377118 7720.9306170092295
1440.1202538818306 7655.079684420717
1440.9171397362225 7584.293283137461
1441.7138313536925 7484.557126348588
1442.5103287870243 7603.109106820348
1443.3066320889775 7444.547725215636
1444.1027413122956 7699.77887291012
1444.8986565096966 7517.156302582897
1445.694377733882 7423.716985431769
1446.4899050375207 7195.578645836492
1447.2852384732687 7237.991202451245
1448.0803780937622 7331.214657986922
1448.8753239516063 7186.30359657798
1449.6700760993954 7024.175371289176
1450.464634589689 7215.0392801012595
1451.2589994750397 7242.987344421085
1452.0531708079689 6888.019904829227
1452.8471486409799 6942.662503574429
1453.6409330265524 7008.269692467086
1454.4345240171442 6764.198588388528
1455.2279216651987 6877.082963098264
1456.0211260231263 6836.252595050813
1456.8141371433194 7004.473924449584
1457.6069550781594 6799.856051355462
1458.3995798799897 6672.732970434294
1459.1920116011424 6752.069019324068
1459.98425029393 6644.512060301725
1460.7762960106338 6617.500150693502
1461.5681488035225 6717.131580593161
1462.3598087248392 6613.032249644451
1463.1512758268036 6721.833536854519
1463.942550161617 6311.386829454274
1464.7336317814625 6452.073843965423
1465.524520738496 6588.281760313641
1466.3152170848552 6214.853011896375
1467.1057208726506 6277.43330293072
1467.8960321539817 6209.588281975891
1468.6861509809169 6093.456247944485
1469.4760774055085 6235.082691198068
1470.265811479785 5974.693353469336
1471.055353255755 5879.029846659958
1471.844702785409 6052.227620449934
1472.6338601207044 5852.529144851414
1473.4228253135934 5991.421692323136
1474.2115984159936 5901.809461560388
1475.0001794798063 5638.608285525446
1475.7885685569145 5746.992946388753
1476.576765699172 5708.7358913438275
1477.3647709584238 5757.076796964104
1478.1525843864802 5736.476537831952
1478.9402060351367 5715.61863329494
1479.7276359561693 5714.462525605358
1480.514874201328 5674.620178917795
1481.3019208223468 5551.18407263277
1482.0887758709323 5376.074315593554
1482.8754393987747 5605.060941311065
1483.6619114575406 5436.309005744755
1484.4481920988783 5584.6729538992595
1485.2342813744108 5389.975454410234
1486.0201793357446 5591.532545343851
1486.8058860344572 5501.866750518058
1487.591401522117 5497.056831911668
1488.3767258502594 5463.8662069165575
1489.1618590704056 5294.68674232924
1489.9468012340494 5278.056363361185
1490.7315523926754 5517.084852395885
1491.5161125977356 5492.7277178648565
1492.3004819006637 5364.017656154474
1493.084660352877 5423.910705214818
1493.8686480057622 5554.735089470232
1494.6524449106964 5470.887392653656
1495.4360511190262 5574.322537376105
1496.219466682087 5551.863497304875
1497.0026916511779 5576.572966944782
1497.7857260775945 5494.877079355315
1498.5685700125996 5456.14826421035
1499.3512235074395 5356.935572075998
1500.133686613337 5335.511737943341
1500.9159593814966 5305.17453170302
1501.698041863101 5642.572528147265
1502.4799341093094 5322.355452142072
1503.2616361712662 5234.9691426609825
1504.043148100087 5461.526437853865
1504.8244699468742 5428.913206757685
1505.6056017626997 5282.7903117902315
1506.3865435986281 5232.513268367009
1507.1672955056893 5398.348298343185
1507.9478575348967 5403.402686263737
1508.7282297372512 5651.5007292462815
1509.5084121637192 5508.373118354138
1510.2884048652577 5413.104581275559
1511.0682078927948 5373.527867976265
1511.8478212972423 5402.476961652677
1512.6272451294917 5338.55357609074
1513.4064794404076 5528.514539251816
1514.1855242808433 5412.504342194012
1514.9643797016215 5526.528338335319
1515.743045753552 5594.343011692721
1516.5215224874191 5432.934596086943
1517.2998099539836 5409.823765398559
1518.077908203999 5463.211955998606
1518.8558172881785 5553.0334951317445
1519.633537257234 5607.992173350899
1520.4110681618404 5460.735669443235
1521.1884100526604 5728.795445627417
1521.9655629803365 5567.687053682067
1522.7425269954856 5835.1401491720335
1523.5193021487103 5825.617784796778
1524.2958884905856 5562.944397842943
1525.0722860716687 5618.578847595605
1525.848494942502 5613.458759654472
1526.624515153595 5684.364477007814
1527.4003467554485 5802.623833433695
1528.175989798534 5849.68655537714
1528.9514443333064 5656.1894083903335
1529.726710410203 5890.263092995369
1530.5017880796331 5664.374408191729
1531.276677391992 5669.879936892324
1532.0513783976457 5752.395483358217
1532.825891146953 5760.792730941144
1533.6002156902414 5856.164535162919
1534.3743520778207 5703.783847941977
1535.1483003599806 5744.788665733809
1535.9220605869923 5676.481767532021
1536.6956328091019 5886.311126535688
1537.4690170765407 5558.399241077038
1538.242213439511 5754.242557600568
1539.015221948208 5723.549172763616
1539.78804265279 5617.183421245531
1540.560675603405 5490.743402606595
1541.3331208501804 5692.3444714159705
1542.1053784432224 5707.189537617831
1542.8774484326168 5717.38760469105
1543.649330868422 5512.936576408776
1544.4210258006842 5585.721237790442
1545.1925332794308 5601.317528094214
1545.9638533546604 5547.295631233195
1546.7349860763552 5501.09740755645
1547.5059314944829 5636.687118345342
1548.27668965898 5506.680535751697
1549.0472606197673 5490.0491618859305
1549.817644426752 5458.357019127388
1550.5878411298072 5546.501859271857
1551.3578507787988 5451.7390375678115
1552.1276734235635 5407.080541966125
1552.8973091139233 5479.469712069311
1553.6667578996767 5562.090893187925
1554.436019830604 5544.516990423583
1555.20509495646 5571.630515693974
1555.9739833269869 5391.8432045290265
1556.7426849919011 5374.634356358196
1557.511200000903 5638.072819730956
1558.2795284036674 5582.2326156890085
1559.0476702498509 5550.816697633724
1559.8156255890954 5530.759962742975
1560.5833944710157 5760.929168493922
1561.3509769452048 5600.555136692943
1562.1183730612447 5552.298403933228
1562.8855828686865 5469.463451386177
1563.6526064170703 5752.438389294939
1564.4194437559127 5735.44120992382
1565.1860949347047 5610.100686287777
1565.9525600029283 5836.510071867522
1566.7188390100328 5892.50417341283
1567.4849320054564 5648.099328854707
1568.250839038612 5608.5541503417935
1569.0165601588997 5526.891927903273
1569.7820954156887 5751.539757714665
1570.5474448583373 5680.105658325807
1571.31260853618 5636.003032987601
1572.0775864985299 5432.89566144577
1572.8423787946813 5803.131602452888
1573.6069854739108 5704.566404191916
1574.371406585471 5891.914655426195
1575.1356421785986 5874.298743983207
1575.899692302506 5684.143394780504
1576.6635570063845 5899.744271058937
1577.4272363394157 5733.631465485668
1578.190730350747 5594.669179299538
1578.9540390895163 5723.609103689161
1579.7171626048384 5522.377542198681
1580.480100945806 5736.193116649823
1581.2428541614918 5706.748596114116
1582.0054223009538 5694.733270480764
1582.767805413223 5813.854408257843
1583.5300035473156 5818.816381714201
1584.292016752228 5792.559769916267
1585.0538450769309 5672.402376632999
1585.8154885703807 5643.642110756735
1586.5769472815136 5511.354501328377
1587.3382212592405 5682.470185653383
1588.099310552463 5747.019492442895
1588.8602152100484 5503.9684294512135
1589.6209352808564 5766.9421628822565
1590.3814708137234 5372.538725894204
1591.14182185746 5385.281909072943
1591.9019884608679 5452.617488984011
1592.6619706727215 5197.374221963388
1593.4217685417734 5471.4484098304765
1594.1813821167616 5420.142656702976
1594.9408114464022 5156.315444359432
1595.7000565793933 5329.7531740118075
1596.459117564409 5313.207693959523
1597.2179944501113 5246.470806828438
1597.9766872851324 5075.3317267740285
1598.735196118092 5413.061557420106
1599.4935209975883 5364.824575586095
1600.2516619721973 5335.374699351821
1601.0096190904787 5022.20173597523
1601.7673924009723 5120.236413894958
1602.524981952196 5044.977267622297
1603.2823877926476 5083.152087069156
1604.0396099708087 5065.210339373899
1604.7966485351371 4923.064015053538
1605.5535035340745 5109.745620557363
1606.3101750160404 5107.045820776464
1607.0666630294363 4976.73672855234
1607.822967622642 5002.402207190165
1608.5790888440224 4858.895365091111
1609.3350267419137 5066.657561197197
1610.0907813646445 5042.248982783903
1610.8463527605145 4913.13014758747
1611.601740977805 4994.5183696971
1612.356946064785 5068.437094848463
1613.1119680696902 4763.967939633265
1613.8668070407512 4979.251156326973
1614.6214630261748 4813.411100897823
1615.375936074137 4993.424570612899
1616.1302262328118 4892.486011019899
1616.8843335503425 5058.348742632106
1617.638258074854 4749.692140872739
1618.391999854457 4871.0137523657195
1619.1455589372363 5123.3707011655915
1619.8989353712623 5039.654483752897
1620.65212920458 4726.589659376982
1621.4051404852235 4931.470010633124
1622.1579692611976 4805.0055923193595
1622.9106155804966 4785.382253824323
1623.663079491087 4880.119802203794
1624.4153610409248 5053.579962882313
1625.1674602779385 4873.886818565316
1625.9193772500403 4776.061735558691
1626.6711120051277 4965.136305633854
1627.4226645910676 4860.056450614711
1628.174035055721 4829.4299084589875
1628.9252234469168 4908.114587222116
1629.676229812474 4796.704573220466
1630.4270542001905 5132.367642693311
1631.1776966578382 5047.600726741524
1631.9281572331747 4905.975552577751
1632.678435973945 4997.010442150658
1633.4285329278573 4944.847352311951
1634.1784481426203 4760.64698463228
1634.9281816659113 4840.544327907242
1635.677733545388 5004.394231858417
1636.4271038286934 4793.161513320827
1637.176292563452 5048.830785788544
1637.9252997972635 5092.5807337548085
1638.674125577716 5185.286841743659
1639.4227699523672 5207.999520039377
1640.171232968767 4893.806610921652
1640.9195146744423 5007.211366913815
1641.6676151168977 5186.702102417733
1642.4155343436178 5030.092203424834
1643.1632724020765 4981.463777757135
1643.9108293397167 4951.490659823017
1644.658205203974 4978.7922459606725
1645.4054000422566 5410.264737528805
1646.1524139019566 4969.932958738487
1646.8992468304423 5027.102177303001
1647.6458988750728 5153.255607783224
1648.3923700831765 5135.298155638859
1649.1386605020743 4989.123932498759
1649.8847701790564 5148.710392348235
1650.6306991614038 5219.050937760876
1651.3764474963682 5065.712749545348
1652.1220152311944 4823.191809236151
1652.867402413096 5254.453724795634
1653.6126090892776 4903.262751649365
1654.3576353069184 5207.239251482131
1655.1024811131829 5198.368015180427
1655.8471465552066 5112.414687382327
1656.5916316801213 5265.500485933185
1657.3359365350298 5132.591914792208
1658.0800611670165 4992.769104245805
1658.824005623148 5043.828842829321
1659.5677699504722 4942.656158457306
1660.3113541960192 5106.363650791031
1661.054758406799 4930.767625974687
1661.7979826297997 4906.419017582178
1662.5410269119966 4800.885941961709
1663.283891300338 4959.814843656638
1664.0265758417645 4862.041744907001
1664.7690805831826 5016.631913854249
1665.5114055714948 4988.8194241679685
1666.2535508535748 4977.584639805313
1666.9955164762814 4618.782721588153
1667.7373024864555 4839.021398276474
1668.478908930916 4882.515646634742
1669.220335856462 4814.224064559503
1669.9615833098778 4814.531530773678
1670.7026513379296 4748.594538216885
1671.44353998736 4728.148167842641
1672.1842493048916 4639.510551379401
1672.9247793372379 4820.408425927942
1673.6651301310812 4688.243476009825
1674.4053017330934 4770.412240847748
1675.1452941899242 4720.168106087176
1675.885107548207 4405.331460634397
1676.6247418545518 4495.813921612999
1677.3641971555535 4534.0100498154625
1678.1034734977893 4692.508960994188
1678.8425709278108 4644.8677996147135
1679.5814894921605 4792.261745776219
1680.320229237359 4519.605092304311
1681.0587902098978 4714.793227533153
1681.7971724562685 4649.422274660055
1682.5353760229264 4580.979721759629
1683.2734009563173 4518.917430614307
1684.0112473028657 4203.571325785435
1684.7489151089794 4573.683549844131
1685.4864044210462 4529.05321764005
1686.2237152854377 4217.114267750604
1686.960847748498 4464.1342028086265
1687.6978018565642 4388.156201987657
1688.434577655944 4390.523152209464
1689.1711751929379 4240.015111760822
1689.9075945138156 4394.932869240122
1690.6438356648396 4393.890852645426
1691.3798986922448 4134.548301903437
1692.1157836422499 4215.951748269648
1692.851490561059 4185.017821572385
1693.587019494853 4177.761985233885
1694.3223704897991 3947.7045625632336
1695.0575435920364 3966.719948910326
1695.792538847696 4316.346500917183
1696.527356302886 4186.93559608332
1697.2619960036936 3959.4052947891532
1697.9964579961907 3872.8478054821157
1698.730742326432 3748.9755653991224
1699.4648490404488 3892.2523857297247
1700.1987781842563 4033.568288202704
1700.9325298038548 3947.2085177650742
1701.6661039452174 4190.813908473077
1702.3995006543082 4014.4040335123013
1703.1327199770658 4077.2956601382393
1703.865761959416 3966.3288400663214
1704.598626647261 4098.800743143374
1705.3313140864866 3868.8794923247965
1706.0638243229587 3822.122292476288
1706.7961574025303 3893.310268617069
1707.528313371029 3798.559637208952
1708.260292274268 3690.205197052095
1708.9920941580403 3871.1538576021403
1709.7237190681226 3868.669668289953
1710.4551670502697 3771.930235425785
1711.18643815022 3680.071011110492
1711.9175324136959 4138.515194500849
1712.6484498863938 3654.6255364528574
1713.379190614005 3632.473463464908
1714.109754642188 3643.9522859844656
1714.8401420165883 3626.022129800087
1715.570352782839 4107.960114530691
1716.3003869865497 3671.826726910285
1717.0302446733076 3719.8847343387997
1717.7599258886876 3688.954059038069
1718.4894306782444 3912.348770284225
1719.2187590875183 3522.1371206549943
1719.9479111620203 3751.62588121917
1720.6768869472544 3623.1392657024626
1721.4056864887025 3797.712993811695
1722.1343098318284 3818.985351546578
1722.8627570220742 3673.795355970679
1723.591028104871 3566.601392074098
1724.3191231256242 3501.940635100372
1725.0470421297232 3487.3538747235157
1725.7747851625427 3619.2216729850015
1726.5023522694337 3841.318753613312
1727.2297434957363 3582.777808672717
1727.9569588867635 3280.829818058807
1728.6839984878152 3626.323835973857
1729.4108623441734 3328.761051801744
1730.1375505011038 3515.860548348263
1730.8640630038426 3499.6863197086714
1731.5903998976264 3472.64270527416
1732.316561227657 3604.9723340941455
1733.0425470391274 3340.7985775400584
1733.7683573772065 3403.2302264051823
1734.4939922870508 3512.1810517068443
1735.2194518137949 3624.330604164773
1735.9447360025606 3470.7832178119015
1736.669844898439 3520.1732236987905
1737.3947785465189 3404.576768512519
1738.1195369918605 3208.2746787914625
1738.8441202795093 3414.9371597015424
1739.5685284544943 3531.3942202687795
1740.292761561821 3480.173188781094
1741.0168196464838 3599.506380538932
1741.7407027534518 3495.910693477296
1742.464410927687 3390.6758255562345
1743.187944214118 3442.697264245375
1743.9113026576688 3358.302481469155
1744.634486303241 3364.672939256692
1745.3574951957125 3468.18420344819
1746.0803293799509 3487.4353270629717
1746.8029889008048 3311.22217858737
1747.5254738031017 3363.063219243418
1748.2477841316504 3281.515761653455
1748.969919931249 3297.1799331097513
1749.6918812466665 3157.387214650292
1750.4136681226646 3399.047640131931
1751.1352806039777 3393.994536771645
1751.856718735331 3171.784158123481
1752.5779825614281 3308.0658597251395
1753.2990721269507 3418.3266069843594
1754.0199874765676 3305.4458440700755
1754.7407286549314 3089.375143624432
1755.4612957066693 3300.215270917176
1756.1816886763954 3223.014502524958
1756.9019076087097 3368.0730709788377
1757.6219525481865 3318.975391377782
1758.3418235393856 3206.0174928365077
1759.061520626854 3267.2797544271084
1759.7810438551096 3483.5240570222195
1760.5003932686614 3190.3517212878264
1761.2195689119999 3321.196725475541
1761.938570829594 3411.483985353957
1762.657399065898 3249.280255151412
1763.376053665348 3178.2320320821814
1764.0945346723602 3093.9804099821686
1764.812842131334 3279.675579456205
1765.5309760866512 3184.8088210790384
1766.2489365826787 3127.0032658565633
1766.9667236637597 3127.6140273983424
1767.684337374223 3203.3760362807693
1768.401777758383 3048.61565282571
1769.1190448605284 3119.157717758848
1769.836138724937 3126.5794276522
1770.5530593958665 3285.5611235541583
1771.2698069175603 3268.6484293018116
1771.9863813342326 3211.8956332729053
1772.702782690094 3114.2825633545576
1773.4190110293293 3318.9284656077625
1774.1350663961111 3248.6390648404604
1774.8509488345844 3113.309309778889
1775.5666583888924 3186.731434569611
1776.2821951031437 3283.2693066626116
1776.9975590214362 3216.749794472178
1777.7127501878585 3327.012736688019
1778.4277686464684 3219.7501613063637
1779.1426144413108 3235.124670686098
1779.8572876164162 3230.6774033252477
1780.571788215797 3069.877691010748
1781.2861162834415 3311.5143437640604
1782.0002718633277 3266.5478519016615
1782.7142549994132 3223.892793769613
1783.4280657356376 3218.9177281646316
1784.141704115922 3121.7745976482875
1784.855170184177 3018.5911719905425
1785.5684639842839 3101.6818628530696
1786.2815855601148 2945.440970229014
1786.9945349555237 3113.4085667147488
1787.707312214343 2898.7380369453886
1788.4199173803918 3306.2979344994296
1789.132350497468 2988.0904259945464
1789.8446116093583 3158.3223552668055
1790.556700759822 3069.8546210479553
1791.2686179926077 3133.4792567930413
1791.9803633514493 3190.7848338040503
1792.6919368800554 3007.6019791893823
1793.4033386221236 3260.7356749850956
1794.1145686213295 3240.5442750871325
1794.8256269213307 3243.1601015806446
1795.536513565774 3108.1478794483965
1796.247228598284 2887.574104378607
1796.9577720624693 3044.0506154935556
1797.6681440019165 3218.882321615673
1798.3783444602013 2958.1007420484457
1799.0883734808776 3096.751304558594
1799.7982311074884 3150.6224125898143
1800.5079173835475 3167.287704988687
1801.2174323525633 3089.702291611803
1801.9267760580187 3098.538529489112
1802.635948543386 3091.5373226530323
1803.3449498521113 2919.034628061672
1804.0537800276325 3158.3222307305764
1804.7624391133668 3093.2054109329656
1805.47092715271 2824.2346135456396
1806.1792441890484 3010.9466724826248
1806.8873902657433 3051.981000651773
1807.5953654261448 2996.019077848881
1808.3031697135812 3013.958629076874
1809.0108031713662 3060.181015132578
1809.71826584279 3049.828872593536
1810.425557771141 2978.578026015369
1811.1326789996747 3300.2471123921905
1811.839629571632 2955.349830789825
1812.5464095302468 2927.633929933241
1813.2530189187182 3030.739507832703
1813.959457780249 2978.614900863355
1814.6657261580076 3141.8240069672756
1815.371824095153 3029.54175096559
1816.0777516348262 3099.4011116635766
1816.78350882015 2754.73249654661
1817.4890956942272 2891.6369862957354
1818.1945123001533 3013.7121471624932
1818.8997586809928 3076.5232366850223
1819.6048348798067 2965.138902331881
1820.3097409396287 2961.718771043361
1821.0144769034796 3135.162872785987
1821.7190428143622 2912.5437599589723
1822.423438715261 3172.253644892757
1823.1276646491478 2909.654107038719
1823.8317206589727 3089.4189597154987
1824.5356067876692 2949.0482876463643
1825.2393230781581 2927.03260807237
1825.942869573335 2843.6041242232072
1826.646246316086 2958.558070797607
1827.3494533492758 2929.784688380537
1828.052490715756 3015.4444399656268
1828.7553584583547 3097.0134042143327
1829.458056619891 3043.217834508812
1830.1605852431585 2946.5650588467897
1830.8629443709433 2901.3457217338664
1831.5651340460063 2839.381158785254
1832.2671543110919 2704.1805175965897
1832.9690052089318 3044.6954439438214
1833.6706867822395 2723.341291737832
1834.3721990737104 3058.0281495593053
1835.0735421260233 3011.580668827338
1835.774715981841 2904.648079315696
1836.4757206838058 2909.09542078201
1837.1765562745459 2931.302004288157
1837.8772227966747 2756.4052191757173
1838.5777202927839 2981.0895960497996
1839.2780488054523 2822.4473270247227
1839.9782083772352 2832.0578539155067
1840.6781990506806 2924.1666190350034
1841.378020868313 2784.1650631930825
1842.0776738726418 2985.043323176551
1842.777158106157 2849.731863611306
1843.4764736113375 2800.9551508225786
1844.1756204306403 3013.023894672908
1844.8745986065078 2770.227845351862
1845.5734081813607 2678.557656123735
1846.2720491976124 2798.0716189924774
1846.970521697649 2715.11006703085
1847.6688257238511 2978.468197699946
1848.3669613185684 2932.7208520232334
1849.0649285241452 2672.9644978535007
1849.7627273829057 2992.4610537012986
1850.460357937156 2775.7979795878414
1851.1578202291857 2543.489707748996
1851.8551143012664 2786.3250926395613
1852.5522401956569 2833.3385670407165
1853.2491979545957 3035.070151637681
1853.9459876203055 2687.9680158319165
1854.6426092349902 2609.0372180362797
1855.3390628408451 2741.6047901323705
1856.0353484800362 3016.0943790355773
1856.7314661947203 2859.4791174354223
1857.4274160270397 2770.9752762990147
1858.123198019115 2710.9094636510385
1858.8188122130487 2745.0790336254418
1859.5142586509319 2742.0403108538803
1860.209537374838 2634.962643291533
1860.9046484268183 2762.767249960156
1861.599591848917 2845.5903641551226
1862.294367683151 2629.6539356358917
1862.988975971528 2827.177496668509
1863.6834167560355 2628.2299451988856
1864.3776900786452 2894.7598467183225
1865.0717959813119 2721.6899405994814
1865.7657345059724 2732.3705213947687
1866.4595056945564 3040.6616711377715
1867.1531095889586 2764.486161627918
1867.846546231076 2558.753688890868
1868.5398156627743 2956.266194513012
1869.2329179259123 2657.6733686705675
1869.9258530623283 2848.3364693531585
1870.618621113843 2684.9989904490476
1871.3112221222636 2508.1455812151553
1872.0036561293764 2684.8833795400856
1872.695923176956 2627.1494478818804
1873.3880233067594 2951.055519498116
1874.0799565605212 2558.9137692351787
1874.7717229799673 2796.097502611176
1875.4633226068036 2755.9839805184943
1876.1547554827175 2795.2721409186224
1876.8460216493859 2553.8184987861855
1877.5371211484617 2863.4631262715734
1878.2280540215852 2937.4220826280493
1878.9188203103804 2518.3879113490843
1879.6094200564548 2778.1603584784307
1880.299853301396 2459.3526764064923
1880.9901200867826 2839.1908145486072
1881.6802204541673 2863.509958734036
1882.3701544450942 2805.181364808718
1883.059922101087 2471.9578340057756
1883.7495234636517 2738.8597771513655
1884.4389585742792 2522.5740350782216
1885.1282274744517 2573.274123297443
1885.8173302056166 3080.544439773536
1886.506266809225 2743.5538028306837
1887.195037326701 2605.2437203704612
1887.8836417994517 2643.6941497375356
1888.5720802688702 2843.19964645529
1889.260352776333 2633.259209228351
1889.9484593632042 2842.1389100630377
1890.63640007082 2552.2399938090884
1891.3241749405151 2362.374709358388
1892.0117840135954 2630.0285898108464
1892.6992273313572 2594.490096982362
1893.3865049350788 2683.853653408048
1894.0736168660223 2799.404476749265
1894.7605631654333 2710.6117475796946
1895.4473438745408 2586.410296047973
1896.133959034556 2859.599905449564
1896.820408686679 2595.1888456344486
1897.506692872088 2753.8348765537576
1898.192811631945 2725.603085323497
1898.8787650073991 2597.0282410341206
1899.5645530395832 2812.101899487604
1900.2501757696118 2741.5833285947274
1900.9356332385796 2532.5697169313057
1901.620925487574 2939.880022445931
1902.3060525576602 2762.8728440531704
1902.9910144898859 2636.589661866125
1903.6758113252872 2574.7614043420895
1904.3604431048789 2790.510340337924
1905.0449098696663 2720.6905713700917
1905.7292116606295 2498.400794618937
1906.4133485187394 2797.0374726079817
1907.0973204849488 2374.075855634032
1907.7811276001976 2534.0223283586406
1908.4647699053967 2617.265442724112
1909.1482474414588 2173.2832546760033
1909.8315602492694 2393.802646213666
1910.5147083696957 2679.8209994810863
1911.1976918436012 2626.898697907889
1911.880510711815 2456.891929058077
1912.5631650151681 2580.2854230733024
1913.2456547944657 2470.6353784401977
1913.927980090495 2651.289813430121
1914.6101409440362 2519.352655470354
1915.2921373958416 2527.6271105564583
1915.9739694866603 2658.8743746908685
1916.655637257214 2706.193900282973
1917.3371407482136 2640.679285412476
1918.0184800003572 2789.9447672723736
1918.6996550543154 2632.5330265762445
1919.3806659507554 2521.166148715295
1920.0615127303208 2596.0864825614467
1920.7421954336423 2670.038292853148
1921.4227141013343 2637.1092154586463
1922.103068773993 2561.3333014137706
1922.783259492202 2769.228209883932
1923.4632862965227 2453.4334374859786
1924.1431492275078 2514.573256026644
1924.8228483256917 2572.1956237908303
1925.5023836315922 2488.261614510396
1926.1817551857057 2292.298054758069
1926.8609630285227 2813.525818342273
1927.5400072005123 2705.6010926674867
1928.218887742125 2313.1566190992353
1928.8976046938005 2472.7588537917763
1929.5761580959588 2690.044470239856
1930.2545479890086 2495.8952110002288
1930.9327744133352 2374.732443683394
1931.6108374093164 2478.215834201767
1932.2887370173066 2790.1264149129206
1932.9664732776473 2307.6798185236157
1933.6440462306673 2533.10164290348
1934.3214559166754 2529.2451664992395
1934.9987023759659 2653.9801448806
1935.675785648813 2428.4764137860757
1936.3527057754836 2246.1135413162488
1937.029462796223 2638.578092378157
1937.70605675126 2439.9835907769548
1938.3824876808085 2349.457213181931
1939.058755625072 2411.1468770611373
1939.7348606242267 2424.392731693793
1940.4108027184448 2580.859235255239
1941.0865819478713 2611.5461790699483
1941.7621983526478 2494.960070439938
1942.4376519728921 2422.138858242811
1943.1129428487038 2375.9585766129385
1943.7880710201734 2494.724538262085
1944.4630365273733 2512.7795079986026
1945.1378394103576 2410.5463182039866
1945.8124797091714 2553.563116581167
1946.4869574638324 2290.0324943351143
1947.161272714353 2471.644666818573
1947.8354255007234 2493.2374867196254
1948.5094158629272 2378.5459118569315
1949.1832438409183 2530.627184372531
1949.8569094746435 2616.1647118216483
1950.530412804037 2611.719832515887
1951.2037538690092 2589.79935418516
1951.8769327094578 2376.549985287459
1952.5499493652678 2341.6556406154223
1953.222803876306 2517.628398231262
1953.895496282421 2450.462786494837
1954.5680266234522 2395.7289843125122
1955.2403949392155 2467.507440608401
1955.9126012695142 2356.946352252017
1956.5846456541403 2583.850455583383
1957.2565281328643 2235.9614563137734
1957.9282487454457 2569.6913286661866
1958.5998075316202 2410.208359161636
1959.27120453112 2411.0696193677577
1959.9424397836501 2506.0231082397213
1960.613513328908 2388.477527879184
1961.2844252065697 2462.9801056952538
1961.9551754563017 2306.8394681071413
1962.6257641177453 2294.775116605459
1963.29619123054 2288.480207412379
1963.966456834296 2387.3125982251227
1964.6365609686181 2272.590639298321
1965.306503673086 2440.296766985851
1965.976284987275 2324.345656729524
1966.645904950734 2390.5879000422046
1967.315363603002 2199.38771366065
1967.9846609836077 2401.614429084835
1968.6537971320486 2372.906528035141
1969.3227720878222 2538.596758083218
1969.9915858904042 2410.003677467973
1970.660238579252 2501.7119391775605
1971.3287301938108 2534.3342303902677
1971.997060773514 2333.8384429496696
1972.665230357772 2139.3415457548494
1973.3332389859843 2344.8977817337445
1974.0010866975335 2231.8539333286567
1974.6687735317864 2323.069089536329
1975.3362995280932 2464.082021026507
1976.003664725793 2337.940564536165
1976.6708691642052 2134.8695724727645
1977.3379128826364 2267.6636653742075
1978.004795920373 2545.8466618853486
1978.6715183166925 2600.10389635684
1979.3380801108524 2241.740126351063
1980.0044813420973 2202.1877598385827
1980.6707220496555 2098.8366771348924
1981.3368022727373 2398.011276402535
1982.0027220505417 2330.9966797818456
1982.66848142225 1977.9080205739956
1983.3340804270283 2144.0436843509574
1983.999519104027 2252.4463365789707
1984.6647974923835 2287.8429476811716
1985.329915631215 2228.8657354927827
1985.99487355963 2324.5427203299487
1986.6596713167146 2338.782766285117
1987.3243089415428 2326.7589937183757
1987.9887864731754 2403.3681525810994
1988.6531039506553 2174.345392036609
1989.3172614130071 2570.052481040566
1989.9812588992481 2202.3574790506395
1990.645096448372 2087.9763609152405
1991.3087740993633 2200.239289252512
1991.9722918911848 2046.1871925241285
1992.635649862792 2455.903482511859
1993.2988480531185 2383.107260178742
1993.9618865010852 2595.8622554194044
1994.6247652455968 2258.7135466957648
1995.287484325545 2218.389127080296
1995.9500437798033 2293.313195129547
1996.6124436472292 2194.9437335346734
1997.2746839666706 2273.2229666530775
1997.936764776954 2263.6996859442274
1998.598686116895 2209.0426182226815
1999.2604480252903 2441.4377429707065
1999.9220505409212 2457.578060634127
2000.5834937025593 2138.4466914166674
2001.2447775489582 2280.5985067359443
2001.9059021188514 2218.8781976878727
2002.5668674509616 2114.580291502046
2003.2276735839987 2154.389684817807
2003.8883205566508 2469.8173370581594
2004.5488084075987 2251.407096167015
2005.2091371755014 2340.838683595308
2005.8693068990033 2088.0050543288544
2006.5293176167397 2372.3949590341863
2007.1891693673224 2135.094974320259
2007.848862189354 2191.155224221642
2008.5083961214223 2216.362719989166
2009.1677712020955 2193.954328913005
2009.8269874699254 2188.295914016794
2010.4860449634598 2490.2695098995196
2011.1449437212177 2137.6661790940752
2011.8036837817108 2432.2804393078727
2012.4622651834325 2180.38980543271
2013.1206879648653 2440.4891575978686
2013.7789521644736 2454.6976012944333
2014.4370578207036 1934.7797544971177
2015.0950049719922 2243.12810825944
2015.7527936567585 2420.5094219044413
2016.4104239134067 2324.763255931158
2017.067895780323 2464.540719457345
2017.725209295886 2008.2810136598207
2018.3823644984514 2371.6966921068115
2019.0393614263648 2165.6832312132638
2019.6962001179545 2098.413195056331
2020.3528806115355 2379.221891817516
2021.0094029454067 2209.682959201665
2021.6657671578487 2239.4248264989174
2022.321973287133 2251.1453045815824
2022.9780213715148 2254.432450812552
2023.6339114492293 2150.591644778326
2024.2896435585026 2241.0131240684286
2024.9452177375442 2184.4151094907074
2025.600634024544 2232.2818531190615
2026.2558924576842 2265.243974631042
2026.9109930751292 2405.4283295644573
2027.565935915025 2205.88111604502
2028.2207210155066 2427.812875912269
2028.8753484146964 2298.198132057182
2029.529818150695 2016.6912528396922
2030.1841302615903 2155.1491320596238
2030.8382847854573 2103.7854269526624
2031.4922817603601 2085.957863107864
2032.1461212243357 2182.8395952410738
2032.7998032154192 1963.8717258770735
2033.4533277716218 2184.355028496364
2034.1066949309443 2103.978823811784
2034.7599047313688 2027.6717847410775
2035.4129572108704 2429.835611056877
2036.0658524074006 2124.397014854095
2036.7185903589016 2243.9550527252713
2037.3711711032956 2330.7123793669166
2038.023594678496 2190.362109867873
2038.675861122394 2006.8663268519879
2039.3279704728757 2215.9466768967022
2039.9799227678031 2074.579259539974
2040.6317180450278 2323.3882866845106
2041.2833563423865 2042.09345291229
2041.9348376977014 2369.3760768805278
2042.5861621487784 2161.900828936553
2043.2373297334088 2324.925953498955
2043.8883404893695 2290.6226913302526
2044.5391944544208 2177.8449637682093
2045.1898916663158 2220.019142862188
2045.8404321627804 2292.257875540924
2046.4908159815368 2224.455567882027
2047.1410431602853 1969.3037397898443
2047.7911137367173 2111.6231299142155
2048.441027748504 2199.0334841535196
2049.090785233302 2126.008859090316
2049.7403862287592 2215.6321635265276
2050.389830772503 2318.8315291762774
2051.0391189021466 1885.1609247803
2051.688250655294 2057.0311457613243
2052.337226069527 2202.2362506512477
2052.986045182417 2375.9423692836544
2053.634708031521 1862.9913481425833
2054.283214654375 1792.9536992153721
2054.931565088511 1722.8686425456297
2055.579759371436 2080.1021989268006
2056.2277975406523 2129.287334714808
2056.8756796336384 2217.944995772134
2057.5234056878617 2278.709016204409
2058.1709757407752 2339.216896022633
2058.8183898298194 2295.8089168553815
2059.465647992416 2117.305808608949
2060.1127502659747 2151.5907949751236
2060.759696687888 2001.1026155990353
2061.4064872955405 2138.457968502428
2062.053122126292 2341.6755643751385
2062.699601217497 1839.94016911162
2063.345924606485 2030.9662783921663
2063.992092330587 2190.4658820244076
2064.638104427102 1997.240840827942
2065.283960933324 2156.9918673959683
2065.92966188653 2002.2956652483233
2066.5752073239855 2140.6401670401206
2067.2205972829397 1934.6823089397953
2067.86583180062 2109.5374205170356
2068.5109109142522 2080.9131547680404
2069.15583466104 2033.5021656566082
2069.8006030781708 1986.049124998218
2070.445216202821 1810.3654216673144
2071.089674072153 2147.4479700003526
2071.7339767233116 2316.06013053103
2072.3781241934303 2179.0796251453053
2073.0221165196253 2181.2742782953583
2073.6659537390024 2145.8590678721093
2074.3096358886505 2324.1721158401006
2074.953163005637 2045.4318308644201
2075.596535127028 1843.0585772920836
2076.2397522898664 2094.9553699969633
2076.882814531182 2065.3752068779218
2077.5257218879924 2279.913507704073
2078.1684743973 2051.9566914449533
2078.8110720960885 2021.0929116513257
2079.453515021336 2348.4547454352764
2080.095803209997 2083.208999647103
2080.7379366990135 2199.2991974510583
2081.37991552532 2119.90537786278
2082.0217397258275 2214.184295911545
2082.6634093374414 1900.9735451768986
2083.3049243970418 1955.0227598308181
2083.9462849415067 2155.67398428458
2084.587491007689 2262.1655293492026
2085.2285426324324 2148.477337709927
2085.869439852564 2179.163284621902
2086.510182704902 1860.7106331991174
2087.1507712262483 1864.650678282164
2087.791205453381 1948.4970133110485
2088.4314854230743 2135.631741853423
2089.0716111720867 2108.3714210003163
2089.7115827371617 1808.1659163352786
2090.351400155023 2267.697332625615
2090.991063462385 2052.210673153253
2091.6305726959527 1740.940922921064
2092.2699278924047 2176.3804902325833
2092.9091290884153 2002.4782839370814
2093.548176320641 1905.3529775241338
2094.187069625721 2184.622609537929
2094.8258090402887 1765.5245217999054
2095.464394600951 2106.2054381088897
2096.102826344313 2117.9158848186917
2096.741104306955 2271.805241711243
2097.379228525453 2072.0619399220695
2098.017199036358 2159.1343052176003
2098.6550158762147 2246.3763618641165
2099.2926790815527 2076.5662734038606
2099.9301886888825 2058.72503749667
2100.5675447347076 2064.4658556600943
2101.2047472555114 2214.615978717503
2101.841796287761 1889.9237727548862
2102.47869186792 2103.090132483564
2103.1154340324265 1997.3006956839636
2103.752022817709 1931.7155596889174
2104.388458260184 2088.5488878613105
2105.024740396251 1994.3619038962086
2105.660869262292 2053.8567065889015
2106.296844894685 2002.4683681521085
2106.93266732978 2055.0197245364375
2107.5683366039284 1871.948340723482
2108.2038527534532 2117.508801300322
2108.8392158146726 2151.334899688435
2109.4744258238843 1987.0545507406307
2110.1094828173755 1902.9814995946203
2110.744386831422 2208.9827392428197
2111.3791379022787 2090.0709583923976
2112.01373606619 2043.326451713448
2112.648181359389 2250.3978588267983
2113.28247381809 2092.2890758024964
2113.916613478492 1960.3674749890677
2114.550600376786 2014.954357524665
2115.1844345491445 2163.1342796045064
2115.818116031729 1875.9683646030458
2116.451644860679 1960.7506554175677
2117.085021072133 1828.5982104792365
2117.718244702204 1775.413662414264
2118.3513157869984 2033.4884084111302
2118.984234362604 1823.7403144916545
2119.617000465092 1987.9287024286236
2120.249614130529 2189.063672419263
2120.8820753949585 2060.9091839187504
2121.5143842944162 1912.9950857603562
2122.14654086492 1855.784214265177
2122.7785451424734 2267.985814145979
2123.4103971630702 2223.7548524654076
2124.042096962681 2179.665688777488
2124.6736445772767 2038.246918386708
2125.305040042802 1844.6908568189695
2125.936283395191 1900.3690233347747
2126.567374670365 1892.9551593160213
2127.198313904233 1884.1101861108095
2127.8291011326855 2226.2157798058597
2128.4597363916037 2193.6310048327973
2129.0902197168507 1752.9432959985654
2129.720551144279 1894.914917207586
2130.3507307097225 2146.5270640854123
2130.980758449008 1982.1962954546466
2131.6106343979427 1857.450053561349
2132.2403585923203 2180.259635241472
2132.8699310679276 2046.5726635915048
2133.499351860526 1993.8745129718814
2134.1286210058715 1816.212169533076
2134.7577385397053 1720.9098683841116
2135.3867044977487 2132.0414249123664
2136.0155189157176 2127.110560161546
2136.644181829308 1974.5590838099713
2137.2726932742025 1978.5442886250516
2137.901053286074 2148.182001926861
2138.5292619005777 1914.0318525061193
2139.1573191533535 1952.143348371159
2139.7852250800315 1996.6538729420602
2140.4129797162295 1946.8933059027615
2141.0405830975433 1753.46275064996
2141.6680352595613 2096.8420878900056
2142.2953362378576 1833.813032816522
2142.9224860679915 1887.3972801766001
2143.549484785508 2120.6669727704448
2144.1763324259373 2034.1216040097036
2144.803029024799 1821.9154327557292
2145.429574617594 1580.0597215630512
2146.0559692398165 1731.1370501506503
2146.682212926942 1882.3103403706075
2147.308305714432 1821.288582912755
2147.9342476377333 2042.4188317127548
2148.5600387322847 1916.3585435852121
2149.185679033506 2051.214932169409
2149.8111685768017 1876.7492359028543
2150.4365073975678 1676.7015049734466
2151.061695531187 1921.9122120129407
2151.686733013021 2115.3802382998924
2152.311619878423 1984.5663618388603
2152.9363561627342 1770.3008034200716
2153.560941901278 1764.394359534113
2154.1853771293663 1925.055523208896
2154.809661882293 1859.8484397729812
2155.433796195348 1816.1326991678397
2156.0577801037944 1772.1354642612018
2156.681613642895 1898.9155722686621
2157.3052968478896 1580.6593261758383
2157.928829754006 1989.114570968805
2158.552212396462 1924.263715210629
2159.1754448104566 1814.4205583756834
2159.7985270311783 1754.893422813019
2160.4214590938027 1672.2635946634205
2161.0442410334927 1686.4585051109789
2161.6668728853874 1884.2052463420594
2162.289354684628 1853.5841867924453
2162.911686466332 1951.0218615301594
2163.533868265602 1948.8866012249885
2164.1559001175337 2077.582568760296
2164.7777820572046 1932.703004408734
2165.399514119681 1868.0129099938938
2166.021096340013 1694.0687175873404
2166.6425287532384 1662.9108608109157
2167.263811394385 1631.7973583405567
2167.8849442984574 1874.299404570928
2168.505927500455 1775.849099859707
2169.126761035366 1790.948268787839
2169.7474449381552 1854.620702770276
2170.367979243778 1558.6771139540792
2170.9883639871823 1880.5932026466212
2171.608599203293 1893.6896587545448
2172.2286849270276 2055.2907387724917
2172.8486211932886 2101.452406744066
2173.4684080369625 1915.7512418295905
2174.0880454929265 1780.9604093154412
2174.7075335960417 1670.8981535652863
2175.3268723811543 1949.4017241143156
2175.9460618831 1820.763832605469
2176.565102136701 1972.941505011644
2177.1839931767627 2194.601058080678
2177.802735038078 1788.042642858119
2178.421327755432 1791.748703836592
2179.0397713635866 1911.3985970087767
2179.658065897298 1899.1554323638181
2180.276211391305 1906.832479262533
2180.8942078803357 1914.429736675823
2181.5120553991 1907.229358759112
2182.129753982299 1654.582916213308
2182.7473036646206 1914.175797118626
2183.3647044807367 1967.4392265314523
2183.9819564653044 1629.3526580179835
2184.599059652968 2050.314344954
2185.216014078367 1841.079535976606
2185.832819776113 1585.3738875669326
2186.4494767808137 1959.0210718485996
2187.065985127063 1743.2112561657873
2187.682344849436 1804.5270749076637
2188.298555982501 2074.6257544087307
2188.9146185608097 1692.2715216954311
2189.530532618901 2113.3266526239945
2190.1462981912937 1936.9622328170346
2190.761915312507 1869.206656969584
2191.377384017036 1588.992000727214
2191.9927043393654 1747.2105069801096
2192.6078763139667 1959.6895775659766
2193.2228999753006 1688.5232667594132
2193.837775357808 1895.9817258877042
2194.452502495922 1897.9178763567347
2195.0670814240602 1899.849841486628
2195.6815121766285 1767.3910500666047
2196.2957947880186 1732.796723914041
2196.9099292926057 1698.1385929498133
2197.523915724758 1913.0694593672051
2198.137754118825 1927.4921987605344
2198.7514445091456 2139.127564973306
2199.3649869300443 2152.6173216326197
2199.9783814158327 2166.2289901530744
2200.5916280008096 2124.6126728302233
2201.2047267192593 1990.1468725966417
2201.8176776054515 1731.9498395904145
2202.430480693649 1638.350337857934
2203.0431360180955 1918.5237449172018
2203.6556436130195 1909.911739248948
2204.268003512645 1880.4301003293767
2204.8802157511727 1850.9526175533363
2205.492280362796 2141.6084395632233
2206.1041973816937 1884.3527091902429
2206.715966842032 1929.1829520483006
2207.3275887779655 1846.273882893871
2207.93906322363 1840.280887373408
2208.550390213153 1708.7337585068612
2209.1615697806465 1890.8176570010678
2209.7726019602105 1641.4218764703298
2210.3834867859277 1731.4662925526875
2210.9942242918787 1718.3110166912295
2211.6048145121167 1916.872527082754
2212.2152574806914 2152.265661318886
2212.825553231638 1924.1450696860513
2213.435701798975 2171.2230273608943
2214.045703216707 1815.853496768239
2214.655557518832 1400.764524011292
2215.2652647393297 1611.8349341390544
2215.874824912169 1457.400531516357
2216.4842380713 1802.9252240293051
2217.09350425067 1670.0094867655832
2217.7026234842033 2089.4734898307856
2218.311595805819 1831.1127461796823
2218.9204212494133 1587.7262321811068
2219.52909984888 2031.2574196305213
2220.137631638092 2011.2411376204072
2220.7460166509154 1991.0559102221287
2221.354254921198 1796.524308835686
2221.9623464827764 1943.1537259252952
2222.5702913694713 1751.0249281408055
2223.178089615096 2007.1542498880776
2223.7857412534486 1716.8678418670413
2224.39324631831 1492.294769081039
2225.000604843457 1649.3578357948008
2225.607816862641 1818.1707101389504
2226.214882409611 1832.6266144089718
2226.8218015180973 1872.995897748672
2227.4285742218217 1690.555832020366
2228.0352005544864 1743.6586501381837
2228.6416805497847 1673.6702230933824
2229.248014241399 1526.7872331372948
2229.8542016629945 1778.3418121343868
2230.460242848223 1822.8193233226095
2231.0661378307304 1653.3739879899263
2231.671886644139 1875.7940545647652
2232.277489322065 1721.5155984256494
2232.8829458981127 1498.737863150168
2233.48825640587 1749.9140319974545
2234.0934208789095 1934.4687127316708
2234.6984393507955 1862.933799160608
2235.3033118550793 1833.6206223454788
2235.9080384252975 1630.7421495791286
2236.5126190949723 1668.4912948469141
2237.1170538976166 1571.9378099507082
2237.721342866729 1501.574508930254
2238.32548603579 1744.2625977309635
2238.9294834382763 1776.4277114827041
2239.533335107646 1607.8143347381515
2240.1370410773434 1522.5297327024468
2240.740601380803 1407.7456557186626
2241.3440160514474 1892.2241767523271
2241.9472851226783 1911.4029477785832
2242.550408627896 1768.770367615496
2243.1533866004793 1896.931676239989
2243.756219073799 1792.4338664237807
2244.3589060812064 1612.530798367238
2244.961447656049 1690.763525362458
2245.5638438316564 1800.2165087680119
2246.166094641343 1853.701458499551
2246.7682001184166 1662.983825824104
2247.3701602961664 1581.6141941336818
2247.971975207871 1692.9854567175742
2248.5736448867974 1630.761931740529
2249.175169366197 1575.7856705394202
2249.7765486793123 1720.0087998575632
2250.3777828593684 1821.171097172534
2250.9788719395783 1758.437211839077
2251.579815953146 1658.2319914409375
2252.1806149332606 1395.1634598801463
2252.781268913097 1778.2696607663547
2253.381777925817 1697.1687729660473
2253.9821420045737 1627.934444354842
2254.5823611825035 1672.332961181269
2255.1824354927303 1808.1318086255694
2255.782364968365 1580.9262605198164
2256.38214964251 1800.1417302890488
2256.9817895482483 1541.9676907897767
2257.5812847186553 1631.73794674285
2258.180635186791 1526.3888972657905
2258.779840985704 1682.5626210921328
2259.37890214843 1837.5435879247314
2259.97781870799 1882.862157655858
2260.5765906973957 1685.5345951558988
2261.175218149645 1834.9311024279389
2261.773701097718 1780.6588416141335
2262.3720395745895 1540.3088200813067
2262.970233613216 1414.4846697075852
2263.568283246548 1697.2112823216771
2264.1661885075137 1616.6457081456397
2264.763949429038 1602.6295313876326
2265.3615660440246 1735.7496756732621
2265.959038385374 1524.3847936445338
2266.5563664859637 1580.9507382441227
2267.153550378669 1637.6769717590887
2267.7505900963424 1709.0609474702135
2268.3474856718312 1742.6073756986498
2268.9442371379664 1634.5240763519305
2269.5408445275643 1846.8524114439188
2270.1373078734377 1625.7225449472446
2270.7336272083758 1769.7132266189703
2271.32980256516 1525.051633459063
2271.925833976562 1781.0826417415967
2272.5217214753357 1945.5315398467715
2273.117465094223 1672.5315013858733
2273.7130648659586 1697.234949380656
2274.308520823257 1780.4569781923678
2274.903832998827 1876.1597436091372
2275.4990014253563 1796.2526905488812
2276.094026135528 1716.1586930298588
2276.6889071620117 1691.4692409774702
2277.2836445374614 1657.381926056995
2277.878238294519 1703.6118579836632
2278.472688465812 1558.582878241044
2279.066995083962 1860.3874951749663
2279.6611581815705 1749.307403714504
2280.255177791232 1564.3728129113786
2280.8490539455233 1930.6348643040812
2281.442786677013 1845.2258616931254
2282.0363760182554 1818.9205205967423
2282.6298220017943 1657.179697727958
2283.223124660155 1889.6974983945001
2283.816284025859 1667.0184188276035
2284.4093001314086 1804.903464819347
2285.002173009292 1675.599988249486
2285.5949026919952 1865.5460054048283
2286.1874892119777 1652.8497544861316
2286.7799326016993 1742.6110218502945
2287.3722328936 1472.5464076230624
2287.964390120109 1406.345739847818
2288.556404313642 1568.2398575458667
2289.1482755066027 1667.2805840802462
2289.7400037313873 1848.4295009721322
2290.3315890203703 1660.4636693596094
2290.9230314059205 1657.0436540690584
2291.5143309203904 1443.3912287161972
2292.1054875961236 1759.556038252806
2292.6965014654506 1718.4354226207602
2293.287372560684 1544.1596666912767
2293.878100914131 1600.5384480486762
2294.468686558086 1657.0891666000782
2295.059129524827 1687.5480506342797
2295.649429846617 1599.427954526634
2296.239587555716 1511.0715403853796
2296.8296026843636 1737.5983846503743
2297.419475264791 1623.4707440843856
2298.0092053292137 1509.0297940997912
2298.598792909839 1686.2921601540747
2299.1882380388597 1689.1951974284482
2299.777540748455 2007.6531039774393
2300.3667010707904 1757.209815243239
2300.9557190380256 1610.6411004496354
2301.544594682302 1852.299221509599
2302.1333280357503 1543.31340654812
2302.721919130485 1531.3040458822136
2303.3103679986198 2013.0006151413322
2303.898674672242 1874.4312924418966
2304.486839183437 1444.3969859671965
2305.0748615642697 1397.40293409459
2305.6627418468015 1450.4927314358315
2306.2504800630704 1594.256214441946
2306.8380762451143 1788.5250476662343
2307.425530424949 1801.106122445533
2308.012842634582 1813.7020441778543
2308.6000129060103 1619.4096670874555
2309.187041271214 1514.8448593142073
2309.773927762164 1410.0660383003792
2310.3606724108213 1667.4015821140947
2310.9472752491274 1659.6414233325158
2311.5337363090184 1725.3557429052435
2312.120055622414 1758.5574230762954
2312.706233221221 1708.3853944090656
2313.2922691373424 1600.7211863926225
2313.8781634026564 1631.3958434169183
2314.463916049037 1662.120396544717
2315.049527108342 1488.1549741021902
2315.6349966124235 1687.4838779131424
2316.2203245931123 1930.103523224406
2316.8055110822315 1542.8495857851246
2317.3905561115935 1262.0748949593667
2317.9754597129977 1351.137562044847
2318.560221918229 1396.5324980113733
2319.1448427590603 1442.0609327344314
2319.729322267256 1412.238237437658
2320.313660474563 1498.7331293853258
2320.8978574127195 2009.8098415541942
2321.481913113452 1927.5490796875088
2322.0658276084705 1544.8293616609749
2322.6496009294806 1418.3686656095729
2323.233233108165 1219.6113104238352
2323.8167241762058 1559.7759405032646
2324.4000741652617 1669.2862464274538
2324.983283106987 1696.6536890320797
2325.5663510330232 1764.2969319110448
2326.1492779749933 1685.3967589777712
2326.7320639645204 1707.247061663006
2327.3147090332004 1619.270154020946
2327.897213212629 1612.0064109712916
2328.4795765343843 1604.6098166689017
2329.0617990300307 1510.9459375266226
2329.643880731124 1973.6139015649612
2330.22582166921 1533.231531720618
2330.807621875816 1382.7975481235953
2331.3892813824623 1232.2414660263387
2331.9708002206517 1370.7967419293427
2332.5521784218818 1581.0376702010938
2333.133416017634 1650.6673376561316
2333.7145130393765 1592.8454349330589
2334.295469518571 1718.9338455457248
2334.876285486658 1754.9216289976168
2335.456960975076 1476.842805435252
2336.037496015242 1786.1944234858056
2336.6178906385667 1793.3770381680984
2337.198144876451 1745.7850506561717
2337.778258760278 1566.0094921860173
2338.3582323214214 1688.9211814371477
2338.938065591243 1812.0761444233576
2339.517758601087 1877.7915487221078
2340.0973113822965 1524.8572213246841
2340.676723966193 1541.9769579673327
2341.255996384094 1692.051209265173
2341.835128667295 1882.173886185663
2342.4141208470883 1863.3240768950636
2342.992972954751 1494.5842115148457
2343.5716850215467 1679.8714193226704
2344.1502570787306 1592.1480101443267
2344.7286891575386 1504.1771236470963
2345.3069812892045 1700.2031382435168
2345.885133504944 1698.0763316978469
2346.4631458359618 1469.4662488245679
2347.04101831345 1423.3963566971256
2347.6187509685915 1593.3978068775064
2348.196343832553 1533.3040495454964
2348.7737969364935 1437.3570919688193
2349.351110311558 1341.3209829551315
2349.9282839888765 1506.4977675209504
2350.5053179995757 1481.3240095193883
2351.0822123747585 1223.3904936582048
2351.658967145526 1264.673250771424
2352.2355823429643 1306.0993509660461
2352.812057998144 1523.1635501196447
2353.3883941421263 1587.0151481092985
2353.9645908059647 1651.0652974918353
2354.540648020693 1483.8337027840746
2355.116565817336 1330.3754324186427
2355.6923442269126 1440.3406108833924
2356.2679832804224 1550.5386837798424
2356.8434830088518 1336.5048858529622
2357.41884344318 1560.8848709215495
2357.994064614377 1638.6069590401748
