#exp_cfg={"servo_angle": 0.0, "laser_lim": 100.0, "servo_angle_to": 18.0, "laser_wup": 0.0, "bt_dev": "EnSpectr-25AE3", "laser_wdn_max": 0.0, "frames": 10.0, "servo_used": 0, "servo_calib_use": 0, "laser_wdn_min": 0.0, "servo_pix_from": 90.0, "cooler_tout": 300.0, "servo_angle_from": 0.0, "servo_calib": "[-1.9174921013161362e-09, 3.9322238269163779e-05, -0.27385609119055809, 653.59552119713567]", "laser_autoctl": 0, "servo_pix_to": 3682.0, "laser_pw": 100.0, "cooler_on": 0, "laser_volt": 4.0, "cooler_autoctl": 0, "cooler_curr": 70.0, "cooler_startup": 10.0, "laser_fixed_pw": 0, "gain": 1.3, "offset": 2.53059635486, "servo_calib_degree": 3.0, "laser_curr": 55.0, "shutter": 8200.0, "servo_calib_step": 1.0, "laser_fixed_curr": 0, "exp": 2000.0, "ccd_volt": 4.7, "bt_addr": "00:06:66:62:5A:E3", "servo_delay": 500.0, "laser_autooff": 1}
#proc_cfg={"flat_auto_wnd": 200.0, "flat_auto_fr": 200.0, "flat_auto_shift": 5.0, "yconv": 1, "flatten": 1, "flatten_strength": 100.0, "xfrom": 300.0, "auto_max_frame": 2000.0, "auto_signal": 48000.0, "flat_auto_tol": 0.1, "autoclip": 1, "xrel_range": 0.0, "flat_auto_to": 4000.0, "intensity_adj": 1.0, "xrel": 7852.0, "rmhot": 1, "flat_auto_slit": 4.999999999999997, "auto_ini_exp": 300.0, "auto_off": 0, "xto": 2860.0, "flat_auto_ref": "", "flat_auto_rank": 1, "autobackg": 0, "xrel_adj": 0.0, "auto_black_lvl": 1, "base_wnd": 100.0, "sub_baseline": 0, "xconv": 2, "auto_max_exp": 1000.0, "auto_total_exp": 10000.0, "auto_exp": 0, "rmripple": 0, "black_lvl": 8222.625, "shutter_clip_adj": 0.0, "auto_bckg": 0, "flat_auto_thr": 0.9, "subbackg": 1}
316.8218498245369 21493.635879125497
317.89969571804795 21212.174648374395
318.977263876126 21216.234141839373
320.05455438786703 20959.796154945932
321.1315673423287 21029.731029107017
322.2083028285215 20914.82362382261
323.2847609354267 20912.940231488406
324.3609417519747 20716.21933686756
325.43684536705587 20625.663058907725
326.5124718695279 20523.221893246166
327.58782134820103 20477.318286927883
328.66289389184385 20331.939924172882
329.7376895891921 20247.19540083893
330.8122085289342 20249.844944806675
331.88645079971866 20172.90086314296
332.9604164901575 20013.87353509364
334.03410568881554 19848.558420297828
335.1075184842266 19920.272956636498
336.18065496487543 19732.707614517643
337.2535152192122 19687.447984435585
338.32609933564163 19678.041675671353
339.39840740253203 19538.92951885896
340.4704395082099 19474.04320985871
341.5421957409617 19330.533861824122
342.6136761890357 19313.483821787653
343.6848809406365 19234.833737732497
344.75581008392874 19091.570728673825
345.82646370703696 18967.259768517102
346.8968418980512 19095.128628162885
347.96694474501055 19011.21458167238
349.0367723359268 18980.100355399583
350.106324758759 18863.231244538187
351.1756021014353 18817.95446217992
352.2446044518383 18740.42292294099
353.31333189781435 18830.469592790836
354.38178452716966 18749.71314365934
355.449962427665 18719.33484121695
356.51786568702846 18550.508241967713
357.58549439294256 18843.61909302746
358.6528486330535 18635.233014360703
359.71992849496564 18676.611407786866
360.7867340662433 18581.036224530926
361.8532654344144 18621.162876154573
362.9195226869597 18632.482650722355
363.9855059113288 18446.423749654306
365.05121519492604 18519.20364709449
366.11665062511565 18633.644004030863
367.1818122892273 18489.817664885762
368.2467002745434 18518.853383393154
369.31131466831175 18470.45416540232
370.375655557742 18572.373567205846
371.4397230299983 18559.559642233387
372.5035171722102 18420.590001830984
373.5670380714637 18454.49386703815
374.6302858148101 18436.76856457105
375.6932604892554 18463.127570308825
376.7559621817709 18366.625059291353
377.81839097928605 18217.770392812603
378.8805469686886 18282.576410824553
379.94243023683157 18330.153434557073
381.0040408705263 18146.84789811539
382.0653789565458 18083.45667195901
383.1264445816196 18189.38357919018
384.1872378324406 18182.284604401113
385.2477587956637 18058.560836418364
386.3080075579037 17896.708158461923
387.3679842057336 17986.61176689296
388.4276888256918 17902.25165299621
389.48712150426945 17859.560827700614
390.54628232792857 17773.15880505824
391.6051713830857 17839.02232559651
392.66378875611736 17777.383903181868
393.7221345333637 17826.838839936252
394.7802088011249 17669.129766405895
395.838011645661 17841.46796558854
396.89554315319765 17663.823258604356
397.9528034099112 17613.53347745205
399.00979250194723 17406.668598549568
400.06651051541485 17397.594121267546
401.1229575363741 17449.469796192658
402.17913365085224 17469.216872122095
403.23503894483656 17387.650285512693
404.2906735042761 17309.586958404678
405.3460374150818 17304.97055209304
406.401130763119 17203.82301548712
407.455953634224 17220.1129482853
408.5105061141876 17168.380389018694
409.56478828876243 17037.090092955765
410.6188002436629 17101.497054849675
411.6725420645689 17071.032015200213
412.72601383711117 17119.003177715953
413.77921564689314 17165.9768377717
414.8321475794728 16946.577787427712
415.88480972036814 16853.06778736492
416.93720215506437 16907.158282154753
417.9893249690049 16789.955115707457
419.04117824759123 16817.561469315726
420.09276207619223 16759.28714357849
421.144076540133 16772.39920277682
422.1951217247042 16658.492058745116
423.24589771515275 16584.988693653668
424.2964045966928 16545.926040649436
425.34664245449494 16584.57863117744
426.3966113736933 16481.534601636125
427.4463114393875 16389.005429402656
428.49574273662984 16359.660757079488
429.5449053504417 16360.556577946734
430.5937993658026 16357.890497876715
431.6424248676558 16260.28799064401
432.6907819409007 16239.55895019999
433.73887067040596 16134.790202098706
434.7866911409965 16150.198939946908
435.8342434374608 16184.202715528878
436.88152764455117 16116.513359893608
437.9285438469724 16104.434137704675
438.9752921294057 15949.581833241016
440.02177257648145 16088.30926191193
441.06798527279716 15936.885771583504
442.1139303029122 15953.429215209919
443.1596077513459 15853.976294243475
444.2050177025794 15937.757617099365
445.25016024105753 15864.374740131496
446.2950354511886 15800.48085546349
447.33964341733736 15882.552641682418
448.383984223834 15826.793515633046
449.4280579549686 15672.935183399648
450.471864694995 15771.38270624418
451.5154045281306 15728.159166779646
452.5586775385509 15680.883533758988
453.60168381039693 15707.735333648021
454.64442342776783 15863.148424260635
455.6868964747264 15794.62381016243
456.7291030353008 15751.189066875513
457.77104319347563 15769.205015199788
458.8127170332027 15728.29526999374
459.854124638392 15696.537692215115
460.895266092919 15862.744750464972
461.93614148061897 15787.657299492039
462.97675088529104 15888.44702700804
464.01709439069236 15711.32987560704
465.0571720805492 15774.274627378816
466.0969840385442 15735.611045250242
467.1365303483253 15748.42362060486
468.17581109350067 15712.107395945666
469.2148263576437 15706.161921132463
470.2535762242878 15680.077891950958
471.29206077693016 15807.302298858462
472.33028009902773 15720.06361840363
473.3682342740012 15778.559575970576
474.40592338523857 15753.38853611732
475.4433475160804 15956.673541258724
476.4805067498364 15955.214896367517
477.51740116978 16053.504263690087
478.5540308591426 16194.955048778624
479.59039590112116 16326.819488607794
480.6264963788726 16436.514440720905
481.6623323755193 16674.449698591754
482.6979039741436 16755.411137155337
483.7332112577915 17049.607219500318
484.76825430947247 17210.037404370672
485.80303321215797 17296.855092312304
486.837548048783 17425.669913517744
487.8717989022425 17680.94797406564
488.90578585539697 17589.498489698315
489.9395089910686 17772.548182126477
490.97296839203955 17578.266960659566
492.00616414106116 17593.92703160023
493.0390963208429 17515.151728447254
494.0717650140559 17341.125490962986
495.10417030333883 17245.974963333174
496.1363122712901 17139.563587290402
497.16819100046814 16881.58828939316
498.1998065734024 16655.100421077987
499.2311590725767 16568.976935406674
500.26224858044407 16308.395235569787
501.2930751794156 16214.368732327794
502.3236389518679 16106.000866459179
503.35393998014115 15948.911629200962
504.38397834653733 15783.087423290946
505.4137541333221 15728.363641524997
506.4432674227228 15583.912248153545
507.4725182969323 15464.725011355471
508.5015068381035 15413.829206367333
509.53023312835467 15288.57046869538
510.55869724976765 15255.638246947452
511.58689928438434 15093.296453389721
512.6148393142121 15053.669225867576
513.6425174212218 14980.738233803897
514.6699336873462 15002.115502589717
515.6970881944835 14993.084400863614
516.7239810244901 14972.94548684503
517.7506122591931 14884.08170535276
518.7769819803761 14923.586944047605
519.8030902697901 14922.365415782499
520.8289372091476 14893.671772863028
521.8545228801249 14985.97758007038
522.8798473643619 14891.217837275259
523.9049107434621 14807.225949217882
524.9297130989908 14891.634566599872
525.9542545124805 14708.467599459205
526.9785350654201 14742.728423359173
528.0025548392696 14693.905833633831
529.0263139154504 14644.083703400198
530.0498123753423 14616.181654138407
531.073050300296 14573.853590244831
532.0960277716204 14452.715215486576
533.1187448705896 14477.843987887614
534.1412016784416 14427.766499194375
535.1633982763833 14451.038242596162
536.1853347455726 14418.986814578122
537.2070111671401 14337.923153203921
538.2284276221817 14363.548922124279
539.2495841917516 14430.016609142922
540.2704809568677 14340.928961920852
541.2911179985167 14456.38997029598
542.3114953976419 14260.426864746012
543.3316132351592 14334.569733147942
544.3514715919409 14209.742635448521
545.3710705488247 14166.35585054959
546.3904101866156 14296.376573825037
547.4094905860784 14358.312944713363
548.4283118279418 14335.294377913513
549.4468739929034 14220.492943202215
550.4651771616191 14237.232454514073
551.4832214147063 14293.440087049748
552.501006832761 14284.549901185403
553.5185334963226 14312.147256156304
554.5358014859103 14375.909975564957
555.5528108820035 14301.80706142991
556.5695617650363 14299.572164886227
557.5860542154242 14402.121963056381
558.6022883135283 14302.11714305219
559.6182641396881 14298.58886075872
560.6339817741991 14244.312527196433
561.6494412973225 14251.113366871185
562.6646427892883 14296.380769842295
563.6795863302796 14156.047045162468
564.694272000459 14043.126245581312
565.7086998799423 14263.199236104996
566.7228700488104 14076.90163009102
567.7367825871115 13999.581465518004
568.7504375748576 14067.13749385695
569.7638350920224 13972.00159270702
570.7769752185486 14003.250042324613
571.7898580343353 13966.119884165184
572.802483619258 13949.491480426086
573.8148520531431 14023.771213821368
574.8269634157932 14045.965788717751
575.8388177869692 13988.71917631981
576.8504152463938 14097.326915476404
577.8617558737587 14249.37363763735
578.8728397487175 14211.121690278795
579.883666950891 14295.287877381072
580.8942375598654 14301.821705518765
581.9045516551851 14435.792159524037
582.9146093163617 14479.74286096788
583.924410622878 14533.584810139087
584.9339556541727 14559.510765701125
585.9432444896538 14499.300179599919
586.9522772086875 14446.851683017343
587.9610538906127 14454.804972682647
588.9695746147318 14395.333777940246
589.9778394603054 14548.840641676323
590.985848506567 14337.151342530511
591.9936018327098 14189.161173206667
593.0010995178891 14108.979954095052
594.0083416412344 14134.130248591837
595.0153282818283 13902.916924931018
596.0220595187293 13839.11463658536
597.0285354309508 13897.439308143317
598.0347560974806 13755.552145783047
599.0407215972609 13647.003156478666
600.0464320092051 13648.28562431033
601.0518874121954 13617.505171896915
602.0570878850685 13621.984955180535
603.062033506636 13565.952372225704
604.0667243556636 13644.613594148414
605.0711605108936 13502.30963860526
606.0753420510264 13758.14171991443
607.0792690547278 13607.640900340793
608.082941600629 13607.036837456608
609.0863597673306 13660.444672193455
610.0895236333909 13703.127545741745
611.0924332773357 13838.251967013162
612.0950887776617 13861.327380319068
613.0974902128219 14010.876584520938
614.0996376612384 14056.797788426386
615.1015312013005 14226.284936547672
616.1031709113595 14383.64235985398
617.1045568697336 14430.45066559465
618.1056891547069 14706.461622053006
619.1065678445229 14837.603715056332
620.1071930173985 15191.285773542937
621.1075647515099 15165.850483335522
622.1076831250048 15318.951859012712
623.1075482159849 15471.68326076675
624.1071601025305 15681.972896053301
625.1065188626781 15818.685272079103
626.105624574433 16146.82536926428
627.1044773157682 16174.699259970646
628.1030771646128 16251.952146620815
629.1014241988742 16402.309188113042
630.0995184964158 16555.12171927639
631.0973601350688 16654.83861692242
632.0949491926294 16786.99305427439
633.0922857468631 16568.283313100404
634.089369875499 16590.473337625757
635.0862016562278 16586.846815945748
636.0827811667077 16459.450936986
637.0791084845641 16484.12784440822
638.0751836873878 16265.20013512608
639.0710068527369 16190.467316229555
640.0665780581294 16070.496002380585
641.0618973810506 15773.625510646665
642.0569648989604 15812.086085485786
643.0517806892676 15476.051276277454
644.0463448293649 15329.177927716737
645.040657396592 15163.499485590708
646.0347184682723 15021.79047266061
647.0285281216875 14753.70223116947
648.0220864340772 14622.330361810386
649.0153934826558 14518.843496011072
650.0084493446047 14357.880561046337
651.0012540970674 14183.963617134874
651.9938078171526 14106.19698729922
652.9861105819346 14118.67053785685
653.9781624684565 14029.868521696244
654.9699635537254 13871.02434621436
655.9615139147136 13850.839238139417
656.9528136283589 13713.998998265373
657.9438627715699 13629.597255524975
658.9346614212154 13442.159934139601
659.925209654135 13359.201860631762
660.9155075471263 13327.649464821927
661.9055551769616 13174.512903244316
662.895352620375 13160.755322021534
663.8848999540678 13146.775897683163
664.8741972547068 12935.227860570161
665.863244598926 12978.86171000337
666.8520420633213 12939.190569764996
667.8405897244611 12834.399568896444
668.8288876588758 12743.689109007906
669.8169359430613 12749.209822488865
670.8047346534822 12797.055777098956
671.7922838665672 12721.436529062714
672.7795836587156 12729.197051031164
673.766634106285 12711.330786930856
674.7534352856092 12561.140840747585
675.7399872729766 12576.821127769143
676.7262901446538 12620.83409905872
677.712343976862 12565.226727645131
678.6981488457986 12757.996431160096
679.6837048276229 12586.192974438782
680.6690119984596 12488.138388656283
681.6540704344043 12486.183786076042
682.6388802115107 12473.598159380965
683.6234414058108 12463.21437998142
684.6077540932874 12413.401041205823
685.591818349907 12481.896457295727
686.575634251587 12333.055841774953
687.5592018742263 12344.571034351464
688.5425212936734 12167.624202225004
689.5255925857564 12495.162629614413
690.5084158262707 12216.614036897608
691.4909910909646 12157.989993627787
692.4733184555644 12048.858382620669
693.4553979957618 12227.996546586717
694.4372297872123 12237.670902569169
695.4188139055404 12209.737363774177
696.4001504263324 12110.649297292057
697.3812394251509 12211.813723691872
698.3620809775111 12207.4702111302
699.3426751589104 12216.058733390075
700.3230220448004 12175.488048789213
701.3031217106054 12273.858232751443
702.2829742317172 12319.416232379961
703.2625796834873 12244.360997427364
704.2419381412474 12275.582147894018
705.22104968028 12418.542947330552
706.1999143758458 12355.211062258697
707.178532303169 12273.865550771428
708.1569035374378 12434.509794818146
709.1350281538107 12627.12901040263
710.1129062274158 12684.12666468441
711.0905378333373 12825.110000007484
712.0679230466376 12984.051315989704
713.0450619423427 13230.877917095859
714.0219545954424 13431.648578024771
714.9986010808989 13536.044633014413
715.9750014736292 13797.79208470313
716.9511558485392 14030.78057285746
717.9270642804786 14126.79577598281
718.9027268442787 14288.607175296082
719.8781436147328 14308.660301929815
720.8533146666014 14383.400968874348
721.828240074612 14259.395932861953
722.8029199134635 14209.43611519225
723.7773542578125 14061.654427253252
724.751543182294 14025.954039924321
725.7254867615029 13874.207044388493
726.6991850700015 13729.755457348167
727.6726381823228 13852.826813379303
728.6458461729599 13852.844877758233
729.6188091163858 13938.441976902623
730.5915270870246 14162.899034654687
731.5640001592856 14234.66204804862
732.536228407529 14527.156660014658
733.5082119060917 14582.81025507976
734.4799507292755 14682.999887538299
735.4514449513481 14914.320841281276
736.4226946465496 15029.889838985298
737.3936998890786 14946.077453391747
738.3644607531078 14874.73454400816
739.3349773127793 14637.693100920089
740.3052496421951 14463.262580457285
741.27527781543 14097.909111056597
742.2450619065221 13762.644415580822
743.2146019894826 13462.36933400061
744.183898138288 13162.859850830117
745.1529504268801 12971.068872987371
746.1217589291682 12653.133035612256
747.0903237190341 12366.204404419195
748.058644870318 12220.692192081284
749.0267224568397 12087.083804123746
749.994556552374 11838.125967113525
750.9621472306771 11707.199466098129
751.9294945654583 11661.623564881835
752.8965986304011 11564.345744649267
753.8634594991636 11527.42657843442
754.8300772453586 11475.726418759903
755.7964519425768 11384.271848484224
756.762583664371 11406.725060911389
757.7284724842611 11416.896780226914
758.6941184757416 11297.480826978634
759.6595217122667 11337.144618169154
760.6246822672638 11175.00994023895
761.5896002141235 11248.735782511456
762.5542756262093 11234.124776110304
763.5187085768503 11256.87799655165
764.4828991393406 11192.445390364199
765.4468473869474 11168.90488785095
766.4105533929032 11141.690624670204
767.3740172304078 10977.000233500401
768.3372389726283 11006.1542102441
769.3002186926988 10855.605131805074
770.2629564637282 10865.339957185919
771.2254523587872 10813.677177549585
772.1877064509154 10769.495280226332
773.1497188131179 10678.912139966957
774.1114895183728 10641.677324783845
775.0730186396268 10623.502465693507
776.0343062497905 10515.068378435422
776.9953524217381 10506.070608447411
777.9561572283274 10491.275122331812
778.9167207423689 10469.471699151403
779.8770430366476 10476.645741445573
780.8371241839159 10463.47862297067
781.7969642568951 10445.96376915271
782.7565633282757 10588.558285923024
783.7159214707099 10473.811342410685
784.6750387568281 10470.494226597948
785.6339152592227 10435.12085197069
786.5925510504512 10457.77445577975
787.5509462030477 10479.27109853135
788.5091007895098 10417.853241990819
789.4670148823006 10498.431768091541
790.4246885538596 10521.221755779297
791.3821218765861 10437.851420721281
792.3393149228505 10487.448937479701
793.2962677649975 10529.275667482649
794.2529804753303 10562.347188197553
795.20945312613 10635.056323256296
796.1656857896378 10474.90019899292
797.1216785380675 10564.660886402857
798.0774314435985 10732.355653504263
799.0329445783846 10779.464379960084
799.9882180145414 10778.202949661967
800.9432518241574 10803.086533615142
801.89804607929 10867.526191134746
802.852600851962 10808.40748680097
803.8069162141637 10889.470598561322
804.760992237856 10879.34098948341
805.714828994971 10877.360180832797
806.6684265574077 10919.570280378912
807.6217849970271 10846.506496528582
808.574904385674 10740.660616906327
809.527784795142 10764.095258240752
810.4804262972102 10785.804057292276
811.4328289636178 10623.42942950424
812.3849928660748 10562.263752727224
813.3369180762638 10488.159677057185
814.2886046658241 10376.074868711037
815.2400527063783 10347.328965519719
816.1912622695108 10304.264801625795
817.1422334267718 10195.124277013354
818.0929662496856 10134.663580950988
819.0434608097457 10030.696878902048
819.9937171784059 9970.450823344876
820.9437354271013 9960.94595794351
821.8935156272255 9884.56797571483
822.8430578501484 9834.916774121522
823.7923621672016 9760.393043415757
824.7414286496896 9812.995096890027
825.6902573688876 9762.878706912918
826.6388483960363 9751.674962668463
827.5872018023492 9598.18149208078
828.5353176590033 9662.23182791125
829.4831960371503 9565.83021805515
830.4308370079016 9658.8618515354
831.3782406423525 9599.306550530613
832.3254070115545 9506.861197810722
833.2723361865319 9445.84675695003
834.2190282382799 9450.620788054399
835.1654832377644 9515.921398552113
836.1117012559116 9506.156931879228
837.0576823636256 9422.365414998025
838.003426631778 9299.537711780931
838.9489341312074 9393.394803092433
839.8942049327197 9461.170048684293
840.8392391070975 9437.738308459991
841.7840367250865 9428.638882871874
842.7285978573982 9439.418807758875
843.672922574724 9456.616394161363
844.6170109477152 9419.746659501663
845.560863046996 9394.888152897418
846.5044789431595 9365.106322601332
847.4478587067697 9411.887315025173
848.3910024083561 9427.500421276014
849.333910118421 9472.970029618455
850.2765819074339 9325.462689128812
851.2190178458332 9456.638312154433
852.161218004032 9411.706198422098
853.1031824524016 9447.669089627754
854.0449112612987 9355.408522229825
854.9864045010327 9483.917661094385
855.9276622418947 9386.67990287613
856.8686845541379 9359.548016849289
857.8094715079915 9461.73185241597
858.7500231736467 9476.529612156251
859.690339621271 9452.63408998105
860.6304209209939 9502.785491200579
861.5702671429244 9426.855916872086
862.5098783571284 9433.33109692973
863.4492546336569 9461.494882740766
864.3883960425155 9425.089978605258
865.3273026536863 9410.238237113186
866.2659745371238 9495.007119429236
867.2044117627465 9532.00638815456
868.1426144004472 9431.000189721615
869.0805825200823 9537.663058733844
870.0183161914847 9563.138091166295
870.9558154844526 9621.129210569537
871.8930804687552 9514.197027240694
872.8301112141307 9607.870464965727
873.7669077902865 9689.178299247043
874.7034702669062 9830.96796716153
875.6397987136315 9680.549858508037
876.5758932000863 9720.470719417533
877.5117537958522 9860.549894463922
878.4473805704911 9677.943032393363
879.3827735935283 9749.010591064743
880.3179329344603 9797.829033774857
881.2528586627541 9970.805203038857
882.1875508478479 9960.566128874485
883.1220095591489 9758.285166655123
884.0562348660296 9741.225803382638
884.9902268378391 9800.693039462218
885.9239855438955 9848.258975062732
886.8575110534839 9768.802310236173
887.7908034358588 9675.584602418316
888.7238627602474 9603.494544361096
889.6566890958475 9613.785345008584
890.5892825118208 9509.670007060324
891.5216430773125 9488.750296806113
892.4537708614189 9540.214667399496
893.3856659332196 9423.30818442437
894.3173283617652 9351.438168192828
895.2487582160684 9347.492054451921
896.179955565116 9245.401477184349
897.110920477864 9231.27678974284
898.0416530232451 9182.41974767535
898.9721532701478 9236.660317376629
899.9024212874428 9187.171768587712
900.8324571439662 9093.591117317217
901.7622609085302 9166.830167027862
902.6918326499072 9086.923492200072
903.6211724368477 9125.52337788461
904.5502803380696 9094.095076814243
905.4791564222614 9161.315530582353
906.4078007580792 9047.94310634371
907.3362134141571 9111.714961336991
908.2643944590909 9122.328501919656
909.1923439614493 9039.183087332001
910.1200619897754 9124.424916536114
911.0475486125779 9091.491510210106
911.9748038983344 9123.479634685573
912.9018279155007 9018.999706271145
913.8286207324982 9036.485816273003
914.7551824177117 9074.51854713554
915.6815130395116 8969.033358556488
916.6076126662283 8987.608534756007
917.533481366163 8967.318725243942
918.4591192075914 9002.437911299614
919.3845262587565 9064.618139310322
920.3097025878706 8900.50563546441
921.2346482631237 8958.60162503996
922.1593633526682 9000.278142013343
923.0838479246304 8850.886857333182
924.0081020471061 8945.52150013946
924.9321257881656 8850.31244917588
925.8559192158464 8881.454684350401
926.7794823981512 8778.1986022142
927.7028154030686 8756.75944258303
928.6259182985414 8693.352228712603
929.5487911524906 8813.160595880034
930.4714340328119 8827.151727502578
931.3938470073608 8646.189712711133
932.3160301439748 8677.436254782016
933.2379835104548 8740.021380550843
934.1597071745709 8760.058992597147
935.0812012040769 8754.513350503003
936.002465666681 8757.777601417922
936.9235006300696 8719.142242318088
937.8443061619055 8722.124124233647
938.7648823298077 8699.803439293933
939.6852292013809 8700.91978302775
940.6053468441951 8737.059638358101
941.5252353257874 8713.341963591138
942.4448947136698 8731.488936120506
943.364325075323 8723.241102943695
944.2835264782043 8680.734824221063
945.2024989897309 8850.164369680828
946.1212426773054 8731.952994198004
947.0397576082851 8732.63187634184
947.9580438500125 8817.483934137874
948.8761014697939 8867.635101395503
949.7939305349064 8875.775305032588
950.7115311125999 8801.712962016942
951.6289032700952 8769.162752565275
952.5460470745875 8833.1150528701
953.4629625932339 8940.64527933075
954.3796498931715 8900.675966785437
955.2961090415029 8882.907046727163
956.2123401053068 8916.891267543875
957.1283431516276 8824.127878826048
958.0441182474842 8747.787651088998
958.9596654598663 8884.146328087738
959.8749848557309 8863.726056205966
960.7900765020167 8832.300129394262
961.7049404656209 8759.889146851217
962.6195768134185 8806.183241061035
963.5339856122537 8775.660985323959
964.4481669289453 8730.234522884475
965.3621208302793 8596.560915097352
966.2758473830145 8659.832944295496
967.1893466538822 8654.21039391358
968.1026187095813 8699.462379577959
969.0156636167867 8637.73207382948
969.9284814421426 8697.561120624041
970.8410722522622 8563.268342780262
971.753436113735 8559.97258736685
972.6655730931161 8509.611868069085
973.5774832569368 8559.721717869881
974.4891666716958 8488.779408592563
975.4006234038698 8417.13223925044
976.3118535198955 8524.903445449107
977.2228570861935 8582.503818457235
978.1336341691494 8498.715600630116
979.0441848351202 8447.105471170917
979.9545091504333 8569.779929981183
980.864607181391 8537.88567673467
981.7744789942699 8549.891323399535
982.6841246553086 8585.178939082976
983.5935442307236 8504.443925033233
984.5027377867027 8414.464463231936
985.4117053894024 8561.89372874752
986.3204471049557 8473.312693069449
987.2289629994648 8499.017021990963
988.1372531390007 8583.894294069718
989.0453175896091 8541.459472188812
989.9531564173067 8609.221782132281
990.860769688079 8406.794327961792
991.7681574678918 8521.842017795252
992.6753198226706 8508.523866984517
993.582256818323 8573.460415599502
994.4889685207218 8598.09681327261
995.3954549957143 8691.14500042681
996.301716309119 8522.905221840523
997.2077525267232 8669.427644477328
998.1135637142943 8580.632209930287
999.0191499375615 8678.407801771677
999.924511262232 8574.363189325657
1000.8296477539861 8642.306513655132
1001.7345594784656 8508.492053719625
1002.6392465012996 8609.118319270872
1003.5437088880753 8538.626016554455
1004.4479467043584 8633.201412755252
1005.3519600156869 8517.460816454119
1006.2557488875718 8537.535764403543
1007.1593133854858 8562.27764901863
1008.0626535748888 8543.700337623452
1008.9657695212009 8355.155123794342
1009.8686612898182 8548.157380693989
1010.7713289461135 8489.704978986061
1011.6737725554212 8485.361855727177
1012.5759921830577 8435.000422852392
1013.4779878943027 8585.798627456317
1014.379759754418 8390.63258787441
1015.2813078286254 8395.631320466222
1016.18263218213 8357.207255586856
1017.0837328801026 8357.160703323223
1017.9846099876886 8285.746447224297
1018.8852635700023 8280.969361444482
1019.7856936921362 8289.80129253092
1020.6859004191447 8414.568384111788
1021.5858838160675 8246.020556414898
1022.4856439479063 8269.841596122482
1023.3851808796389 8294.297241846003
1024.2844946762143 8367.820996449756
1025.183585402554 8199.020370818735
1026.082453123554 8167.149050005019
1026.9810979040776 8241.231393304502
1027.8795198089647 8169.575597031823
1028.777718903024 8195.196221189248
1029.6756952510368 8257.735293628744
1030.5734489177648 8165.437314314564
1031.4709799679313 8203.659196555916
1032.3682884662358 8214.596690027209
1033.2653744773506 8153.588677984053
1034.1622380659192 8134.877427684945
1035.058879296559 8321.719269847998
1035.9552982338591 8321.563265745808
1036.8514949423825 8399.99055649665
1037.7474694866614 8393.5672855872
1038.6432219312028 8452.497444743554
1039.5387523404825 8687.243288063353
1040.4340607789582 8711.656782746733
1041.3291473110476 8706.664963388528
1042.2240120011465 8883.098029655437
1043.1186549136273 8986.19966895894
1044.0130761128294 9185.860394986728
1044.9072756630649 9141.43533281999
1045.8012536286205 9233.473661650736
1046.6950100737577 9281.003188074195
1047.588545062701 9536.68025424472
1048.481858659663 9551.46406475631
1049.3749509288118 9549.514252326464
1050.2678219343034 9467.15634001065
1051.1604717402515 9543.880971809665
1052.0529004107575 9466.45346871437
1052.9451080098825 9536.432452302413
1053.8370946016694 9391.267474989472
1054.7288602501267 9446.692743892074
1055.6204050192446 9284.21864507062
1056.511728972977 9258.997720231982
1057.402832175254 9130.075421723099
1058.2937146899785 9046.400466544064
1059.1843765810263 8979.896485348712
1060.0748179122456 8934.92852602707
1060.9650387474576 8928.627206897352
1061.855039150456 8855.705413044654
1062.7448191850071 8698.693502433269
1063.6343789148505 8700.762620137028
1064.5237184037014 8766.855546757532
1065.412837715241 8589.544055279877
1066.3017369131267 8503.36951623708
1067.190416060992 8478.587835133176
1068.0788752224398 8439.72068587874
1068.9671144610438 8421.006081627891
1069.8551338403558 8393.616727675126
1070.7429334239023 8514.040675234191
1071.6305132751695 8349.352804040036
1072.517873457633 8415.083706601636
1073.4050140347335 8346.642532556645
1074.2919350698776 8297.625100474308
1075.1786366264623 8264.848785968741
1076.0651187678395 8321.705580306007
1076.95138155735 8199.586383200223
1077.8374250582929 8233.922253385526
1078.7232493339507 8260.71611551735
1079.608854447577 8129.6730462333335
1080.4942404623907 8231.415084280077
1081.3794074415982 8263.05052163455
1082.2643554483657 8332.09691642765
1083.149084545841 8273.801663952616
1084.033594797138 8174.162553865981
1084.9178862653516 8321.265178660416
1085.8019590135427 8416.113612453917
1086.6858131047484 8318.688561428677
1087.5694486019802 8433.865914161774
1088.4528655682225 8356.818737142574
1089.3360640664287 8518.178874538153
1090.2190441595321 8467.080179280547
1091.1018059104317 8466.0951356856
1091.98434938201 8518.144635857368
1092.866674637111 8608.463552943873
1093.748781738559 8564.669259609927
1094.6306707491512 8440.264495140334
1095.5123417316554 8549.967421849291
1096.3937947488157 8450.68631542385
1097.2750298633455 8498.040664431293
1098.156047137938 8424.285500371614
1099.0368466352556 8519.655640150168
1099.9174284179317 8446.488727802805
1100.7977925485757 8399.722080550899
1101.6779390897755 8308.531370198896
1102.5578681040806 8285.982405016895
1103.4375796540226 8293.170868290961
1104.3170738021054 8232.47538738677
1105.1963506108077 8172.709207338143
1106.0754101425773 8162.644375739765
1106.9542524598382 8139.277456403332
1107.8328776249855 8129.0131622223735
1108.7112857003904 8113.490108294977
1109.5894767483987 8128.047847893354
1110.4674508313292 8114.15922785695
1111.3452080114657 8142.996082594381
1112.2227483510815 8064.180889542024
1113.1000719124077 8147.903365220882
1113.9771787576592 8210.275898153539
1114.854068949022 8233.437743186467
1115.7307425486542 8213.525956933983
1116.6071996186893 8158.828470130595
1117.483440221229 8408.303316772273
1118.3594644183577 8385.849725636956
1119.235272272128 8451.603592466096
1120.1108638445658 8491.475847456675
1120.9862391976712 8582.872851319522
1121.8613983934229 8747.606523367067
1122.7363414937627 8700.517100513442
1123.6110685606182 8832.491158258044
1124.485579655884 8819.014457944362
1125.359874841426 8937.721900866527
1126.2339541790916 8917.376202317424
1127.1078177306936 9018.281626581427
1127.9814655580267 8911.357176203079
1128.854897722851 8989.653657418361
1129.7281142869106 8976.936302229378
1130.6011153119125 9061.717232503754
1131.473900859548 9074.40803350373
1132.3464709914697 8891.59035204163
1133.2188257693178 8901.248439460423
1134.0909652546961 8908.824985241949
1134.96288950919 8698.357408185973
1135.8345985943506 8791.751781087887
1136.7060925717087 8690.908440066905
1137.57737150277 8630.435217464721
1138.4484354490069 8662.076288673357
1139.3192844718778 8539.70056261669
1140.1899186327992 8343.162791102743
1141.060337993178 8418.109485955983
1141.930542614382 8261.047299216556
1142.8005325577597 8245.99935811542
1143.670307884635 7999.939055942115
1144.5398686563003 8159.6418944307925
1145.409214934025 8070.39856163677
1146.2783467790541 7872.800200880245
1147.1472642526023 7912.541913798794
1148.0159674158622 7939.735667360178
1148.8844563300026 7725.803581045181
1149.7527310561618 7779.029895007823
1150.6207916554504 7753.146838008189
1151.4886381889592 7666.568136184962
1152.3562707177498 7640.788337899622
1153.2236893028585 7713.3051876046375
1154.090894005296 7602.19056931164
1154.9578848860474 7599.332840815949
1155.8246620060709 7604.333710873504
1156.6912254262988 7550.603029753953
1157.5575752076438 7567.403882151033
1158.42371141098 7577.9684143807635
1159.2896340971656 7604.077395187615
1160.1553433270346 7543.230591278814
1161.0208391613887 7502.2873575515205
1161.8861216610057 7466.447585292393
1162.75119088664 7459.199924064364
1163.6160468990201 7402.83682701653
1164.4806897588442 7400.227935822377
1165.3451195267917 7379.069915685222
1166.2093362635114 7432.177998533475
1167.0733400296285 7408.626696589454
1167.9371308857444 7346.251714994335
1168.8007088924278 7354.408373970114
1169.6640741102328 7413.836797067699
1170.5272265996773 7383.868954317276
1171.390166421259 7286.321295691308
1172.252893635452 7412.248025104006
1173.1154083026995 7515.141650924945
1173.977710483421 7538.1435405388065
1174.8398002380145 7424.606748808548
1175.7016776268483 7430.760334629938
1176.563342710264 7434.751721150084
1177.4247955485826 7415.1538111215295
1178.2860362020947 7446.752841125961
1179.147064731069 7387.878413327824
1180.0078811957483 7409.016519301273
1180.8684856563486 7501.232683198582
1181.7288781730604 7510.543507458312
1182.589058806052 7637.858216536787
1183.4490276154593 7700.754988911147
1184.3087846614017 7540.177567875347
1185.1683300039676 7726.505148895211
1186.027663703222 7854.55155017556
1186.8867858192025 7802.2785824319
1187.7456964119228 7842.1583641653215
1188.6043955413716 7942.686241926868
1189.4628832675116 8034.053969299765
1190.3211596502842 8033.657466183808
1191.179224749596 7940.9322801486605
1192.0370786253388 7960.810339498082
1192.8947213373758 8103.817508342179
1193.7521529455407 8123.37227954048
1194.6093735096438 8059.975227499209
1195.466383089477 8017.127367589703
1196.3231817447977 7998.41358951989
1197.1797695353398 8166.710773897294
1198.0361465208189 8033.235761174617
1198.8923127609214 8005.661406017469
1199.7482683153048 8132.746739804637
1200.6040132436028 8178.699205601483
1201.459547605431 8064.830740804265
1202.3148714603722 7955.716986014371
1203.1699848679855 7967.643274300388
1204.0248878878065 8047.634527059099
1204.8795805793507 7895.822098509192
1205.7340630020935 7991.404153517753
1206.5883352155033 7918.934545081958
1207.4423972790064 7855.345047922137
1208.2962492520237 7845.708545837185
1209.1498911939307 7801.958801961434
1210.0033231640937 7703.44816081727
1210.8565452218427 7626.153302003242
1211.7095574264913 7534.670824038511
1212.5623598373222 7667.959458477507
1213.4149525135963 7483.698274838089
1214.2673355145507 7514.823382890066
1215.1195088993936 7468.697771003283
1215.9714727273113 7421.401996314176
1216.8232270574663 7565.170052941748
1217.6747719489904 7351.723346054113
1218.5261074609934 7386.550871929078
1219.3772336525653 7349.274478308476
1220.2281505827668 7434.361902552223
1221.0788583106296 7331.4041125990625
1221.9293568951707 7335.961424517771
1222.7796463953746 7184.076801825821
1223.629726870202 7275.752292865271
1224.4795983785934 7138.983876665421
1225.3292609794553 7219.9009388247705
1226.1787147316809 7161.3066699855335
1227.0279596941327 7167.791711063552
1227.8769959256424 7146.233987615125
1228.7258234850306 7182.490815553782
1229.5744424310833 7167.608029967487
1230.422852822563 7124.894430038557
1231.2710547182105 7168.270604956601
1232.119048176739 7113.064912715288
1232.9668332568417 6992.824360087568
1233.8144100171812 7055.19039892116
1234.6617785163999 7200.7851078109
1235.508938813111 7033.240110634991
1236.3558909659114 7101.718581000505
1237.2026350333617 7220.980943572824
1238.049171074008 7201.4228822991645
1238.8954991463652 7066.98788154255
1239.741619308932 7047.720584696614
1240.587531620169 5956.764575445157
1241.4332361385277 7119.157303980188
1242.2787329224248 7140.073934793036
1243.1240220302534 7038.782804222768
1243.9691035203869 7038.613265294602
1244.813977451171 7253.919303923966
1245.6586438809263 7115.128508484459
1246.5031028679496 6974.562614668526
1247.3473544705157 7128.356902801976
1248.1913987468706 7222.299150812345
1249.0352357552383 7102.630623783659
1249.8788655538228 7136.241188163437
1250.7222882007918 7169.705334614914
1251.565503754302 7214.086150970506
1252.4085122724755 7131.004079992554
1253.2513138134182 7271.724657640009
1254.0939084352049 7243.045438687515
1254.9362961958905 7274.6618229177275
1255.7784771535007 7355.729521064609
1256.6204513660432 7268.465137598325
1257.4622188915 7416.412580641865
1258.3037797878242 7379.387627022804
1259.1451341129468 7288.039608962802
1259.9862819247755 7390.127111500337
1260.8272232811978 7347.631638148758
1261.6679582400666 7394.947684747845
1262.5084868592203 7292.6899945627565
1263.34880919647 7391.667406024001
1264.1889253095997 7363.045201942199
1265.0288352563712 7330.58248244726
1265.8685390945266 7361.152894830246
1266.7080368817751 7311.6359910982255
1267.5473286758115 7411.873283371734
1268.386414534294 7411.531840545594
1269.2252945148703 7263.092921799653
1270.0639686751547 7286.565121563426
1270.9024370727402 7292.599299435524
1271.7406997651997 7360.746035450209
1272.5787568100714 7215.195884769307
1273.4166082648808 7149.579793278366
1274.2542541871244 7315.1458839887055
1275.091694634275 7436.991133877234
1275.9289296637817 7152.526937220992
1276.7659593330663 7292.364361163753
1277.6027836995308 7292.806721761664
1278.4394028205552 7209.623077281964
1279.2758167534867 7284.388830562204
1280.112025555658 7254.87712482955
1280.9480292843746 7298.483655434915
1281.7838279969128 7158.492535787603
1282.6194217505326 7229.721281877761
1283.4548106024686 7190.615522342344
1284.289994609926 7350.206973297107
1285.1249738300921 7384.396395342924
1285.959748320127 7340.6850082476785
1286.7943181371702 7364.425834363961
1287.6286833383328 7415.211076780854
1288.4628439807038 7377.5545213402565
1289.2968001213521 7489.24185691094
1290.1305518173194 7346.060180619408
1290.9640991256183 7586.363463491662
1291.7974421032523 7542.515315748028
1292.630580807183 7567.816365581006
1293.463515294361 7607.346529166486
1294.29624562171 7872.070742719166
1295.12877184613 7688.469030797352
1295.961094024493 7623.970996890314
1296.79321221365 7794.032075480311
1297.6251264704333 7928.799041743892
1298.4568368516466 7988.557353238934
1299.2883434140658 7967.700747659522
1300.1196462144526 7941.86980354205
1300.9507453095375 8089.292900866671
1301.7816407560313 8133.210369424116
1302.6123326106172 8115.089537654583
1303.4428209299622 8159.681065040827
1304.2731057707024 8490.858937915742
1305.1031871894502 8249.046069450515
1305.933065242798 8409.060523563949
1306.7627399873181 8383.854755693486
1307.5922114795467 8596.020035411917
1308.4214797760123 8635.686864665357
1309.2505449332057 8496.329482381167
1310.0794070076026 8440.762575424362
1310.9080660556538 8543.950733932907
1311.736522133786 8490.861449864697
1312.5647752983987 8556.587122170264
1313.3928256058734 8583.005953535892
1314.2206731125661 8699.963044665285
1315.048317874809 8699.669321551413
1315.8757599489109 8632.869231964094
1316.7029993911547 8663.853751692195
1317.5300362578055 8830.745689224721
1318.356870605101 8670.125569352223
1319.183502489257 8713.145815332482
1320.0099319664623 8685.566913272934
1320.836159092889 8845.04747852973
1321.66218392468 8617.850573005378
1322.4880065179532 8634.021405927544
1323.3136269288134 8633.193519317862
1324.1390452133292 8734.198269412318
1324.9642614275563 8660.018948287861
1325.7892756275214 8647.809023448883
1326.6140878692295 8427.031141828993
1327.4386982086617 8634.068316791272
1328.2631067017755 8412.316007442245
1329.0873134045069 8497.370096549977
1329.911318372764 8262.524362586353
1330.735121662441 8222.368466533251
1331.558723329399 8248.855085268466
1332.3821234294774 8009.662302061946
1333.2053220185007 8093.987285740969
1334.0283191522612 8038.285276889108
1334.851114886529 7953.79806284766
1335.6737092770582 7799.979008450767
1336.4961023795695 7708.311873344943
1337.3182942497697 7671.776898468811
1338.1402849433325 7615.334413576626
1338.962074515921 7486.939855612855
1339.7836630231632 7375.0191727696465
1340.6050505206676 7523.521491605362
1341.426237064028 7452.953296154422
1342.2472227088037 7392.633661542148
1343.0680075105338 7244.85756219529
1343.888591524741 7315.161295544024
1344.7089748069138 7258.701080896832
1345.5291574125276 7297.481735214748
1346.3491393970307 7024.127516495883
1347.168920815846 7297.313245232484
1347.9885017243778 7153.81149202545
1348.8078821780036 7072.9003429190125
1349.6270622320844 7006.846906330893
1350.4460419419447 7040.547501471151
1351.2648213629054 6933.590268368107
1352.0834005502438 6981.275097490545
1352.90177955923 6939.89737321711
1353.7199584451064 6968.517946218424
1354.5379372630887 7035.478676734461
1355.355716068374 6899.8992717160945
1356.1732949161305 6783.696089516501
1356.9906738615155 6859.724681622521
1357.8078529596478 6860.118323370918
1358.6248322656375 6873.858975303371
1359.441611834567 6825.32095191156
1360.2581917214866 7010.238105723646
1361.0745719814367 6737.2477445061695
1361.890752669433 6876.66321658988
1362.7067338404577 6849.104488770649
1363.5225155494845 6816.576401015189
1364.3380978514506 6807.018278844545
1365.1534808012839 6779.256512295717
1365.9686644538815 6657.065258521079
1366.783648864117 6879.270895180096
1367.5984340868417 6788.393953092322
1368.413020176893 6823.938825164971
1369.2274071890715 6710.646190179931
1370.0415951781652 6764.7852863617245
1370.8555841989346 6717.167774650172
1371.6693743061223 6767.083676091771
1372.48296555444 6630.017595546257
1373.2963579985844 6824.410347139729
1374.1095516932255 6687.54610781733
1374.9225466930166 6690.193377887483
1375.7353430525782 6605.420767439488
1376.5479408265164 6726.101946936663
1377.36034006941 6676.096640628569
1378.1725408358216 6673.643123777821
1378.9845431802805 6645.546054788583
1379.796347157304 6855.488254213839
1380.6079528213813 6675.435479874906
1381.4193602269788 6714.224145889073
1382.230569428546 6683.902514722288
1383.0415804805016 6732.372451172848
1383.852393437246 6714.334164464746
1384.6630083531563 6901.913348770204
1385.4734252825892 6703.406095417498
1386.2836442798798 6858.8212625763
1387.0936653993322 6797.553194848762
1387.9034886952395 6820.572765748902
1388.713114221864 6826.768203529398
1389.5225420334482 6858.166103692264
1390.331772184214 6830.184536003911
1391.1408047283585 6626.852168519818
1391.9496397200564 6745.2339125230665
1392.758277213461 6805.885563615763
1393.5667172627054 6739.068800882432
1394.3749599218918 6769.27956669579
1395.1830052451114 6631.9055225366465
1395.9908532864265 6739.165161022531
1396.7985040998774 6721.000627217252
1397.6059577394808 6756.362799007239
1398.4132142592352 6628.404072344163
1399.2202737131156 6631.478740733345
1400.027136155073 6828.155301317866
1400.8338016390353 6728.592934821742
1401.6402702189134 6645.788334422285
1402.446541948586 6601.008654757185
1403.2526168819204 6536.793485976305
1404.058495072757 6552.981301644913
1404.8641765749107 6552.242965886304
1405.6696614421799 6595.293979005136
1406.4749497283356 6693.476012103041
1407.280041487129 6396.239359914681
1408.084936772295 6316.630481967364
1408.8896356375335 6591.398535704223
1409.6941381365323 6454.645299953618
1410.498444322955 6420.037435785135
1411.3025542504402 6383.272509217362
1412.106467972606 6357.558785096539
1412.9101855430508 6383.57172417715
1413.7137070153458 6294.321271260551
1414.5170324430437 6361.714886914949
1415.320161879672 6339.928063359961
1416.1230953787435 6419.34941482245
1416.925832993742 6288.99688451307
1417.7283747781275 6286.264534151472
1418.5307207853439 6325.904227624049
1419.3328710688093 6248.257862652144
1420.134825681922 6153.967705098873
1420.9365846780584 6344.05701213744
1421.7381481105713 6384.509474105344
1422.539516032788 6358.8042261039245
1423.3406884980232 6326.688617763074
1424.1416655595604 6426.607692284729
1424.942447270665 6324.593986611142
1425.7430336845828 6502.854456602825
1426.5434248545298 6512.201458671474
1427.3436208337116 6668.427848972962
1428.143621675301 6634.063164501764
1428.9434274324558 6756.393412406974
1429.7430381583108 6599.179648505046
1430.5424539059713 6765.555305942263
1431.3416747285337 6945.85588154544
1432.1407006790632 6749.154142307784
1432.9395318106053 6706.321502130621
1433.7381681761835 6808.769083675111
1434.5366098288014 6957.528746690489
1435.3348568214424 6849.909832198968
1436.1329092070573 6772.387882186728
1436.9307670385879 6865.497321866373
1437.7284303689503 6988.760488607838
1438.5258992510335 6832.204502866353
1439.3231737377118 6906.020166417623
1440.1202538818306 6957.513562429209
1440.9171397362225 6724.422205655648
1441.7138313536925 6716.550670065747
1442.5103287870243 6776.646247424489
1443.3066320889775 6603.443361910138
1444.1027413122956 6752.587395828491
1444.8986565096966 6584.943829949446
1445.694377733882 6611.922976746313
1446.4899050375207 6415.069719249618
1447.2852384732687 6477.969672693608
1448.0803780937622 6332.758172927168
1448.8753239516063 6376.669308337344
1449.6700760993954 6194.900238267264
1450.464634589689 6366.1180037907925
1451.2589994750397 6498.27583785479
1452.0531708079689 6233.850617970829
1452.8471486409799 6121.848363706457
1453.6409330265524 6184.557035352494
1454.4345240171442 6001.14934850059
1455.2279216651987 6045.84718480162
1456.0211260231263 6073.860299234282
1456.8141371433194 6460.404087661476
1457.6069550781594 6165.571256041046
1458.3995798799897 5935.913001562639
1459.1920116011424 5974.648387712424
1459.98425029393 5947.229403841119
1460.7762960106338 5974.911553653468
1461.5681488035225 5993.810256712486
1462.3598087248392 5889.7824342661825
1463.1512758268036 6034.197483072157
1463.942550161617 5834.27085724906
1464.7336317814625 5896.488417797414
1465.524520738496 5874.1679414565715
1466.3152170848552 5798.6825892075885
1467.1057208726506 5717.811068420509
1467.8960321539817 5730.299860171498
1468.6861509809169 5687.598848667747
1469.4760774055085 5736.492695069775
1470.265811479785 5577.769197449296
1471.055353255755 5445.586411597103
1471.844702785409 5518.337942548444
1472.6338601207044 5501.994003677015
1473.4228253135934 5516.902297277398
1474.2115984159936 5305.503999613647
1475.0001794798063 5355.075148973794
1475.7885685569145 5394.490626741317
1476.576765699172 5417.752618805651
1477.3647709584238 5407.007907537744
1478.1525843864802 5499.271680961443
1478.9402060351367 5424.01408540657
1479.7276359561693 5391.410731311791
1480.514874201328 5390.341344811448
1481.3019208223468 5237.820600956415
1482.0887758709323 5108.642471260573
1482.8754393987747 5284.298840392459
1483.6619114575406 5234.856074294579
1484.4481920988783 5345.837549339991
1485.2342813744108 5330.992590715748
1486.0201793357446 5323.402004344267
1486.8058860344572 5202.750374332571
1487.591401522117 5189.4467407290085
1488.3767258502594 5281.286014306874
1489.1618590704056 5271.1529865216635
1489.9468012340494 5076.212820108399
1490.7315523926754 5243.1466901376125
1491.5161125977356 5404.8762097316985
1492.3004819006637 5271.942058373862
1493.084660352877 5224.527141422086
1493.8686480057622 5296.805134688197
1494.6524449106964 5332.712392298086
1495.4360511190262 5366.231606840083
1496.219466682087 5338.8744018288835
1497.0026916511779 5426.207067815316
1497.7857260775945 5160.862217071991
1498.5685700125996 5265.525769189521
1499.3512235074395 5245.818339939042
1500.133686613337 5193.183508010343
1500.9159593814966 5204.712923057826
1501.698041863101 5462.2866705491815
1502.4799341093094 5153.348921854818
1503.2616361712662 5152.9188057030715
1504.043148100087 5249.588063660334
1504.8244699468742 5257.096688950203
1505.6056017626997 5224.010270994577
1506.3865435986281 5162.224596060476
1507.1672955056893 5243.524783755346
1507.9478575348967 5119.173989100839
1508.7282297372512 5386.320361131321
1509.5084121637192 5143.672377391221
1510.2884048652577 5157.091899487937
1511.0682078927948 5207.024934750912
1511.8478212972423 5128.4528394251365
1512.6272451294917 5210.674485972777
1513.4064794404076 5275.428813752022
1514.1855242808433 5229.802170988334
1514.9643797016215 5317.002164079577
1515.743045753552 5299.585792257213
1516.5215224874191 5282.872229230871
1517.2998099539836 5241.431391861175
1518.077908203999 5285.595424482294
1518.8558172881785 5467.333243648139
1519.633537257234 5415.513426109101
1520.4110681618404 5444.486999043053
1521.1884100526604 5409.60230390648
1521.9655629803365 5364.375536149864
1522.7425269954856 5561.319861611377
1523.5193021487103 5636.678829614179
1524.2958884905856 5344.453351414404
1525.0722860716687 5517.031109886457
1525.848494942502 5484.840404518416
1526.624515153595 5506.535013193288
1527.4003467554485 5585.96100299199
1528.175989798534 5589.83370470766
1528.9514443333064 5692.72139244039
1529.726710410203 5868.944843597905
1530.5017880796331 5547.546661956412
1531.276677391992 5515.986993807003
1532.0513783976457 5687.854098770239
1532.825891146953 5719.050931166968
1533.6002156902414 5708.169104193414
1534.3743520778207 5523.569630385674
1535.1483003599806 5653.508918476984
1535.9220605869923 5537.507554679685
1536.6956328091019 5703.910430732253
1537.4690170765407 5486.146362421719
1538.242213439511 5556.692952841838
1539.015221948208 5587.269575566844
1539.78804265279 5562.144579826462
1540.560675603405 5377.23263643907
1541.3331208501804 5453.088330466656
1542.1053784432224 5579.807161905186
1542.8774484326168 5538.834828297163
1543.649330868422 5569.895886633362
1544.4210258006842 5493.638842159114
1545.1925332794308 5382.4657745258355
1545.9638533546604 5391.372490016789
1546.7349860763552 5480.077440047693
1547.5059314944829 5617.52575297908
1548.27668965898 5528.83454559792
1549.0472606197673 5514.105126727809
1549.817644426752 5467.37695772908
1550.5878411298072 5465.715555252738
1551.3578507787988 5467.06273415127
1552.1276734235635 5372.078675008886
1552.8973091139233 5448.844294961502
1553.6667578996767 5522.6113046511255
1554.436019830604 5533.3956968037955
1555.20509495646 5384.923993322666
1555.9739833269869 5427.478302752821
1556.7426849919011 5477.987386906034
1557.511200000903 5521.825527233888
1558.2795284036674 5460.2075153524365
1559.0476702498509 5448.366411931097
1559.8156255890954 5503.090108070891
1560.5833944710157 5649.463909950856
1561.3509769452048 5562.68538540186
1562.1183730612447 5524.568495405366
1562.8855828686865 5384.449799293036
1563.6526064170703 5620.853555215431
1564.4194437559127 5466.660260835963
1565.1860949347047 5607.787324944029
1565.9525600029283 5656.593435070292
1566.7188390100328 5664.435087764773
1567.4849320054564 5528.62930685268
1568.250839038612 5446.040760250702
1569.0165601588997 5538.034935989294
1569.7820954156887 5457.815090889997
1570.5474448583373 5472.230821070009
1571.31260853618 5460.117731581057
1572.0775864985299 5338.578325287472
1572.8423787946813 5570.988635944848
1573.6069854739108 5646.183571972051
1574.371406585471 5611.034498194868
1575.1356421785986 5620.902525391682
1575.899692302506 5438.876485775576
1576.6635570063845 5594.033741180925
1577.4272363394157 5542.816702530579
1578.190730350747 5362.745212625732
1578.9540390895163 5365.393961838821
1579.7171626048384 5339.906259703136
1580.480100945806 5436.963010745637
1581.2428541614918 5401.318702301605
1582.0054223009538 5332.24514710826
1582.767805413223 5360.949750747854
1583.5300035473156 5403.475436016706
1584.292016752228 5371.061272869384
1585.0538450769309 5336.357546932886
1585.8154885703807 5290.380023655756
1586.5769472815136 5291.511133760179
1587.3382212592405 5437.588037066413
1588.099310552463 5485.588249189699
1588.8602152100484 5269.275287934123
1589.6209352808564 5329.838064023833
1590.3814708137234 5209.820395182948
1591.14182185746 5265.8546452219825
1591.9019884608679 5234.415737759953
1592.6619706727215 5160.092280559788
1593.4217685417734 5329.390620308315
1594.1813821167616 5256.241755239936
1594.9408114464022 5128.8581913915705
1595.7000565793933 5180.172410933403
1596.459117564409 5293.642125186174
1597.2179944501113 5105.296080851728
1597.9766872851324 5116.579465463436
1598.735196118092 5198.9031917210905
1599.4935209975883 5309.44413904608
1600.2516619721973 5220.298721162554
1601.0096190904787 5145.17074038273
1601.7673924009723 5195.510209024307
1602.524981952196 5021.968340337078
1603.2823877926476 5081.406256460368
1604.0396099708087 4969.612861077582
1604.7966485351371 4881.349836853177
1605.5535035340745 5020.011063737987
1606.3101750160404 5230.020779525397
1607.0666630294363 5065.083388886038
1607.822967622642 4949.896913488232
1608.5790888440224 4896.5634867171575
1609.3350267419137 5157.826729026891
1610.0907813646445 4968.259936751823
1610.8463527605145 4978.28337109255
1611.601740977805 5034.9293281875
1612.356946064785 5068.688175377274
1613.1119680696902 4894.152728725847
1613.8668070407512 5043.820500483999
1614.6214630261748 4808.300744584594
1615.375936074137 5008.425753795151
1616.1302262328118 4928.953619803279
1616.8843335503425 4914.3623901076435
1617.638258074854 4717.733100797991
1618.391999854457 4868.580573789725
1619.1455589372363 4960.473571373832
1619.8989353712623 5045.950746319741
1620.65212920458 4828.294544415149
1621.4051404852235 4854.415135238013
1622.1579692611976 4785.749749036377
1622.9106155804966 4801.792596829867
1623.663079491087 4857.460944909168
1624.4153610409248 4934.440079381672
1625.1674602779385 4833.625247783226
1625.9193772500403 4756.71330979348
1626.6711120051277 4860.525222454765
1627.4226645910676 4823.0708146134475
1628.174035055721 4629.811044407537
1628.9252234469168 4924.638941619311
1629.676229812474 4883.777875209797
1630.4270542001905 4994.862077745731
1631.1776966578382 4924.957392537048
1631.9281572331747 4820.624699064259
1632.678435973945 5095.166839070427
1633.4285329278573 4968.234885258639
1634.1784481426203 4850.097154575313
1634.9281816659113 4841.481237677475
1635.677733545388 4882.590507591013
1636.4271038286934 4837.7736605578075
1637.176292563452 4945.282099235305
1637.9252997972635 4944.521472561216
1638.674125577716 5106.874123402002
1639.4227699523672 5161.010050685638
1640.171232968767 4803.589113196698
1640.9195146744423 5016.38813117529
1641.6676151168977 5077.757792299169
1642.4155343436178 5039.974421965614
1643.1632724020765 5076.673170137545
1643.9108293397167 5071.560704070605
1644.658205203974 5008.678349136702
1645.4054000422566 5374.675142546057
1646.1524139019566 4925.361115385907
1646.8992468304423 5046.680169055054
1647.6458988750728 5039.625577471383
1648.3923700831765 5049.933550316997
1649.1386605020743 5060.53838139451
1649.8847701790564 5093.673541120697
1650.6306991614038 5091.357423285822
1651.3764474963682 5082.583606588487
1652.1220152311944 4827.60773969422
1652.867402413096 5108.428069380863
1653.6126090892776 5018.715278692756
1654.3576353069184 5255.425890769384
1655.1024811131829 4994.224165046953
1655.8471465552066 4928.248576977965
1656.5916316801213 5197.486628324647
1657.3359365350298 5088.913249405546
1658.0800611670165 4787.033795742978
1658.824005623148 4842.028494578229
1659.5677699504722 4752.491730083689
1660.3113541960192 4910.334108273341
1661.054758406799 4769.572069192692
1661.7979826297997 4714.079343525509
1662.5410269119966 4601.2577713049795
1663.283891300338 4826.181248625651
1664.0265758417645 4760.704191691308
1664.7690805831826 4749.887011287983
1665.5114055714948 4620.665331703301
1666.2535508535748 4698.247780158426
1666.9955164762814 4548.905161645812
1667.7373024864555 4612.367473848807
1668.478908930916 4636.524751221119
1669.220335856462 4437.388071565485
1669.9615833098778 4516.329843510747
1670.7026513379296 4441.671612155078
1671.44353998736 4501.433287532801
1672.1842493048916 4394.8409526888445
1672.9247793372379 4428.056332575035
1673.6651301310812 4436.766814461405
1674.4053017330934 4400.20751449655
1675.1452941899242 4422.475305148842
1675.885107548207 4060.8373389245994
1676.6247418545518 4176.023687558209
1677.3641971555535 4231.1006395812865
1678.1034734977893 4178.397759935859
1678.8425709278108 4322.0251868360665
1679.5814894921605 4277.298968937046
1680.320229237359 4127.956022859113
1681.0587902098978 4235.087944125872
1681.7971724562685 4180.209154705686
1682.5353760229264 4033.6596637783014
1683.2734009563173 4106.800019380563
1684.0112473028657 3891.4742688292004
1684.7489151089794 4091.7492694058083
1685.4864044210462 4070.6355064196723
1686.2237152854377 3828.4871941490405
1686.960847748498 3959.463458171467
1687.6978018565642 3900.447539497088
1688.434577655944 3877.7527290812795
1689.1711751929379 3779.726306021587
1689.9075945138156 3861.6225139439985
1690.6438356648396 3816.4918769187257
1691.3798986922448 3573.359927632614
1692.1157836422499 3707.422557453124
1692.851490561059 3706.6858419659984
1693.587019494853 3696.9058862954653
1694.3223704897991 3531.465661797539
1695.0575435920364 3518.132407913027
1695.792538847696 3837.5891676407227
1696.527356302886 3625.389885187059
1697.2619960036936 3455.33729023511
1697.9964579961907 3356.1024548149676
1698.730742326432 3305.132856084217
1699.4648490404488 3433.5329346908716
1700.1987781842563 3566.5384772115226
1700.9325298038548 3535.608683234909
1701.6661039452174 3513.5115764329735
1702.3995006543082 3539.9306899272406
1703.1327199770658 3639.952501212024
1703.865761959416 3447.8454771574698
1704.598626647261 3524.031985714816
1705.3313140864866 3329.699059218173
1706.0638243229587 3376.7612352100414
1706.7961574025303 3385.6294290452265
1707.528313371029 3305.194685239579
1708.260292274268 3233.3547381407416
1708.9920941580403 3296.4417655777775
1709.7237190681226 3325.3595149823464
1710.4551670502697 3260.841112037293
1711.18643815022 3176.8316321593547
1711.9175324136959 3411.247841831419
1712.6484498863938 3284.247152619338
1713.379190614005 3094.9577031630342
1714.109754642188 3353.987530533274
1714.8401420165883 3263.768148665568
1715.570352782839 3421.2166607299177
1716.3003869865497 3320.8443157875126
1717.0302446733076 3251.634472671783
1717.7599258886876 3189.712534305114
1718.4894306782444 3370.131659130836
1719.2187590875183 3018.287831935227
1719.9479111620203 3259.3076174396397
1720.6768869472544 3116.936861550865
1721.4056864887025 3294.0717911228626
1722.1343098318284 3096.0783801138205
1722.8627570220742 3182.030795835259
1723.591028104871 3078.9179760480743
1724.3191231256242 2984.5503311441416
1725.0470421297232 3079.3437632737932
1725.7747851625427 3116.116987924209
1726.5023522694337 3223.4589303238417
1727.2297434957363 3156.6770245411963
1727.9569588867635 2827.3821774047365
1728.6839984878152 3116.848501416101
1729.4108623441734 2831.8353252376387
1730.1375505011038 3023.901480867233
1730.8640630038426 3042.858514701834
1731.5903998976264 3052.4525125465902
1732.316561227657 3068.515582982342
1733.0425470391274 2985.625271793389
1733.7683573772065 2984.64983957911
1734.4939922870508 3064.2256656319414
1735.2194518137949 3062.5139607143174
1735.9447360025606 2934.2246044367266
1736.669844898439 3069.9500861515417
1737.3947785465189 2844.801417154505
1738.1195369918605 2883.9866751061363
1738.8441202795093 3035.3563873794633
1739.5685284544943 3034.5103074278313
1740.292761561821 3056.4350393917666
1741.0168196464838 2990.932807457216
1741.7407027534518 2964.3709573973542
1742.464410927687 3018.3058072586564
1743.187944214118 3041.70222971988
1743.9113026576688 2978.5301676451277
1744.634486303241 3049.926690253818
1745.3574951957125 2980.920640281326
1746.0803293799509 3021.2894091480784
1746.8029889008048 2910.121639845927
1747.5254738031017 2822.7559646720283
1748.2477841316504 2908.9528753564914
1748.969919931249 2889.4695876437045
1749.6918812466665 2715.2340786518917
1750.4136681226646 2917.734867615919
1751.1352806039777 2960.2445248930026
1751.856718735331 2685.592955815685
1752.5779825614281 2824.4512244055636
1753.2990721269507 3102.1307883302006
1754.0199874765676 2835.5261272521057
1754.7407286549314 2801.3003978792776
1755.4612957066693 2844.08835349583
1756.1816886763954 2782.0592994262547
1756.9019076087097 3043.982202393577
1757.6219525481865 2906.2485032547065
1758.3418235393856 2777.3743972046545
1759.061520626854 2826.6563577835705
1759.7810438551096 2864.8294209581336
1760.5003932686614 2717.180804593808
1761.2195689119999 2814.089163059183
1761.938570829594 2850.774052648261
1762.657399065898 2875.1049501095886
1763.376053665348 2715.0600078192124
1764.0945346723602 2731.890126193862
1764.812842131334 2874.0367996335035
1765.5309760866512 2770.954432332693
1766.2489365826787 2697.8019103243428
1766.9667236637597 2740.600201280702
1767.684337374223 2641.473746236049
1768.401777758383 2670.299004750986
1769.1190448605284 2772.084595987644
1769.836138724937 2655.545292409955
1770.5530593958665 2882.1955100328987
1771.2698069175603 2852.915609993002
1771.9863813342326 2894.258007735097
1772.702782690094 2787.5521856779937
1773.4190110293293 2955.23073541427
1774.1350663961111 2866.270375388388
1774.8509488345844 2818.3899386646617
1775.5666583888924 2779.0014867122195
1776.2821951031437 2890.4336227691465
1776.9975590214362 2734.8895008698546
1777.7127501878585 2900.827841201144
1778.4277686464684 2779.640066979354
1779.1426144413108 2820.309874156825
1779.8572876164162 2860.423034604279
1780.571788215797 2716.1415597058794
1781.2861162834415 2654.4849868956076
1782.0002718633277 2793.872470546072
1782.7142549994132 2828.851062488039
1783.4280657356376 2817.050434996902
1784.141704115922 2678.4068783421126
1784.855170184177 2661.2426157490127
1785.5684639842839 2785.267188339657
1786.2815855601148 2497.007474426995
1786.9945349555237 2743.948255372342
1787.707312214343 2605.9239465847677
1788.4199173803918 2927.3441952276157
1789.132350497468 2557.6934710262935
1789.8446116093583 2649.552292542389
1790.556700759822 2606.869480702254
1791.2686179926077 2721.2422551609
1791.9803633514493 2725.132170052525
1792.6919368800554 2488.418937177027
1793.4033386221236 2622.6003706744436
1794.1145686213295 2904.940373901388
1794.8256269213307 2788.5664478106883
1795.536513565774 2869.2997757986955
1796.247228598284 2454.983722856288
1796.9577720624693 2589.671828576111
1797.6681440019165 2676.1288617359905
1798.3783444602013 2515.961029739351
1799.0883734808776 2749.678082639166
1799.7982311074884 2663.170150399742
1800.5079173835475 2789.09948305057
1801.2174323525633 2649.3257133806364
1801.9267760580187 2586.8210671554
1802.635948543386 2565.4259005739445
1803.3449498521113 2554.6656745066375
1804.0537800276325 2671.264891420256
1804.7624391133668 2668.772608248362
1805.47092715271 2445.9301915929705
1806.1792441890484 2571.048249647404
1806.8873902657433 2665.706796909936
1807.5953654261448 2597.850461680474
1808.3031697135812 2490.889060807705
1809.0108031713662 2556.6891391391205
1809.71826584279 2541.8273708419574
1810.425557771141 2635.906534420399
1811.1326789996747 2641.6658315832237
1811.839629571632 2427.257179259954
1812.5464095302468 2561.047778386282
1813.2530189187182 2528.8402441102057
1813.959457780249 2473.1637268555814
1814.6657261580076 2675.4060991779234
1815.371824095153 2633.0926107330815
1816.0777516348262 2707.7911570732545
1816.78350882015 2348.72571534501
1817.4890956942272 2403.450076313461
1818.1945123001533 2548.696075162588
1818.8997586809928 2598.6868358389574
1819.6048348798067 2508.8186721264874
1820.3097409396287 2548.7432486670846
1821.0144769034796 2748.8176226909695
1821.7190428143622 2467.2840764791545
1822.423438715261 2673.0918239855955
1823.1276646491478 2626.9759017949277
1823.8317206589727 2596.6617018112784
1824.5356067876692 2567.9127177156797
1825.2393230781581 2575.223531522964
1825.942869573335 2398.415930739965
1826.646246316086 2470.395726380617
1827.3494533492758 2467.582680063467
1828.052490715756 2529.579318290522
1828.7553584583547 2526.8831838477176
1829.458056619891 2567.1808212462633
1830.1605852431585 2541.9313099846345
1830.8629443709433 2406.444644505654
1831.5651340460063 2528.7917547808133
1832.2671543110919 2379.9549266738895
1832.9690052089318 2802.9500310051217
1833.6706867822395 2464.5682217359763
1834.3721990737104 2611.5829594501724
1835.0735421260233 2539.4016729500117
1835.774715981841 2501.3701603894574
1836.4757206838058 2591.7280045111956
1837.1765562745459 2579.518189522195
1837.8772227966747 2438.8345290176344
1838.5777202927839 2494.205090157347
1839.2780488054523 2509.4408799063362
1839.9782083772352 2519.982121151155
1840.6781990506806 2691.0999158177697
1841.378020868313 2451.6199283064725
1842.0776738726418 2630.2236194127527
1842.777158106157 2500.3092593002466
1843.4764736113375 2495.1487667198803
1844.1756204306403 2546.8017935095877
1844.8745986065078 2332.3648191733155
1845.5734081813607 2359.3196126816633
1846.2720491976124 2380.2357805468873
1846.970521697649 2283.673253144895
1847.6688257238511 2565.517056227441
1848.3669613185684 2520.12391998911
1849.0649285241452 2226.2027378239823
1849.7627273829057 2569.3478983570885
1850.460357937156 2532.232277371945
1851.1578202291857 2185.4943523501174
1851.8551143012664 2484.417149236221
1852.5522401956569 2565.0444621073766
1853.2491979545957 2470.558619683581
1853.9459876203055 2372.2051164453137
1854.6426092349902 2326.7375277160086
1855.3390628408451 2407.411254323865
1856.0353484800362 2514.301685886295
1856.7314661947203 2570.568713881059
1857.4274160270397 2494.801209081593
1858.123198019115 2394.7384801314593
1858.8188122130487 2296.247171770032
1859.5142586509319 2349.1525687518674
1860.209537374838 2494.8690271490977
1860.9046484268183 2409.1738120151385
1861.599591848917 2432.6984414289327
1862.294367683151 2275.5294499094502
1862.988975971528 2424.1100432217754
1863.6834167560355 2378.8648365057625
1864.3776900786452 2526.8137183416748
1865.0717959813119 2421.4398889326035
1865.7657345059724 2329.8958256042943
1866.4595056945564 2563.7229352248078
1867.1531095889586 2335.2008364405683
1867.846546231076 2317.882261307272
1868.5398156627743 2441.424666009831
1869.2329179259123 2352.485472624362
1869.9258530623283 2342.2454254281006
1870.618621113843 2346.846191545767
1871.3112221222636 2289.072966537321
1872.0036561293764 2275.0504317032746
1872.695923176956 2320.7228410131115
1873.3880233067594 2471.9948477846606
1874.0799565605212 2255.547887539176
1874.7717229799673 2421.1408440289315
1875.4633226068036 2333.122417657374
1876.1547554827175 2509.717281769795
1876.8460216493859 2347.508422313605
1877.5371211484617 2374.168263860771
1878.2280540215852 2579.524829161709
1878.9188203103804 2159.3216413375385
1879.6094200564548 2396.6650945040137
1880.299853301396 2161.7900088918386
1880.9901200867826 2501.475779868222
1881.6802204541673 2539.7494769562036
1882.3701544450942 2434.9780629969364
1883.059922101087 2251.766351770769
1883.7495234636517 2369.911500878249
1884.4389585742792 2200.566989234407
1885.1282274744517 2217.1913924479213
1885.8173302056166 2595.829167479352
1886.506266809225 2323.6477044279713
1887.195037326701 2227.0154783186913
1887.8836417994517 2320.5964510200615
1888.5720802688702 2399.1644965755017
1889.260352776333 2349.951902456826
1889.9484593632042 2486.081021678715
1890.63640007082 2276.5552822957493
1891.3241749405151 2105.3011641167686
1892.0117840135954 2331.4511424469238
1892.6992273313572 2369.331456756871
1893.3865049350788 2343.4196947333285
1894.0736168660223 2393.0057474877844
1894.7605631654333 2415.5676897543085
1895.4473438745408 2274.930321807565
1896.133959034556 2513.6410167208874
1896.820408686679 2395.198850054317
1897.506692872088 2487.8134907041617
1898.192811631945 2426.905309819337
1898.8787650073991 2331.602203303177
1899.5645530395832 2438.8735710712003
1900.2501757696118 2389.8270374612434
1900.9356332385796 2246.675516182382
1901.620925487574 2461.562387017239
1902.3060525576602 2335.8437072539673
1902.9910144898859 2359.9143542696065
1903.6758113252872 2233.2479519774106
1904.3604431048789 2345.7807543474664
1905.0449098696663 2360.2097484130495
1905.7292116606295 2191.3385971468883
1906.4133485187394 2385.532173824062
1907.0973204849488 2129.4176569426663
1907.7811276001976 2293.6782924296285
1908.4647699053967 2251.165483397517
1909.1482474414588 2322.184594259016
1909.8315602492694 2083.899660261016
1910.5147083696957 2364.1291168313246
1911.1976918436012 2386.3395775770623
1911.880510711815 2304.482846167469
1912.5631650151681 2342.1193977631974
1913.2456547944657 2216.6313682077403
1913.927980090495 2256.0084912165125
1914.6101409440362 2238.226145184805
1915.2921373958416 2191.810743512603
1915.9739694866603 2377.3390245519777
1916.655637257214 2431.846014973927
1917.3371407482136 2269.8607383120316
1918.0184800003572 2431.8156906741106
1918.6996550543154 2262.093180366414
1919.3806659507554 2190.3598377586995
1920.0615127303208 2272.496609715527
1920.7421954336423 2310.968380907463
1921.4227141013343 2348.4657727993763
1922.103068773993 2283.6942779750584
1922.783259492202 2420.7418482697667
1923.4632862965227 2138.253772653755
1924.1431492275078 2144.2472055430326
1924.8228483256917 2229.577931833638
1925.5023836315922 2137.0009382145768
1926.1817551857057 1942.6343687873384
1926.8609630285227 2368.29853750813
1927.5400072005123 2304.8708528663155
1928.218887742125 2048.6855758495894
1928.8976046938005 2234.258425979856
1929.5761580959588 2294.7099605947765
1930.2545479890086 2178.034217342066
1930.9327744133352 2035.8289735725095
1931.6108374093164 2233.9401875872845
1932.2887370173066 2357.162568290785
1932.9664732776473 2073.2043180744076
1933.6440462306673 2312.524059071085
1934.3214559166754 2260.223036679374
1934.9987023759659 2398.8659412438233
1935.675785648813 2158.889070384038
1936.3527057754836 2102.349948692097
1937.029462796223 2434.866741645753
1937.70605675126 2098.277805946459
1938.3824876808085 2189.0575178160348
1939.058755625072 2154.3848216282486
1939.7348606242267 2253.1413562940843
1940.4108027184448 2280.555386925838
1941.0865819478713 2292.740098070214
1941.7621983526478 2156.6543192824342
1942.4376519728921 2187.8445278381855
1943.1129428487038 2157.7014288836194
1943.7880710201734 2234.951139260694
1944.4630365273733 2260.4145018414256
1945.1378394103576 2163.6900223430175
1945.8124797091714 2318.975455945467
1946.4869574638324 1957.8678442295288
1947.161272714353 2162.319762796244
1947.8354255007234 2284.0544330784587
1948.5094158629272 2119.880931677341
1949.1832438409183 2189.501904854437
1949.8569094746435 2330.8925587017284
1950.530412804037 2491.9122806543774
1951.2037538690092 2377.7363812471303
1951.8769327094578 2147.796354819623
1952.5499493652678 2099.103379700513
1953.222803876306 2136.7902275696224
1953.895496282421 2177.357866511671
1954.5680266234522 2191.5755501961944
1955.2403949392155 2246.6493531840947
1955.9126012695142 2102.790362262337
1956.5846456541403 2244.638893897288
1957.2565281328643 2028.3482333988613
1957.9282487454457 2267.159166727636
1958.5998075316202 2114.3025584298566
1959.27120453112 2109.066682492381
1959.9424397836501 2181.2555383909084
1960.613513328908 2230.066538494568
1961.2844252065697 2237.7408049280016
1961.9551754563017 1923.3785602194414
1962.6257641177453 2029.9012743837616
1963.29619123054 2054.8828237685457
1963.966456834296 2214.5550488183962
1964.6365609686181 2000.3202181215252
1965.306503673086 2309.6863868929313
1965.976284987275 2049.8064590584268
1966.645904950734 2075.490435653539
1967.315363603002 1966.9907383950697
1967.9846609836077 2136.556811125083
1968.6537971320486 2088.9943048071627
1969.3227720878222 2083.766124630603
1969.9915858904042 2065.655704596835
1970.660238579252 2248.150456561406
1971.3287301938108 2114.61195846302
1971.997060773514 2044.4496458445988
1972.665230357772 2039.76824956031
1973.3332389859843 2014.518908798576
1974.0010866975335 1937.8743388800485
1974.6687735317864 2135.9637944489114
1975.3362995280932 2208.3104189346113
1976.003664725793 2164.4285732137746
1976.6708691642052 1976.1418239910479
1977.3379128826364 1965.540689031397
1978.004795920373 2218.6470884651644
1978.6715183166925 2348.43072532606
1979.3380801108524 1913.1700397441787
1980.0044813420973 1930.27270878936
1980.6707220496555 1922.5561038420815
1981.3368022727373 2119.7258600234513
1982.0027220505417 1977.5143497932181
1982.66848142225 1970.2792772996752
1983.3340804270283 1997.205953115011
1983.999519104027 2121.5010821089963
1984.6647974923835 2066.4529532922206
1985.329915631215 2072.544419508865
1985.99487355963 2068.5294456787033
1986.6596713167146 2159.016713356551
1987.3243089415428 2026.9666203292988
1987.9887864731754 2189.0101195191774
1988.6531039506553 1993.1026455325573
1989.3172614130071 2282.6186295545585
1989.9812588992481 2044.0490190070145
1990.645096448372 1841.5138391925743
1991.3087740993633 2039.6212515695693
1991.9722918911848 1794.2064894358398
1992.635649862792 2183.398689228369
1993.2988480531185 2109.32694220023
1993.9618865010852 2259.8098037842174
1994.6247652455968 1905.016518437034
1995.287484325545 2042.557900030743
1995.9500437798033 1992.8746991219687
1996.6124436472292 1971.7420945363222
1997.2746839666706 2054.863747362399
1997.936764776954 1959.1098776747124
1998.598686116895 2013.7221374115732
1999.2604480252903 2142.276827276982
1999.9220505409212 2070.779267482894
2000.5834937025593 1872.5465018351847
2001.2447775489582 1959.880296199055
2001.9059021188514 1990.5712572299556
2002.5668674509616 1911.8538067522234
2003.2276735839987 1966.9841583089747
2003.8883205566508 2066.4738561819477
2004.5488084075987 1976.9476360313463
2005.2091371755014 2179.927430464636
2005.8693068990033 1886.622214821311
2006.5293176167397 2129.4275418683337
2007.1891693673224 1973.791946738796
2007.848862189354 1831.52849303484
2008.5083961214223 1797.1473480039851
2009.1677712020955 1943.7477420379478
2009.8269874699254 1924.2506932656972
2010.4860449634598 2251.946880403864
2011.1449437212177 1832.2200579808068
2011.8036837817108 2181.8073603063317
2012.4622651834325 1957.816933044494
2013.1206879648653 2101.217461674928
2013.7789521644736 2055.0636185670537
2014.4370578207036 1757.4627336189212
2015.0950049719922 1959.1745104710299
2015.7527936567585 2100.27099570515
2016.4104239134067 2062.1504990919093
2017.067895780323 2204.7256753985625
2017.725209295886 2172.333110308874
2018.3823644984514 2139.797459989701
2019.0393614263648 1897.354395098743
2019.6962001179545 1796.750095009902
2020.3528806115355 1972.7778644152907
2021.0094029454067 1898.6702993230804
2021.6657671578487 1876.7222391782675
2022.321973287133 1985.2509484063532
2022.9780213715148 1932.4567363195924
2023.6339114492293 2188.5365579908494
2024.2896435585026 1950.2689494701874
2024.9452177375442 1959.9138121761353
2025.600634024544 2081.778830337472
2026.2558924576842 1994.6321136285546
2026.9109930751292 2087.841215147634
2027.565935915025 1862.8268187653862
2028.2207210155066 2163.3996270422736
2028.8753484146964 2032.2504784229154
2029.529818150695 1852.6662142198797
2030.1841302615903 2039.94425990461
2030.8382847854573 1909.7579019356424
2031.4922817603601 1913.5352702476484
2032.1461212243357 1988.2891474198573
2032.7998032154192 1713.1705298115235
2033.4533277716218 1995.9622112517577
2034.1066949309443 1756.096819783242
2034.7599047313688 1930.2159805597112
2035.4129572108704 2063.781739455985
2036.0658524074006 1962.914482473973
2036.7185903589016 1991.970783105347
2037.3711711032956 2098.378817723869
2038.023594678496 1956.7179645756
2038.675861122394 1810.5657210728327
2039.3279704728757 2148.8743057983215
2039.9799227678031 1802.5101004652552
2040.6317180450278 2018.815711974891
2041.2833563423865 1949.2300113870667
2041.9348376977014 2099.602857040369
2042.5861621487784 2005.3472302397859
2043.2373297334088 2031.0971093983233
2043.8883404893695 1985.3179102956424
2044.5391944544208 1926.9659356011866
2045.1898916663158 1984.5678600472208
2045.8404321627804 2181.9207212962365
2046.4908159815368 1850.9491094077966
2047.1410431602853 1659.4186346485262
2047.7911137367173 1900.2016189139467
2048.441027748504 2006.5698682974064
2049.090785233302 1873.9927688640357
2049.7403862287592 1880.442647732279
2050.389830772503 2132.842136267378
2051.0391189021466 1827.1602943981893
2051.688250655294 1696.6168632463614
2052.337226069527 1994.5749398195755
2052.986045182417 2021.8196783295784
2053.634708031521 1665.1677571558976
2054.283214654375 1908.928147633987
2054.931565088511 1466.035619085633
2055.579759371436 1703.3390915374598
2056.2277975406523 1909.3158401621124
2056.8756796336384 2028.3504625877238
2057.5234056878617 2016.0014176887125
2058.1709757407752 2003.3547454093095
2058.8183898298194 2014.2040366096069
2059.465647992416 1834.5074472544316
2060.1127502659747 1901.6116781577523
2060.759696687888 1770.361425663744
2061.4064872955405 1924.690085724768
2062.053122126292 2013.3946820482774
2062.699601217497 1942.9660483386501
2063.345924606485 1872.6281640690777
2063.992092330587 2038.88096356614
2064.638104427102 1717.3618551428306
2065.283960933324 1945.1172098070886
2065.92966188653 1828.948410505302
2066.5752073239855 1944.4935279741744
2067.2205972829397 1740.723853377912
2067.86583180062 1879.1010743693812
2068.5109109142522 1815.101263556513
2069.15583466104 1893.3489533855548
2069.8006030781708 1795.1526710955834
2070.445216202821 1752.685525842647
2071.089674072153 1821.8719748140204
2071.7339767233116 1976.6516571785523
2072.3781241934303 1965.0151258264073
2073.0221165196253 2012.7650437791315
2073.6659537390024 1828.7947037205643
2074.3096358886505 1797.8178002041254
2074.953163005637 1955.5337334173516
2075.596535127028 1745.0958129510495
2076.2397522898664 1772.5444646652813
2076.882814531182 1828.6736284143583
2077.5257218879924 1938.7468004895804
2078.1684743973 1796.600169245082
2078.8110720960885 1806.8965164715257
2079.453515021336 2089.3416420084804
2080.095803209997 1983.670003076934
2080.7379366990135 1906.557506647791
2081.37991552532 1881.0772276521734
2082.0217397258275 1705.9353846647214
2082.6634093374414 1672.2666011461515
2083.3049243970418 1715.8203139482364
2083.9462849415067 1847.1544481802125
2084.587491007689 1978.8090184219557
2085.2285426324324 2075.0214206725227
2085.869439852564 1888.415599986019
2086.510182704902 1665.698502197633
2087.1507712262483 1840.7773621295698
2087.791205453381 1580.5336592310532
2088.4314854230743 1794.0292162826233
2089.0716111720867 1956.7943761827778
2089.7115827371617 1654.1404627419477
2090.351400155023 1891.527645349132
2090.991063462385 1865.3353788895724
2091.6305726959527 1679.6560758497176
2092.2699278924047 1810.7724657276417
2092.9091290884153 1796.359047717588
2093.548176320641 1673.308073804199
2094.187069625721 1938.2888124307312
2094.8258090402887 1784.6967116582207
2095.464394600951 1875.7396348919385
2096.102826344313 1875.461855412875
2096.741104306955 1915.1355631334318
2097.379228525453 1804.3719117146206
2098.017199036358 1691.0017880995697
2098.6550158762147 1883.8033350369255
2099.2926790815527 1868.1648284434818
2099.9301886888825 1839.4682740812755
2100.5675447347076 1794.1305737555078
2101.2047472555114 2083.669919511557
2101.841796287761 2008.8632915073588
2102.47869186792 1933.905809773109
2103.1154340324265 1817.246015897657
2103.752022817709 1631.3965361779128
2104.388458260184 1798.6110850590958
2105.024740396251 1903.069379004421
2105.660869262292 1752.535926652335
2106.296844894685 1767.6740822065033
2106.93266732978 2010.0383816221758
2107.5683366039284 1779.0354270369312
2108.2038527534532 1793.1901316519052
2108.8392158146726 1952.602460459016
2109.4744258238843 1868.5656386343421
2110.1094828173755 1748.2528864949513
2110.744386831422 1885.4231913688586
2111.3791379022787 1991.6242215777233
2112.01373606619 1743.0659284628812
2112.648181359389 1930.3916612021917
2113.28247381809 1929.2771515691772
2113.916613478492 1820.184264880074
2114.550600376786 1887.9528290598778
2115.1844345491445 1840.3237634937177
2115.818116031729 1796.1269806772548
2116.451644860679 1897.8763186275173
2117.085021072133 1688.8570080116788
2117.718244702204 1691.6727714253532
2118.3513157869984 1900.8181560060646
2118.984234362604 1728.8517270592624
2119.617000465092 1651.955829684619
2120.249614130529 1999.7483466051176
2120.8820753949585 1816.3049725019882
2121.5143842944162 1767.5219228622773
2122.14654086492 1665.9942036789241
2122.7785451424734 1919.5138444627403
2123.4103971630702 1627.6683199519505
2124.042096962681 1973.236670192749
2124.6736445772767 1935.1284407975138
2125.305040042802 1751.3102796215067
2125.936283395191 1601.6082310037496
2126.567374670365 1830.2770871643647
2127.198313904233 1761.85491765064
2127.8291011326855 1992.1385327078528
2128.4597363916037 1604.0562799805496
2129.0902197168507 1688.759105099376
2129.720551144279 1658.9740193207792
2130.3507307097225 1916.6448559387893
2130.980758449008 1879.2513532982514
2131.6106343979427 1705.8246580233488
2132.2403585923203 1969.928155430213
2132.8699310679276 1852.3592434023649
2133.499351860526 1848.261040262182
2134.1286210058715 1556.853667741008
2134.7577385397053 1625.1431987531862
2135.3867044977487 1824.88490158286
2136.0155189157176 1958.6559792362186
2136.644181829308 1724.599046011666
2137.2726932742025 1792.3043995243759
2137.901053286074 1853.9405586739172
2138.5292619005777 1746.3118598564993
2139.1573191533535 1708.9007753407986
2139.7852250800315 1882.7030674252342
2140.4129797162295 1717.0511888227295
2141.0405830975433 1881.7975485287905
2141.6680352595613 1548.8118748187421
2142.2953362378576 1685.353613202779
2142.9224860679915 1770.3775433560452
2143.549484785508 1673.4703072739972
2144.1763324259373 1656.110907266739
2144.803029024799 1759.0388798106233
2145.429574617594 1524.735834648027
2146.0559692398165 1901.688516852016
2146.682212926942 1830.7097448140769
2147.308305714432 1837.0174239916894
2147.9342476377333 1966.5882200975
2148.5600387322847 1745.0434863997984
2149.185679033506 1712.9932653713495
2149.8111685768017 1681.0073246774452
2150.4365073975678 1689.9308623490629
2151.061695531187 1839.4362947180093
2151.686733013021 2043.0445336046782
2152.311619878423 1726.7349783548216
2152.9363561627342 1718.296667196316
2153.560941901278 1484.2504046682272
2154.1853771293663 1794.7144746668316
2154.809661882293 1756.358620193671
2155.433796195348 1666.3336620530808
2156.0577801037944 1575.9901166781058
2156.681613642895 1610.112619929211
2157.3052968478896 1431.9424592976761
2157.928829754006 1754.136087994443
2158.552212396462 1862.9614470978108
2159.1754448104566 1705.4410331997672
2159.7985270311783 1720.5863878849134
2160.4214590938027 1258.8516029221382
2161.0442410334927 1414.6702041103574
2161.6668728853874 1621.2253083485527
2162.289354684628 1605.8794787461725
2162.911686466332 1678.5079280383604
2163.533868265602 1860.0175664583853
2164.1559001175337 1873.2833041908154
2164.7777820572046 1942.2696370074268
2165.399514119681 1658.193104354133
2166.021096340013 1667.2728264497368
2166.6425287532384 1832.42813861239
2167.263811394385 1529.4796054226272
2167.8849442984574 1906.0492533214237
2168.505927500455 1634.211463424657
2169.126761035366 1770.551153977718
2169.7474449381552 1832.8910147582556
2170.367979243778 1468.8619750865078
2170.9883639871823 1820.7982186345985
2171.608599203293 1579.2093819032898
2172.2286849270276 2028.185837529838
2172.8486211932886 1980.8806393656153
2173.4684080369625 1938.6450579852294
2174.0880454929265 1571.6878726775142
2174.7075335960417 1465.3278980004084
2175.3268723811543 1502.2040254560256
2175.9460618831 1539.1947358954455
2176.565102136701 1725.4847345674566
2177.1839931767627 1920.2655531835358
2177.802735038078 1546.5791956651412
2178.421327755432 1623.1820507614616
2179.0397713635866 1607.9808360225952
2179.658065897298 1664.7535891283314
2180.276211391305 1799.092393491053
2180.8942078803357 1779.8050642124872
2181.5120553991 1682.7115542473298
2182.129753982299 1413.7243181685808
2182.7473036646206 1754.9338219737147
2183.3647044807367 1723.3467365728477
2183.9819564653044 1666.1865400418221
2184.599059652968 1866.2567227590412
2185.216014078367 1718.8410943279007
2185.832819776113 1496.7489297888737
2186.4494767808137 1745.9058088023085
2187.065985127063 1638.1465509608615
2187.682344849436 1744.0685168163461
2188.298555982501 1814.7784337249948
2188.9146185608097 1823.0661027417123
2189.530532618901 1700.9329639938533
2190.1462981912937 1571.811845666387
2190.761915312507 1673.8085357979467
2191.377384017036 1461.504987868269
2191.9927043393654 1659.1301762201547
2192.6078763139667 1794.4422903831517
2193.2228999753006 1499.8948272134242
2193.837775357808 1685.9721236961864
2194.452502495922 1544.009347116765
2195.0670814240602 1716.8081146109394
2195.6815121766285 1475.8396583036902
2196.2957947880186 1797.136421074075
2196.9099292926057 1566.752901561029
2197.523915724758 1690.77345299005
2198.137754118825 1571.4065378617847
2198.7514445091456 1895.6748446392653
2199.3649869300443 1948.2139780583852
2199.9783814158327 2000.957642955204
2200.5916280008096 1978.5050261533943
2201.2047267192593 1807.8473069540628
2201.8176776054515 1595.182745216513
2202.430480693649 1369.5008571288763
2203.0431360180955 1703.548984061857
2203.6556436130195 1775.3974324347314
2204.268003512645 1493.418540042897
2204.8802157511727 1653.2501131283607
2205.492280362796 1968.7839324661625
2206.1041973816937 1652.4727612285922
2206.715966842032 1689.9519977402445
2207.3275887779655 1424.1731472733795
2207.93906322363 1622.888206508116
2208.550390213153 1486.8614144326039
2209.1615697806465 1802.577738398531
2209.7726019602105 1658.8734971297902
2210.3834867859277 1619.0987077779882
2210.9942242918787 1409.613367038622
2211.6048145121167 1770.4870704062673
2212.2152574806914 1987.4473527859914
2212.825553231638 1675.8397817036034
2213.435701798975 1987.863910184035
2214.045703216707 1766.8457100868145
2214.655557518832 1412.6271572804264
2215.2652647393297 1382.699364918913
2215.874824912169 1558.6939042259717
2216.4842380713 1735.258917537145
2217.09350425067 1542.5115575731302
2217.7026234842033 1850.7121290141963
2218.311595805819 1824.5167113640614
2218.9204212494133 1352.659575131754
2219.52909984888 1714.4402298346195
2220.137631638092 1335.610081739918
2220.7460166509154 1432.926383520175
2221.354254921198 1530.3659211845668
2221.9623464827764 1792.9972685002417
2222.5702913694713 1569.1259123784473
2223.178089615096 1781.9503747943
2223.7857412534486 1616.6639975835037
2224.39324631831 1440.9760349406956
2225.000604843457 1518.692433297808
2225.607816862641 1697.4944657733608
2226.214882409611 1652.6405301292355
2226.8218015180973 1785.3756411382928
2227.4285742218217 1517.5502253002153
2228.0352005544864 1553.184812429225
2228.6416805497847 1507.7058441178074
2229.248014241399 1563.5467431090522
2229.8542016629945 1468.7104987079015
2230.460242848223 1504.3176524879593
2231.0661378307304 1510.2647700069244
2231.671886644139 1516.2615673031137
2232.277489322065 1493.9657229230029
2232.8829458981127 1311.7477132645636
2233.48825640587 1733.0031362759637
2234.0934208789095 1779.2599640169913
2234.6984393507955 1722.1872979876468
2235.3033118550793 1730.6747633873438
2235.9080384252975 1602.1150441412215
2236.5126190949723 1588.7482319226397
2237.1170538976166 1512.5849446316283
2237.721342866729 1373.450386142827
2238.32548603579 1570.668637765919
2238.9294834382763 1548.5045393493533
2239.533335107646 1583.4465714745002
2240.1370410773434 1470.2721336393774
2240.740601380803 1668.136855023203
2241.3440160514474 1554.8615511693674
2241.9472851226783 1789.9127464725934
2242.550408627896 1794.3394052212946
2243.1533866004793 1669.1930938642072
2243.756219073799 1641.1526323622104
2244.3589060812064 1520.1332539076984
2244.961447656049 1537.7373817382997
2245.5638438316564 1679.5677295587425
2246.166094641343 1774.3641087019448
2246.7682001184166 1522.8514992087707
2247.3701602961664 1361.29443819379
2247.971975207871 1720.2512865874712
2248.5736448867974 1536.2599879532086
2249.175169366197 1555.529683973137
2249.7765486793123 1732.4706100322546
2250.3777828593684 1780.0325667411823
2250.9788719395783 1535.4540726292273
2251.579815953146 1552.9089544937024
2252.1806149332606 1503.1652839687358
2252.781268913097 1748.9662404839805
2253.381777925817 1614.0611961880675
2253.9821420045737 1468.5327246699794
2254.5823611825035 1620.5371060633383
2255.1824354927303 1852.1025205857295
2255.782364968365 1857.848145911989
2256.38214964251 1313.546042174486
2256.9817895482483 1361.02298092024
2257.5812847186553 1606.7800780847165
2258.180635186791 1591.5573927873197
2258.779840985704 1553.8070610800555
2259.37890214843 1507.0020896924557
2259.97781870799 1847.2742834824535
2260.5765906973957 1646.8993190327976
2261.175218149645 1827.9516677540935
2261.773701097718 1596.9573039063932
2262.3720395745895 1289.9365957535474
2262.970233613216 1443.7974745481063
2263.568283246548 1435.0827486149
2264.1661885075137 1426.2961168286263
2264.763949429038 1550.1278011298864
2265.3615660440246 1532.9942363141713
2265.959038385374 1432.3314256662484
2266.5563664859637 1752.4649470065956
2267.153550378669 1525.7169303957198
2267.7505900963424 1501.12377202802
2268.3474856718312 1575.611072525649
2268.9442371379664 1693.0394855339073
2269.5408445275643 1583.3570676550812
2270.1373078734377 1525.445938462218
2270.7336272083758 1475.0637660582406
2271.32980256516 1427.624425246868
2271.925833976562 1767.8617604248125
2272.5217214753357 1877.0586498457565
2273.117465094223 1487.2599753757295
2273.7130648659586 1238.1176653326022
2274.308520823257 1530.1869194566677
2274.903832998827 1759.6639623310002
2275.4990014253563 1755.969755592637
2276.094026135528 1752.23554937257
2276.6889071620117 1455.6927761982602
2277.2836445374614 1320.8998628227548
2277.878238294519 1445.7731288673165
2278.472688465812 1693.1186914904417
2279.066995083962 1480.5030907351152
2279.6611581815705 1706.4640573166646
2280.255177791232 1392.6769067383061
2280.8490539455233 1719.9707291635445
2281.442786677013 1789.8428517850066
2282.0363760182554 1620.3301499044178
2282.6298220017943 1511.3502207147123
2283.223124660155 1689.140670397188
2283.816284025859 1383.5072392692832
2284.4093001314086 1636.7101769564258
2285.002173009292 1580.7454805983623
2285.5949026919952 1559.108902444077
2286.1874892119777 1672.2569923078863
2286.7799326016993 1744.7697831814905
2287.3722328936 1311.2548859555907
2287.964390120109 1406.9356912173967
2288.556404313642 1726.294028315786
2289.1482755066027 1578.041131774657
2289.7400037313873 1591.9304576395373
2290.3315890203703 1367.4580786045717
2290.9230314059205 1480.7056950529507
2291.5143309203904 1434.4978754893568
2292.1054875961236 1483.225333352669
2292.6965014654506 1739.6201210734846
2293.287372560684 1525.7284469001852
2293.878100914131 1501.9369471276732
2294.468686558086 1478.1430002302488
2295.059129524827 1473.4108782592434
2295.649429846617 1694.7706202248803
2296.239587555716 1664.6993056174135
2296.8296026843636 1588.2026215667343
2297.419475264791 1755.8400613478607
2298.0092053292137 1391.3288673005095
2298.598792909839 1491.6930648768507
2299.1882380388597 1555.292527000149
2299.777540748455 1630.0977489619781
2300.3667010707904 1690.4689120808785
2300.9557190380256 1614.4513701263513
2301.544594682302 1605.700538388189
2302.1333280357503 1442.734542589667
2302.721919130485 1396.9245080458916
2303.3103679986198 1472.5424598704979
2303.898674672242 1548.3995176633875
2304.486839183437 1374.1448017148725
2305.0748615642697 1388.3360849799974
2305.6627418468015 1557.5930082059663
2306.2504800630704 1349.3277376997407
2306.8380762451143 1666.2240978116909
2307.425530424949 1673.8073134092679
2308.012842634582 1681.3948962307907
2308.6000129060103 1616.7726876082627
2309.187041271214 1590.9983310271678
2309.773927762164 1487.1210492607775
2310.3606724108213 1671.2690825792313
2310.9472752491274 1503.7347875064738
2311.5337363090184 1603.537118517043
2312.120055622414 1456.7985716230642
2312.706233221221 1671.3599790479882
2313.2922691373424 1635.74432283599
2313.8781634026564 1600.0208746477915
2314.463916049037 1523.122742482488
2315.049527108342 1587.4406778788814
2315.6349966124235 1589.3157201273543
2316.2203245931123 1668.6355359309152
2316.8055110822315 1528.6164657344295
2317.3905561115935 1492.3315435529516
2317.9754597129977 1417.914003409775
2318.560221918229 1364.8660330694333
2319.1448427590603 1311.7273848229495
2319.729322267256 1436.095365209282
2320.313660474563 1397.9936701999773
2320.8978574127195 1739.2285196871683
2321.481913113452 1914.8452285869807
2322.0658276084705 1597.1752502572494
2322.6496009294806 1485.825498266849
2323.233233108165 1502.998659411968
2323.8167241762058 1520.1925027382272
2324.4000741652617 1409.8595127342871
2324.983283106987 1682.1640418332165
2325.5663510330232 1611.867059345293
2326.1492779749933 1470.4994638274368
2326.7320639645204 1535.9640529467692
2327.3147090332004 1552.4287400194303
2327.897213212629 1584.7861966882501
2328.4795765343843 1617.0674756179726
2329.0617990300307 1374.6724103358695
2329.643880731124 1403.4423314807987
2330.22582166921 1432.3206740965084
2330.807621875816 1704.3882203428009
2331.3892813824623 1387.132449031283
2331.9708002206517 1442.69278826864
2332.5521784218818 1527.328031992181
2333.133416017634 1644.5045629162505
2333.7145130393765 1360.3272298737154
2334.295469518571 1630.979973500828
2334.876285486658 1729.9777146936965
2335.456960975076 1793.3624788886057
2336.037496015242 1856.9199877149822
2336.6178906385667 1592.080706932197
2337.198144876451 1659.0472790171177
2337.778258760278 1851.4012405394901
2338.3582323214214 1719.6190815255509
2338.938065591243 1587.4874507244417
2339.517758601087 1850.8967972365433
2340.0973113822965 1613.382727075718
2340.676723966193 1358.056613263965
2341.255996384094 1504.4891835171743
2341.835128667295 1889.735854390507
2342.4141208470883 1678.8408272181455
2342.992972954751 1465.790164997648
2343.5716850215467 1553.9596222993239
2344.1502570787306 1128.5714316746182
2344.7286891575386 1306.8047663183038
2345.3069812892045 1608.7114118805691
2345.885133504944 1583.8925245711903
2346.4631458359618 1572.8501587988949
2347.04101831345 1471.0933656660907
2347.6187509685915 1611.4860265274867
2348.196343832553 1575.8261699552768
2348.7737969364935 1480.7778223372131
2349.351110311558 1397.8689010124895
2349.9282839888765 1412.7717806793164
2350.5053179995757 1238.863921473192
2351.0822123747585 1304.5633226213083
2351.658967145526 1350.2913342363406
2352.2355823429643 1396.1751682740494
2352.812057998144 1557.165184780629
2353.3883941421263 1493.69360705825
2353.9645908059647 1535.6676696966929
2354.540648020693 1465.1303788815542
2355.116565817336 1570.6998958293123
2355.6923442269126 1676.5198643865867
2356.2679832804224 1621.8455813182334
2356.8434830088518 1328.32784066461
2357.41884344318 1630.5721693894523
2357.994064614377 1559.5499032421694
