#exp_cfg={"servo_angle": 0.0, "laser_lim": 100.0, "servo_angle_to": 18.0, "laser_wup": 0.0, "bt_dev": "EnSpectr-25AE3", "laser_wdn_max": 0.0, "frames": 10.0, "servo_used": 0, "servo_calib_use": 0, "laser_wdn_min": 0.0, "servo_pix_from": 90.0, "cooler_tout": 300.0, "servo_angle_from": 0.0, "servo_calib": "[-1.9174921013161362e-09, 3.9322238269163779e-05, -0.27385609119055809, 653.59552119713567]", "laser_autoctl": 0, "servo_pix_to": 3682.0, "laser_pw": 100.0, "cooler_on": 0, "laser_volt": 4.0, "cooler_autoctl": 0, "cooler_curr": 70.0, "cooler_startup": 10.0, "laser_fixed_pw": 0, "gain": 1.3, "offset": 2.53059635486, "servo_calib_degree": 3.0, "laser_curr": 55.0, "shutter": 8200.0, "servo_calib_step": 1.0, "laser_fixed_curr": 0, "exp": 2000.0, "ccd_volt": 4.7, "bt_addr": "00:06:66:62:5A:E3", "servo_delay": 500.0, "laser_autooff": 1}
#proc_cfg={"flat_auto_wnd": 200.0, "flat_auto_fr": 200.0, "flat_auto_shift": 5.0, "yconv": 1, "flatten": 1, "flatten_strength": 100.0, "xfrom": 300.0, "auto_max_frame": 2000.0, "auto_signal": 48000.0, "flat_auto_tol": 0.1, "autoclip": 1, "xrel_range": 0.0, "flat_auto_to": 4000.0, "intensity_adj": 1.0, "xrel": 7852.0, "rmhot": 1, "flat_auto_slit": 4.999999999999997, "auto_ini_exp": 300.0, "auto_off": 0, "xto": 2860.0, "flat_auto_ref": "", "flat_auto_rank": 1, "autobackg": 0, "xrel_adj": 0.0, "auto_black_lvl": 1, "base_wnd": 100.0, "sub_baseline": 0, "xconv": 2, "auto_max_exp": 1000.0, "auto_total_exp": 10000.0, "auto_exp": 0, "rmripple": 0, "black_lvl": 8217.5375, "shutter_clip_adj": 0.0, "auto_bckg": 0, "flat_auto_thr": 0.9, "subbackg": 1}
316.8218498245369 5104.241788117586
317.89969571804795 4949.744993965522
318.977263876126 4939.856237158975
320.05455438786703 4892.000494742055
321.1315673423287 4898.295179966054
322.2083028285215 4949.727011172277
323.2847609354267 4883.062562114245
324.3609417519747 4871.912361276899
325.43684536705587 4844.391070121098
326.5124718695279 4832.482074799091
327.58782134820103 4801.065005967732
328.66289389184385 4799.08381625438
329.7376895891921 4738.728085606295
330.8122085289342 4788.819337338515
331.88645079971866 4776.192602728632
332.9604164901575 4749.924065418009
334.03410568881554 4698.000095283355
335.1075184842266 4717.344928038983
336.18065496487543 4701.846855901056
337.2535152192122 4672.842235551207
338.32609933564163 4671.0514520294755
339.39840740253203 4664.1382558653895
340.4704395082099 4685.0064347873795
341.5421957409617 4593.084006776078
342.6136761890357 4614.644888092176
343.6848809406365 4600.106771702693
344.75581008392874 4569.420092733644
345.82646370703696 4499.163073305852
346.8968418980512 4590.1240989529215
347.96694474501055 4599.354915659102
349.0367723359268 4594.959449292088
350.106324758759 4534.4810403398105
351.1756021014353 4518.5938107538495
352.2446044518383 4576.775266449966
353.31333189781435 4555.457862551761
354.38178452716966 4547.3752243514755
355.449962427665 4520.2861681028635
356.51786568702846 4462.004667313907
357.58549439294256 4517.474055475479
358.6528486330535 4507.74931372429
359.71992849496564 4442.883315275414
360.7867340662433 4504.917292462897
361.8532654344144 4471.470012078865
362.9195226869597 4515.427967819118
363.9855059113288 4449.137677154327
365.05121519492604 4441.6979483902005
366.11665062511565 4472.188466845939
367.1818122892273 4400.135513928108
368.2467002745434 4495.974478010313
369.31131466831175 4476.272021984529
370.375655557742 4402.235356825715
371.4397230299983 4433.268594407316
372.5035171722102 4454.566599694726
373.5670380714637 4429.1653741172095
374.6302858148101 4459.364973692908
375.6932604892554 4409.71689852202
376.7559621817709 4400.472105959829
377.81839097928605 4387.115497820023
378.8805469686886 4389.920455106685
379.94243023683157 4521.413924765251
381.0040408705263 4391.084511785759
382.0653789565458 4315.7165746928995
383.1264445816196 4367.004241161044
384.1872378324406 4348.054878157742
385.2477587956637 4379.121436339576
386.3080075579037 4353.022437737573
387.3679842057336 4258.842092676753
388.4276888256918 4335.572327733675
389.48712150426945 4261.5978199619285
390.54628232792857 4239.522601185372
391.6051713830857 4267.813781979699
392.66378875611736 4236.330445532638
393.7221345333637 4251.387480940855
394.7802088011249 4223.785724193558
395.838011645661 4252.265194935857
396.89554315319765 4214.644751121569
397.9528034099112 4198.793144366642
399.00979250194723 4125.433301750176
400.06651051541485 4128.452323106448
401.1229575363741 4212.116544743321
402.17913365085224 4164.960372144428
403.23503894483656 4205.238547938525
404.2906735042761 4083.490790272256
405.3460374150818 4068.7576227649224
406.401130763119 4099.600779855416
407.455953634224 4077.948547013048
408.5105061141876 4097.479149264334
409.56478828876243 4070.5017843542482
410.6188002436629 4084.302262968549
411.6725420645689 4050.209907575725
412.72601383711117 4072.1679149019283
413.77921564689314 4118.597989680751
414.8321475794728 4049.578322363912
415.88480972036814 3980.241933358986
416.93720215506437 4003.1117725747986
417.9893249690049 4018.479265279385
419.04117824759123 3972.914359788849
420.09276207619223 3985.2075625483158
421.144076540133 3980.1630121680587
422.1951217247042 3981.136346533183
423.24589771515275 3980.110312131761
424.2964045966928 3928.6153494403743
425.34664245449494 3975.410742130299
426.3966113736933 3933.3537608570978
427.4463114393875 3899.3286334671357
428.49574273662984 3952.5562584115314
429.5449053504417 3912.1450604104966
430.5937993658026 3944.0547357760433
431.6424248676558 3922.1698710779324
432.6907819409007 3943.4792449557763
433.73887067040596 3929.8646541897515
434.7866911409965 3906.346668621011
435.8342434374608 3914.0614844768047
436.88152764455117 3846.046166226308
437.9285438469724 3885.0224678574427
438.9752921294057 3868.8021757572083
440.02177257648145 3879.1078019345177
441.06798527279716 3839.093808930372
442.1139303029122 3885.228520595216
443.1596077513459 4000.582801833209
444.2050177025794 3852.544490993098
445.25016024105753 3840.7155724323225
446.2950354511886 3853.9932399136096
447.33964341733736 3903.382416306287
448.383984223834 3833.558639166616
449.4280579549686 3770.6686032633434
450.471864694995 3862.245230046208
451.5154045281306 3790.8659635819267
452.5586775385509 3812.2264147673295
453.60168381039693 3824.1119833862494
454.64442342776783 3879.1646734212068
455.6868964747264 3807.956420354009
456.7291030353008 3751.2080873725477
457.77104319347563 3852.0367030131333
458.8127170332027 3827.9187907700193
459.854124638392 3814.189195591086
460.895266092919 3866.9747297299523
461.93614148061897 3856.143375219707
462.97675088529104 3831.2691491932987
464.01709439069236 3887.887477377789
465.0571720805492 3897.0799003826096
466.0969840385442 3864.558351894266
467.1365303483253 3945.1722206455997
468.17581109350067 3899.94028000299
469.2148263576437 3881.066194037091
470.2535762242878 3842.0530461735434
471.29206077693016 3923.4338953808633
472.33028009902773 3947.8759435287784
473.3682342740012 3927.1313069902217
474.40592338523857 3903.336398764671
475.4433475160804 3919.9823730964745
476.4805067498364 3913.6164880659585
477.51740116978 3932.366668267113
478.5540308591426 3941.938804543649
479.59039590112116 3990.5669941329625
480.6264963788726 3996.443851931907
481.6623323755193 4002.7305560454106
482.6979039741436 3958.0233195429623
483.7332112577915 4027.0227716691797
484.76825430947247 4122.015797969628
485.80303321215797 4098.213650857748
486.837548048783 4144.791490259688
487.8717989022425 4178.93697467715
488.90578585539697 4153.155215679815
489.9395089910686 4272.638412065719
490.97296839203955 4138.632193389886
492.00616414106116 4120.639331771686
493.0390963208429 4198.074603057086
494.0717650140559 4089.2688459970923
495.10417030333883 4083.1169300988704
496.1363122712901 4030.1019712631796
497.16819100046814 3924.4106378108822
498.1998065734024 3922.9309432691834
499.2311590725767 3918.065114527874
500.26224858044407 3838.8399131699125
501.2930751794156 3853.0321498205913
502.3236389518679 3817.1054568516447
503.35393998014115 3801.7412026859347
504.38397834653733 3775.89848722818
505.4137541333221 3745.247878845525
506.4432674227228 3747.637977312207
507.4725182969323 3736.9155066691733
508.5015068381035 3701.2143889315594
509.53023312835467 3708.8676901565464
510.55869724976765 3702.973659423191
511.58689928438434 3683.5145252458256
512.6148393142121 3654.928150640466
513.6425174212218 3694.9199278886103
514.6699336873462 3645.0448262290533
515.6970881944835 3660.056091779712
516.7239810244901 3595.4532415170534
517.7506122591931 3646.369946714966
518.7769819803761 3647.771561480902
519.8030902697901 3673.414372974946
520.8289372091476 3636.2239614338628
521.8545228801249 3667.7879900875146
522.8798473643619 3611.4436424853434
523.9049107434621 3652.758577417754
524.9297130989908 3675.444390813118
525.9542545124805 3623.2107249384994
526.9785350654201 3691.92845940044
528.0025548392696 3687.3318017875363
529.0263139154504 3591.304040267193
530.0498123753423 3648.285738855622
531.073050300296 3596.057176441785
532.0960277716204 3557.666910845254
533.1187448705896 3603.8460879253544
534.1412016784416 3599.20781656113
535.1633982763833 3607.9266540616527
536.1853347455726 3586.1288136737703
537.2070111671401 3525.9924157645714
538.2284276221817 3575.406624504771
539.2495841917516 3551.38970060054
540.2704809568677 3508.0071087651413
541.2911179985167 3563.4637078600836
542.3114953976419 3493.960046392459
543.3316132351592 3472.7992370802303
544.3514715919409 3511.211413713886
545.3710705488247 3497.1465177680025
546.3904101866156 3547.79261965868
547.4094905860784 3496.1420247378105
548.4283118279418 3469.206479606225
549.4468739929034 3501.8260655485087
550.4651771616191 3534.5486816797065
551.4832214147063 3463.832479950135
552.501006832761 3501.344377050316
553.5185334963226 3444.0690585496004
554.5358014859103 3536.108469802611
555.5528108820035 3532.6707355370077
556.5695617650363 3559.4979016335346
557.5860542154242 3463.5319282262767
558.6022883135283 3522.458422804683
559.6182641396881 3461.954818066393
560.6339817741991 3525.4617804171635
561.6494412973225 3513.9923270387153
562.6646427892883 3506.9256351654208
563.6795863302796 3483.879577791658
564.694272000459 3480.2300142954396
565.7086998799423 3501.358394067231
566.7228700488104 3454.6932461678234
567.7367825871115 3466.024983210909
568.7504375748576 3427.8790386970277
569.7638350920224 3440.9513997504605
570.7769752185486 3483.198744372393
571.7898580343353 3456.771431057663
572.802483619258 3421.6607158504385
573.8148520531431 3485.9201985515597
574.8269634157932 3426.943363100427
575.8388177869692 3415.172756405916
576.8504152463938 3465.3402749159623
577.8617558737587 3476.70784423663
578.8728397487175 3403.96237539085
579.883666950891 3414.3419062053354
580.8942375598654 3560.4815086226204
581.9045516551851 3549.581096368307
582.9146093163617 3570.256946590508
583.924410622878 3569.195531173351
584.9339556541727 3555.7035993568143
585.9432444896538 3534.6601234033965
586.9522772086875 3518.989906447137
587.9610538906127 3610.8807396508337
588.9695746147318 3499.891539170005
589.9778394603054 3491.3319994762496
590.985848506567 3489.568784112553
591.9936018327098 3467.664988363403
593.0010995178891 3404.3344245165817
594.0083416412344 3447.148866021032
595.0153282818283 3353.096537434524
596.0220595187293 3398.480399304638
597.0285354309508 3374.182919043435
598.0347560974806 3315.483070446802
599.0407215972609 3281.4448069703963
600.0464320092051 3305.2269023558874
601.0518874121954 3338.6859747211674
602.0570878850685 3309.308702485688
603.062033506636 3338.9155466284637
604.0667243556636 3307.9470029172617
605.0711605108936 3291.7895362254553
606.0753420510264 3408.5867886118203
607.0792690547278 3309.026196936297
608.082941600629 3303.4126227288157
609.0863597673306 3352.8526502277514
610.0895236333909 3343.5445007581
611.0924332773357 3439.694108056234
612.0950887776617 3354.3724698590013
613.0974902128219 3411.8390590791946
614.0996376612384 3453.431674910863
615.1015312013005 3534.1900064603533
616.1031709113595 3508.8799401595156
617.1045568697336 3548.948632120323
618.1056891547069 3564.721320907862
619.1065678445229 3653.841608856246
620.1071930173985 3701.921027583236
621.1075647515099 3702.611987905041
622.1076831250048 3721.847029005243
623.1075482159849 3796.995719382863
624.1071601025305 3763.6572093747463
625.1065188626781 3790.6952645599404
626.105624574433 3905.633137901886
627.1044773157682 3839.1385362016154
628.1030771646128 3898.5521860534473
629.1014241988742 3931.7949251821565
630.0995184964158 3888.333926710907
631.0973601350688 3958.4215230325317
632.0949491926294 3997.7723367023596
633.0922857468631 3912.7186794496033
634.089369875499 3938.3556529389994
635.0862016562278 3968.1935259807265
636.0827811667077 3893.303003500646
637.0791084845641 3927.4120208908107
638.0751836873878 3861.429842552427
639.0710068527369 3838.139076000508
640.0665780581294 3780.9555171441616
641.0618973810506 3706.367356814225
642.0569648989604 3765.899794227035
643.0517806892676 3626.086980361896
644.0463448293649 3706.7518356197893
645.040657396592 3608.892222790636
646.0347184682723 3557.9502476634902
647.0285281216875 3503.439691458254
648.0220864340772 3454.7882845637346
649.0153934826558 3405.3691679399153
650.0084493446047 3422.04391618488
651.0012540970674 3414.74945962626
651.9938078171526 3363.533595211867
652.9861105819346 3370.7366647208705
653.9781624684565 3432.1507725485912
654.9699635537254 3317.8890565820643
655.9615139147136 3359.3202901121963
656.9528136283589 3260.259650477978
657.9438627715699 3265.5068863645315
658.9346614212154 3229.489015101609
659.925209654135 3203.5706653217508
660.9155075471263 3224.1009432158235
661.9055551769616 3215.0250074448713
662.895352620375 3247.9593593655927
663.8848999540678 3266.022436118741
664.8741972547068 3117.3295356774106
665.863244598926 3176.012815189987
666.8520420633213 3152.7034543644377
667.8405897244611 3039.815146327932
668.8288876588758 3070.1586966471177
669.8169359430613 3086.860057863914
670.8047346534822 3092.2584435080335
671.7922838665672 3054.0132031061357
672.7795836587156 3079.7300315234543
673.766634106285 3130.1275679610394
674.7534352856092 3016.6713645738073
675.7399872729766 3032.7246926986786
676.7262901446538 3067.585363147282
677.712343976862 3071.189012900212
678.6981488457986 3140.6004994702685
679.6837048276229 3022.007650818007
680.6690119984596 3066.9224945147475
681.6540704344043 3041.7048034202912
682.6388802115107 3020.119928456018
683.6234414058108 3026.609523237109
684.6077540932874 2969.643557874881
685.591818349907 3016.608012703625
686.575634251587 3044.633130550738
687.5592018742263 3008.8055912912614
688.5425212936734 2946.207937675873
689.5255925857564 3146.496073581401
690.5084158262707 3024.0589541151876
691.4909910909646 2979.8627348576483
692.4733184555644 2983.399193669215
693.4553979957618 3055.4453733182368
694.4372297872123 3069.816314547871
695.4188139055404 3007.602849793005
696.4001504263324 2972.708003217072
697.3812394251509 3024.1293366116392
698.3620809775111 3055.641247674144
699.3426751589104 3011.235364824958
700.3230220448004 3057.4228785210007
701.3031217106054 3079.5258211356145
702.2829742317172 3078.639804674789
703.2625796834873 3001.698868672417
704.2419381412474 3027.8091226638385
705.22104968028 3096.538858993671
706.1999143758458 3078.3366824962636
707.178532303169 3064.047805140496
708.1569035374378 3144.1716779918797
709.1350281538107 3154.7270246385074
710.1129062274158 3158.5882687069397
711.0905378333373 3275.158357722443
712.0679230466376 3320.657780276034
713.0450619423427 3498.6153398777765
714.0219545954424 3504.0608018246116
714.9986010808989 3568.8447409708397
715.9750014736292 3605.502318972357
716.9511558485392 3785.6668554865355
717.9270642804786 3909.267250521313
718.9027268442787 3959.9375704947897
719.8781436147328 3982.97779121829
720.8533146666014 3995.148798816254
721.828240074612 3986.5733812697777
722.8029199134635 4020.4471444794603
723.7773542578125 3917.28221158044
724.751543182294 3879.005248280528
725.7254867615029 3826.819703617515
726.6991850700015 3712.7620720318832
727.6726381823228 3707.739433865673
728.6458461729599 3607.5048832481216
729.6188091163858 3596.147000562003
730.5915270870246 3617.5489911692225
731.5640001592856 3541.2950585887074
732.536228407529 3547.287479426998
733.5082119060917 3605.9223589808294
734.4799507292755 3575.7935223480868
735.4514449513481 3603.1387671536236
736.4226946465496 3634.1592764465595
737.3936998890786 3639.623806857252
738.3644607531078 3597.64613385805
739.3349773127793 3582.962104550364
740.3052496421951 3493.2120142988438
741.27527781543 3428.205002587633
742.2450619065221 3380.8657139633005
743.2146019894826 3315.8774916625816
744.183898138288 3244.8880587142894
745.1529504268801 3204.1163769646178
746.1217589291682 3085.0321048634873
747.0903237190341 3104.453617734385
748.058644870318 3004.276522264575
749.0267224568397 3028.464154202911
749.994556552374 2943.736077200512
750.9621472306771 2937.0862384656302
751.9294945654583 2935.5255877411173
752.8965986304011 2885.0934408392486
753.8634594991636 2822.500684480229
754.8300772453586 2854.092667228787
755.7964519425768 2813.81968251356
756.762583664371 2871.646330118804
757.7284724842611 2783.8536207418124
758.6941184757416 2854.7329529644267
759.6595217122667 2829.709064934371
760.6246822672638 2883.729717135614
761.5896002141235 2719.044271167221
762.5542756262093 2779.245050913979
763.5187085768503 2790.188463292089
764.4828991393406 2803.2828138907325
765.4468473869474 2806.377614198016
766.4105533929032 2838.851508446141
767.3740172304078 2800.4078547896147
768.3372389726283 2781.111868974678
769.3002186926988 2712.993315436225
770.2629564637282 2769.5168967244626
771.2254523587872 2708.5494243189924
772.1877064509154 2731.66731669411
773.1497188131179 2684.854566590769
774.1114895183728 2748.3063233174194
775.0730186396268 2688.0467467837852
776.0343062497905 2668.9365875321323
776.9953524217381 2667.969366731174
777.9561572283274 2727.664698484521
778.9167207423689 2665.204613450882
779.8770430366476 2667.484617793686
780.8371241839159 2633.6088160923878
781.7969642568951 2696.667485517747
782.7565633282757 2706.784507224626
783.7159214707099 2659.9573420078427
784.6750387568281 2712.3124487117107
785.6339152592227 2645.704591764044
786.5925510504512 2569.443774340025
787.5509462030477 2643.423855125111
788.5091007895098 2626.385709952999
789.4670148823006 2643.6604507949282
790.4246885538596 2622.4937456009484
791.3821218765861 2652.3298398683537
792.3393149228505 2566.5778044635913
793.2962677649975 2634.508291063406
794.2529804753303 2650.2797324934722
795.20945312613 2651.813755945352
796.1656857896378 2623.895497907107
797.1216785380675 2626.0136305956244
798.0774314435985 2623.6631117859743
799.0329445783846 2669.622451960475
799.9882180145414 2666.9733095139654
800.9432518241574 2648.747982060385
801.89804607929 2635.516331855316
802.852600851962 2671.843559553069
803.8069162141637 2662.5955453328293
804.760992237856 2705.341468872313
805.714828994971 2706.0368811703383
806.6684265574077 2697.0102600116425
807.6217849970271 2690.5817264635452
808.574904385674 2673.8682229557535
809.527784795142 2729.211342149323
810.4804262972102 2755.7697152457736
811.4328289636178 2666.0431906297135
812.3849928660748 2610.5939614208764
813.3369180762638 2647.2877954755318
814.2886046658241 2689.8374310522004
815.2400527063783 2652.0449562215044
816.1912622695108 2560.8739800823632
817.1422334267718 2636.7876292164574
818.0929662496856 2575.9800846569115
819.0434608097457 2566.4071499519214
819.9937171784059 2580.934577024771
820.9437354271013 2520.3743648761065
821.8935156272255 2599.816910478432
822.8430578501484 2521.2264659426755
823.7923621672016 2477.707208599192
824.7414286496896 2499.9729012582034
825.6902573688876 2511.1309309250673
826.6388483960363 2471.1165455328974
827.5872018023492 2473.996528751347
828.5353176590033 2482.7679984955985
829.4831960371503 2463.053042747845
830.4308370079016 2458.5891983879687
831.3782406423525 2496.5179446163156
832.3254070115545 2454.352820565199
833.2723361865319 2486.922372902659
834.2190282382799 2384.3023427579055
835.1654832377644 2467.4422524381243
836.1117012559116 2450.779041308465
837.0576823636256 2477.378240260463
838.003426631778 2409.390664917656
838.9489341312074 2384.9105936117585
839.8942049327197 2464.8791267007637
840.8392391070975 2485.655813400943
841.7840367250865 2417.1619169041533
842.7285978573982 2468.387646629903
843.672922574724 2453.0529147394886
844.6170109477152 2401.5361046723656
845.560863046996 2385.4759987181023
846.5044789431595 2455.75483191012
847.4478587067697 2408.4706262652526
848.3910024083561 2504.3963682726057
849.333910118421 2486.269183112521
850.2765819074339 2321.3804256820194
851.2190178458332 2462.9115431718974
852.161218004032 2442.1259634179523
853.1031824524016 2447.155882978265
854.0449112612987 2433.1527788351095
854.9864045010327 2418.5109976731774
855.9276622418947 2415.1300946778747
856.8686845541379 2460.007410700455
857.8094715079915 2418.839598234588
858.7500231736467 2463.317720022102
859.690339621271 2482.823303914439
860.6304209209939 2386.981010438263
861.5702671429244 2394.5447761608675
862.5098783571284 2455.721961626079
863.4492546336569 2444.410724628955
864.3883960425155 2411.540261361512
865.3273026536863 2472.1994148969225
866.2659745371238 2385.9866698184383
867.2044117627465 2555.15656974276
868.1426144004472 2422.79265963174
869.0805825200823 2465.5826314849232
870.0183161914847 2450.5654467064983
870.9558154844526 2508.7731976618893
871.8930804687552 2431.5284887057387
872.8301112141307 2438.6424570327918
873.7669077902865 2504.1501413925603
874.7034702669062 2561.3531981640385
875.6397987136315 2557.7102621349413
876.5758932000863 2523.1852280455614
877.5117537958522 2540.16228529254
878.4473805704911 2534.6274605901312
879.3827735935283 2524.855951644249
880.3179329344603 2574.1961134159205
881.2528586627541 2592.9989484688745
882.1875508478479 2604.690267241139
883.1220095591489 2563.7969895221695
884.0562348660296 2502.4446314479565
884.9902268378391 2539.7134196323827
885.9239855438955 2521.3807807005846
886.8575110534839 2531.372057648014
887.7908034358588 2504.7241838512155
888.7238627602474 2512.8787089609054
889.6566890958475 2640.0733120082996
890.5892825118208 2473.172339206769
891.5216430773125 2509.541617945809
892.4537708614189 2467.4343562510585
893.3856659332196 2473.264454547932
894.3173283617652 2435.30985382133
895.2487582160684 2480.1266434315357
896.179955565116 2412.3739342427007
897.110920477864 2424.2403136352204
898.0416530232451 2428.093784990805
898.9721532701478 2417.418704929987
899.9024212874428 2432.526183649219
900.8324571439662 2424.2748788313547
901.7622609085302 2384.11604818899
902.6918326499072 2387.2641110096747
903.6211724368477 2390.37993060497
904.5502803380696 2408.456625838894
905.4791564222614 2389.2487588974172
906.4078007580792 2378.768215661244
907.3362134141571 2420.190411573959
908.2643944590909 2450.797935209758
909.1923439614493 2361.2853970982314
910.1200619897754 2431.7513523218067
911.0475486125779 2454.7841850247614
911.9748038983344 2426.735477056124
912.9018279155007 2393.8004117597457
913.8286207324982 2316.320500805237
914.7551824177117 2445.9874035520506
915.6815130395116 2404.540843392987
916.6076126662283 2318.508687936854
917.533481366163 2350.9061947485598
918.4591192075914 2343.9757438004854
919.3845262587565 2434.310319000594
920.3097025878706 2363.9169585985696
921.2346482631237 2337.6370777137854
922.1593633526682 2319.5678395668374
923.0838479246304 2290.878616487741
924.0081020471061 2393.8683820225338
924.9321257881656 2307.93532081178
925.8559192158464 2330.6469951195295
926.7794823981512 2270.8394260971845
927.7028154030686 2212.319802907713
928.6259182985414 2254.1898223910016
929.5487911524906 2332.832725739418
930.4714340328119 2338.0555210000302
931.3938470073608 2277.280656933
932.3160301439748 2261.5085336346306
933.2379835104548 2285.8730485144597
934.1597071745709 2378.6380202094424
935.0812012040769 2286.636080520285
936.002465666681 2314.5887713023144
936.9235006300696 2269.380245977405
937.8443061619055 2322.637294318939
938.7648823298077 2255.7547047394246
939.6852292013809 2259.1672734794784
940.6053468441951 2283.8362686685673
941.5252353257874 2206.099993763294
942.4448947136698 2284.204139520536
943.364325075323 2271.3338564439327
944.2835264782043 2277.4404494038913
945.2024989897309 2263.877408689703
946.1212426773054 2269.332315850311
947.0397576082851 2354.820453005702
947.9580438500125 2350.5005271213486
948.8761014697939 2308.941084295225
949.7939305349064 2357.818375437494
950.7115311125999 2320.220750345513
951.6289032700952 2294.83897145033
952.5460470745875 2322.519387195176
953.4629625932339 2326.185479221066
954.3796498931715 2319.4728802668556
955.2961090415029 2381.1053854117276
956.2123401053068 2317.3488120079974
957.1283431516276 2312.59622447123
958.0441182474842 2288.340160803084
958.9596654598663 2371.282111163421
959.8749848557309 2389.9574643827555
960.7900765020167 2298.9748244685825
961.7049404656209 2288.8074615726596
962.6195768134185 2323.996688434453
963.5339856122537 2302.07198418148
964.4481669289453 2286.0242882023585
965.3621208302793 2304.6436100875153
966.2758473830145 2245.1296161948912
967.1893466538822 2330.0411159376254
968.1026187095813 2301.649313278183
969.0156636167867 2296.4725695618517
969.9284814421426 2308.9879068022474
970.8410722522622 2208.263766563269
971.753436113735 2326.173754276965
972.6655730931161 2228.3390791580914
973.5774832569368 2248.701350212015
974.4891666716958 2227.198616952142
975.4006234038698 2196.2530436103275
976.3118535198955 2215.3037947015864
977.2228570861935 2261.0047125284614
978.1336341691494 2258.093565572872
979.0441848351202 2154.9367767029726
979.9545091504333 2289.473639693625
980.864607181391 2225.8786321082457
981.7744789942699 2214.544178823032
982.6841246553086 2233.796129818591
983.5935442307236 2212.623315348633
984.5027377867027 2205.1598661077223
985.4117053894024 2218.1324321060133
986.3204471049557 2207.156437470072
987.2289629994648 2242.0642273963304
988.1372531390007 2253.0456898029133
989.0453175896091 2247.120753645127
989.9531564173067 2257.8760339941427
990.860769688079 2201.076213852545
991.7681574678918 2211.5856704170574
992.6753198226706 2216.137226052013
993.582256818323 2221.8026218176615
994.4889685207218 2154.2785467589165
995.3954549957143 2322.8939176907907
996.301716309119 2223.282137922653
997.2077525267232 2247.1678813051685
998.1135637142943 2235.036562456863
999.0191499375615 2225.7231706747198
999.924511262232 2218.1770964664092
1000.8296477539861 2281.8446915005397
1001.7345594784656 2255.0460231021198
1002.6392465012996 2172.6726340275923
1003.5437088880753 2298.3720714464503
1004.4479467043584 2293.2653552324746
1005.3519600156869 2188.580900806952
1006.2557488875718 2290.4454305847275
1007.1593133854858 2279.778050703763
1008.0626535748888 2186.143793101853
1008.9657695212009 2215.9594042016943
1009.8686612898182 2270.161510771078
1010.7713289461135 2264.417656027955
1011.6737725554212 2240.934684160992
1012.5759921830577 2242.4923091081955
1013.4779878943027 2249.905341388718
1014.379759754418 2243.514084029643
1015.2813078286254 2215.9631712202536
1016.18263218213 2185.788119549176
1017.0837328801026 2213.713043069668
1017.9846099876886 2165.537403747592
1018.8852635700023 2200.5191548287794
1019.7856936921362 2123.9279353357915
1020.6859004191447 2128.7967940176513
1021.5858838160675 2162.405297650261
1022.4856439479063 2133.730735288636
1023.3851808796389 2147.04893866421
1024.2844946762143 2177.3692548016493
1025.183585402554 2105.0917715036585
1026.082453123554 2032.189134588555
1026.9810979040776 2182.273606595321
1027.8795198089647 2103.9893246545944
1028.777718903024 2173.682048152005
1029.6756952510368 2140.6326151045387
1030.5734489177648 2088.815845216541
1031.4709799679313 2118.3338787415123
1032.3682884662358 2209.2845603157484
1033.2653744773506 2024.2990827148994
1034.1622380659192 2074.8471107185387
1035.058879296559 2182.275811691419
1035.9552982338591 2132.437464977399
1036.8514949423825 2151.4540633562747
1037.7474694866614 2172.0739827351435
1038.6432219312028 2097.216199111044
1039.5387523404825 2224.798390340601
1040.4340607789582 2165.5613643985516
1041.3291473110476 2137.477873005214
1042.2240120011465 2210.859620734261
1043.1186549136273 2265.213140783482
1044.0130761128294 2176.1529900764285
1044.9072756630649 2173.214415325188
1045.8012536286205 2208.6953505960223
1046.6950100737577 2297.2287594207332
1047.588545062701 2305.404794688437
1048.481858659663 2304.0630229174494
1049.3749509288118 2364.676047998696
1050.2678219343034 2318.9984792948344
1051.1604717402515 2243.713998086701
1052.0529004107575 2244.9343082126816
1052.9451080098825 2299.832696961432
1053.8370946016694 2231.498061776434
1054.7288602501267 2249.4862475262903
1055.6204050192446 2270.5181610878394
1056.511728972977 2247.2355791949426
1057.402832175254 2172.5791568224618
1058.2937146899785 2154.3813054249417
1059.1843765810263 2217.0557707360977
1060.0748179122456 2225.2890487367354
1060.9650387474576 2237.321973643717
1061.855039150456 2211.4631414170844
1062.7448191850071 2197.1436897212798
1063.6343789148505 2166.9232081603614
1064.5237184037014 2188.086072208746
1065.412837715241 2211.118549705082
1066.3017369131267 2151.161192595195
1067.190416060992 2110.0101362613887
1068.0788752224398 2125.285290332043
1068.9671144610438 2152.1020437121483
1069.8551338403558 2148.2685470281585
1070.7429334239023 2099.864825491467
1071.6305132751695 2081.762867509458
1072.517873457633 2151.8301002632957
1073.4050140347335 2120.376992929612
1074.2919350698776 2137.158792394442
1075.1786366264623 2119.0878846689693
1076.0651187678395 2165.583408279599
1076.95138155735 2117.308499392974
1077.8374250582929 2173.681802509932
1078.7232493339507 2153.489384723358
1079.608854447577 2119.320294881545
1080.4942404623907 2163.906547374035
1081.3794074415982 2140.78532719487
1082.2643554483657 2210.9795588695897
1083.149084545841 2145.826992551309
1084.033594797138 2114.624773528758
1084.9178862653516 2135.4183447099076
1085.8019590135427 2236.0909640647046
1086.6858131047484 2124.9668994955236
1087.5694486019802 2254.350677141075
1088.4528655682225 2238.3333223663403
1089.3360640664287 2226.1712835833396
1090.2190441595321 2269.7406063228696
1091.1018059104317 2258.2949125412715
1091.98434938201 2292.447798803486
1092.866674637111 2323.501303519518
1093.748781738559 2277.0194838430198
1094.6306707491512 2252.6174338953406
1095.5123417316554 2311.118033350055
1096.3937947488157 2280.2200579350265
1097.2750298633455 2257.728502693093
1098.156047137938 2219.9367899429994
1099.0368466352556 2224.594073043536
1099.9174284179317 2256.7451503931043
1100.7977925485757 2158.9086589175945
1101.6779390897755 2213.4510287002677
1102.5578681040806 2187.786776593823
1103.4375796540226 2207.8367035381216
1104.3170738021054 2107.5029851551344
1105.1963506108077 2028.4601043497291
1106.0754101425773 2057.49236979545
1106.9542524598382 2104.5689566756637
1107.8328776249855 2094.070881142836
1108.7112857003904 2110.001259438125
1109.5894767483987 2109.115457649738
1110.4674508313292 2129.533331198057
1111.3452080114657 2095.3273203036038
1112.2227483510815 2072.3699852156424
1113.1000719124077 2122.3944623931516
1113.9771787576592 2044.6474313221108
1114.854068949022 2075.0810763381282
1115.7307425486542 2160.262513180641
1116.6071996186893 2163.033740299156
1117.483440221229 2134.5827119363985
1118.3594644183577 2055.6874992751245
1119.235272272128 2137.661877560421
1120.1108638445658 2106.221454889309
1120.9862391976712 2179.923181534228
1121.8613983934229 2230.134724405381
1122.7363414937627 2197.055041269303
1123.6110685606182 2232.226126203509
1124.485579655884 2253.8920360901316
1125.359874841426 2277.575285432704
1126.2339541790916 2316.4024727113756
1127.1078177306936 2340.8008650203
1127.9814655580267 2312.411546880423
1128.854897722851 2316.8196526670604
1129.7281142869106 2240.6752888554743
1130.6011153119125 2280.7618572729734
1131.473900859548 2294.3859070467356
1132.3464709914697 2324.106171239942
1133.2188257693178 2288.407942276492
1134.0909652546961 2255.9576767407602
1134.96288950919 2194.8624032146668
1135.8345985943506 2328.871917745252
1136.7060925717087 2140.7803016701223
1137.57737150277 2212.468608695415
1138.4484354490069 2231.5799985230356
1139.3192844718778 2201.6893947804156
1140.1899186327992 2094.6096398843993
1141.060337993178 2224.752862845669
1141.930542614382 2088.22857895521
1142.8005325577597 2068.257202336891
1143.670307884635 2014.6177914561515
1144.5398686563003 2079.6619894349037
1145.409214934025 2099.3516819406273
1146.2783467790541 1991.4113064406288
1147.1472642526023 2063.546597426247
1148.0159674158622 2121.3853082289047
1148.8844563300026 2014.0781165469173
1149.7527310561618 1999.8756149553533
1150.6207916554504 1938.5511658755197
1151.4886381889592 1873.1837941944934
1152.3562707177498 2022.444379745088
1153.2236893028585 1977.1458583729295
1154.090894005296 1895.6149607078362
1154.9578848860474 1934.0633634733254
1155.8246620060709 1919.8273731688726
1156.6912254262988 1899.179409534086
1157.5575752076438 1996.727520608767
1158.42371141098 1948.0496576336268
1159.2896340971656 2039.8601949276435
1160.1553433270346 1906.0956704606128
1161.0208391613887 1947.4538066901325
1161.8861216610057 1799.1561230117513
1162.75119088664 1938.0735365642242
1163.6160468990201 1937.1858910593523
1164.4806897588442 1914.1587716144045
1165.3451195267917 1924.5568280373554
1166.2093362635114 1912.307463474002
1167.0733400296285 1958.8057671123338
1167.9371308857444 1874.401294982404
1168.8007088924278 1846.0693978383165
1169.6640741102328 1892.872049862545
1170.5272265996773 1908.230231427134
1171.390166421259 1875.7064665726787
1172.252893635452 1920.7045467439652
1173.1154083026995 1945.94148124423
1173.977710483421 1960.4925288118593
1174.8398002380145 1923.3138486728326
1175.7016776268483 1915.1807272837698
1176.563342710264 1893.2818941179514
1177.4247955485826 1882.240220170755
1178.2860362020947 1980.550682005523
1179.147064731069 1814.8749553926966
1180.0078811957483 1990.5971566496905
1180.8684856563486 1884.5033583431064
1181.7288781730604 1939.3367552635154
1182.589058806052 1888.698025930126
1183.4490276154593 1990.7061951454864
1184.3087846614017 1807.239397459683
1185.1683300039676 1994.1983743430471
1186.027663703222 2063.3495741508086
1186.8867858192025 1918.4348070534484
1187.7456964119228 2015.6038097507328
1188.6043955413716 1998.7768104589038
1189.4628832675116 1998.0326572199713
1190.3211596502842 1988.811575723756
1191.179224749596 2020.7811597847005
1192.0370786253388 1893.9431361158936
1192.8947213373758 2104.005541266333
1193.7521529455407 2152.7466257136607
1194.6093735096438 1993.6822659196928
1195.466383089477 2011.720899393445
1196.3231817447977 1984.880411741165
1197.1797695353398 2107.7311805725267
1198.0361465208189 1989.5880188235
1198.8923127609214 1967.206075484494
1199.7482683153048 2100.051406991709
1200.6040132436028 2111.2540070651908
1201.459547605431 2085.5991278178135
1202.3148714603722 2023.008433707084
1203.1699848679855 2042.752839517319
1204.0248878878065 2109.928409253675
1204.8795805793507 1923.1728230064953
1205.7340630020935 2159.6065272231417
1206.5883352155033 2087.0191829187743
1207.4423972790064 2021.5984003244735
1208.2962492520237 2022.5676575094185
1209.1498911939307 1996.5340657728782
1210.0033231640937 2003.1514598766585
1210.8565452218427 2119.2086700145683
1211.7095574264913 1871.9996782076528
1212.5623598373222 1932.8042958130504
1213.4149525135963 1842.0065488500265
1214.2673355145507 1925.230326590167
1215.1195088993936 1934.1381764469093
1215.9714727273113 1857.3134990964622
1216.8232270574663 1969.3745233462698
1217.6747719489904 1824.953092668547
1218.5261074609934 1888.5267295913231
1219.3772336525653 1992.2356589812903
1220.2281505827668 1948.7531021411455
1221.0788583106296 1948.895546573393
1221.9293568951707 1824.0072692305134
1222.7796463953746 1865.9508183729965
1223.629726870202 1928.6799713523556
1224.4795983785934 1841.3200193390755
1225.3292609794553 1903.546804666766
1226.1787147316809 1798.7580918536987
1227.0279596941327 1858.7030113385858
1227.8769959256424 1915.1061244552322
1228.7258234850306 1886.3827980939932
1229.5744424310833 1813.742969382684
1230.422852822563 1914.704841587284
1231.2710547182105 1996.6066478120556
1232.119048176739 1865.1521307367373
1232.9668332568417 1745.1861084285847
1233.8144100171812 1825.7250377944467
1234.6617785163999 1868.988942955199
1235.508938813111 1761.0032517506163
1236.3558909659114 1819.9350844780124
1237.2026350333617 1851.457396114518
1238.049171074008 1923.4717524744465
1238.8954991463652 1808.1677960265529
1239.741619308932 1812.3245262092964
1240.587531620169 1856.758563069368
1241.4332361385277 1900.8092883916052
1242.2787329224248 1839.6276345676513
1243.1240220302534 1771.6002016960297
1243.9691035203869 1735.4240107632559
1244.813977451171 1938.1780464830565
1245.6586438809263 1819.5545026484579
1246.5031028679496 1722.6340742097268
1247.3473544705157 1790.4138551393341
1248.1913987468706 1845.1168005753723
1249.0352357552383 1722.7035971215028
1249.8788655538228 1772.6967164670987
1250.7222882007918 1847.0503281452718
1251.565503754302 1878.7007717872864
1252.4085122724755 1712.1964211192117
1253.2513138134182 1914.3505967633723
1254.0939084352049 1851.9699917066664
1254.9362961958905 1875.36230249195
1255.7784771535007 1910.2178537121295
1256.6204513660432 1943.3724145948606
1257.4622188915 1919.3301187961456
1258.3037797878242 1883.4641336075365
1259.1451341129468 1832.8963122887676
1259.9862819247755 1901.9079846942627
1260.8272232811978 1932.8682612452933
1261.6679582400666 1956.3828943756216
1262.5084868592203 1826.305846590799
1263.34880919647 1885.385874148839
1264.1889253095997 1891.0792506237879
1265.0288352563712 1991.267555887569
1265.8685390945266 1868.2734446362447
1266.7080368817751 1929.100495546099
1267.5473286758115 1995.735142951474
1268.386414534294 2027.6605965980682
1269.2252945148703 1817.9821549238018
1270.0639686751547 1962.6428440627537
1270.9024370727402 1889.876792767321
1271.7406997651997 1933.482245901411
1272.5787568100714 1803.0190051483296
1273.4166082648808 1862.549025660593
1274.2542541871244 1809.5979014493794
1275.091694634275 1997.348491423719
1275.9289296637817 1847.7670284702522
1276.7659593330663 1983.604298513735
1277.6027836995308 1897.2280573729295
1278.4394028205552 1941.2309295723826
1279.2758167534867 1930.9928967967512
1280.112025555658 1951.2332524306566
1280.9480292843746 1919.071200827566
1281.7838279969128 1777.0546283687295
1282.6194217505326 1937.667098505074
1283.4548106024686 1874.2374746202022
1284.289994609926 1921.2688183374971
1285.1249738300921 1942.0830579896926
1285.959748320127 1858.046365829275
1286.7943181371702 1953.1507781656364
1287.6286833383328 1840.6620048562993
1288.4628439807038 1965.3426781653743
1289.2968001213521 1893.316265634389
1290.1305518173194 1951.5783613035624
1290.9640991256183 1916.1650943031175
1291.7974421032523 1882.1278955439764
1292.630580807183 1882.916865062352
1293.463515294361 1907.8055193290215
1294.29624562171 2013.5339795591633
1295.12877184613 1871.873683294599
1295.961094024493 1876.065664952141
1296.79321221365 1935.5997486699075
1297.6251264704333 1994.7489965916586
1298.4568368516466 2051.033088466938
1299.2883434140658 1990.0052664856753
1300.1196462144526 2037.9733243315325
1300.9507453095375 2027.9696379709246
1301.7816407560313 2009.5155550912582
1302.6123326106172 1958.213686211675
1303.4428209299622 2053.1743304699344
1304.2731057707024 2228.038818647107
1305.1031871894502 2021.1766675557828
1305.933065242798 2052.030862488307
1306.7627399873181 2089.405336069443
1307.5922114795467 2205.8331357939232
1308.4214797760123 2422.5404173581696
1309.2505449332057 2151.5754410494224
1310.0794070076026 2117.2733717135975
1310.9080660556538 2219.355540353672
1311.736522133786 2084.4830851513575
1312.5647752983987 2136.8222099944132
1313.3928256058734 2056.409686158023
1314.2206731125661 2075.013966616544
1315.048317874809 2225.0990728674456
1315.8757599489109 2235.277088596832
1316.7029993911547 2154.1722357865046
1317.5300362578055 2242.0763956218934
1318.356870605101 2172.0149002818716
1319.183502489257 2133.7331259892526
1320.0099319664623 2230.526480350085
1320.836159092889 2280.952021407793
1321.66218392468 2266.6563394445348
1322.4880065179532 2076.901879735592
1323.3136269288134 2181.8432511353976
1324.1390452133292 2242.3075421615786
1324.9642614275563 2305.9658942339424
1325.7892756275214 2176.2716643973595
1326.6140878692295 2084.526152282543
1327.4386982086617 2269.010404651868
1328.2631067017755 2208.690415288945
1329.0873134045069 2178.309083688828
1329.911318372764 2125.263386499932
1330.735121662441 2066.4013864048425
1331.558723329399 2148.1696798346848
1332.3821234294774 2043.9796301107476
1333.2053220185007 2158.517831526221
1334.0283191522612 2050.0312495022017
1334.851114886529 2069.2254403159554
1335.6737092770582 1911.7968524676078
1336.4961023795695 1937.6773829685887
1337.3182942497697 1943.5925593609034
1338.1402849433325 1909.4299686383451
1338.962074515921 1829.442233186206
1339.7836630231632 1865.851022539779
1340.6050505206676 2033.8670565312034
1341.426237064028 1975.0508502776113
1342.2472227088037 1888.7728469157512
1343.0680075105338 1872.1512067603755
1343.888591524741 1870.5027394969657
1344.7089748069138 1918.5517552055455
1345.5291574125276 1902.419059534794
1346.3491393970307 1723.945658146553
1347.168920815846 1918.844607335819
1347.9885017243778 1870.9660148270918
1348.8078821780036 1832.868808465438
1349.6270622320844 1876.3481114880208
1350.4460419419447 1755.387244161875
1351.2648213629054 1850.9210122294276
1352.0834005502438 1783.4352404450879
1352.90177955923 1798.808527975409
1353.7199584451064 1835.1130959479856
1354.5379372630887 1889.79904676779
1355.355716068374 1786.7336496208143
1356.1732949161305 1770.9463135213998
1356.9906738615155 1815.4181356758756
1357.8078529596478 1760.960926035669
1358.6248322656375 1853.3703869837232
1359.441611834567 1765.8718012423137
1360.2581917214866 1829.6387971455447
1361.0745719814367 1777.780218699346
1361.890752669433 1795.8712894367654
1362.7067338404577 1793.9335155539345
1363.5225155494845 1776.1159270958972
1364.3380978514506 1878.647706993665
1365.1534808012839 1729.6427537798995
1365.9686644538815 1670.814735631274
1366.783648864117 1835.338923551451
1367.5984340868417 1908.3858711296657
1368.413020176893 1769.3077713407015
1369.2274071890715 1707.9863784210513
1370.0415951781652 1856.3408966036247
1370.8555841989346 1787.4013304927182
1371.6693743061223 1679.470575825932
1372.48296555444 1674.0697132480188
1373.2963579985844 1763.4150529156582
1374.1095516932255 1787.8407127587056
1374.9225466930166 1632.0984455194607
1375.7353430525782 1774.373581688178
1376.5479408265164 1691.5994453229905
1377.36034006941 1735.3108396972323
1378.1725408358216 1763.0572267195244
1378.9845431802805 1668.4040210588041
1379.796347157304 1847.5518944083483
1380.6079528213813 1737.8464552813543
1381.4193602269788 1747.9864000879236
1382.230569428546 1674.5262456793873
1383.0415804805016 1614.3848326459301
1383.852393437246 1628.7491119412848
1384.6630083531563 1786.482681058483
1385.4734252825892 1717.1491226751464
1386.2836442798798 1731.5697550622579
1387.0936653993322 1685.741360849131
1387.9034886952395 1777.584767026699
1388.713114221864 1778.4978686921027
1389.5225420334482 1787.4602699679788
1390.331772184214 1740.3516596363315
1391.1408047283585 1630.0925468963765
1391.9496397200564 1733.8421753927178
1392.758277213461 1821.4699084009549
1393.5667172627054 1787.135535657803
1394.3749599218918 1809.445382683299
1395.1830052451114 1666.4180006572474
1395.9908532864265 1734.0407116089093
1396.7985040998774 1671.3969978743382
1397.6059577394808 1709.8454977455283
1398.4132142592352 1731.5611308663133
1399.2202737131156 1736.0116476245796
1400.027136155073 1813.6415026974507
1400.8338016390353 1750.610756861604
1401.6402702189134 1786.8655242755751
1402.446541948586 1647.6078140440763
1403.2526168819204 1652.7236010077977
1404.058495072757 1638.9924328588804
1404.8641765749107 1684.630115674662
1405.6696614421799 1758.1841933491335
1406.4749497283356 1929.436176140507
1407.280041487129 1695.6827569904676
1408.084936772295 1577.1782665024728
1408.8896356375335 1772.1183244807776
1409.6941381365323 1704.2641145835455
1410.498444322955 1673.5198727728973
1411.3025542504402 1694.8090831130207
1412.106467972606 1750.1895210162343
1412.9101855430508 1802.4268125856336
1413.7137070153458 1633.8367267955005
1414.5170324430437 1742.2182616177222
1415.320161879672 1775.3371675135102
1416.1230953787435 1810.6738586739677
1416.925832993742 1644.6035341719587
1417.7283747781275 1621.2026221694061
1418.5307207853439 1686.1540891693137
1419.3328710688093 1800.433831356631
1420.134825681922 1561.678011572483
1420.9365846780584 1698.8624529150297
1421.7381481105713 1793.1242722937557
1422.539516032788 1718.3202020493718
1423.3406884980232 1657.8977370974928
1424.1416655595604 1719.27311614386
1424.942447270665 1679.9675573838172
1425.7430336845828 1763.2660196085471
1426.5434248545298 1709.359970101062
1427.3436208337116 1849.2542383757027
1428.143621675301 1831.6230107198749
1428.9434274324558 1910.2774055201087
1429.7430381583108 1710.4217583838156
1430.5424539059713 1762.7444159360105
1431.3416747285337 1965.7905432446812
1432.1407006790632 1817.15771198032
1432.9395318106053 1837.1387552287956
1433.7381681761835 1818.8115506555198
1434.5366098288014 1806.6053681719561
1435.3348568214424 1786.9709909453552
1436.1329092070573 1803.9928475135616
1436.9307670385879 1812.519945639496
1437.7284303689503 1925.8561813243982
1438.5258992510335 1914.1092198462902
1439.3231737377118 1849.610799704226
1440.1202538818306 1888.46619124473
1440.9171397362225 1718.1511837109454
1441.7138313536925 1750.8201683484713
1442.5103287870243 1808.1146628455142
1443.3066320889775 1762.8035621694785
1444.1027413122956 1885.9278006228365
1444.8986565096966 1822.7821410366437
1445.694377733882 1815.5399712145893
1446.4899050375207 1669.4726244952435
1447.2852384732687 1741.058568304495
1448.0803780937622 1781.100574169296
1448.8753239516063 1705.0259398055448
1449.6700760993954 1595.3911101461294
1450.464634589689 1815.9751617777688
1451.2589994750397 1903.7727609294675
1452.0531708079689 1609.991908663001
1452.8471486409799 1655.015822545276
1453.6409330265524 1771.6804884432318
1454.4345240171442 1656.2195007709647
1455.2279216651987 1567.185888459053
1456.0211260231263 1644.095984383878
1456.8141371433194 1945.2197561964065
1457.6069550781594 1671.4077971768002
1458.3995798799897 1567.6995552649107
1459.1920116011424 1619.9557723630105
1459.98425029393 1526.5172534156625
1460.7762960106338 1624.715705311409
1461.5681488035225 1619.502921426219
1462.3598087248392 1659.0602123735327
1463.1512758268036 1719.6088646711698
1463.942550161617 1549.4157242893457
1464.7336317814625 1659.5116515882132
1465.524520738496 1659.4538112859889
1466.3152170848552 1605.0866848224073
1467.1057208726506 1577.5214617079464
1467.8960321539817 1514.8076132859646
1468.6861509809169 1484.7275200564159
1469.4760774055085 1580.4142940170336
1470.265811479785 1446.5015273516706
1471.055353255755 1416.703311277247
1471.844702785409 1470.6791829098017
1472.6338601207044 1433.7866074312067
1473.4228253135934 1466.735489034076
1474.2115984159936 1382.3736697453025
1475.0001794798063 1435.4828874347268
1475.7885685569145 1406.4544944094343
1476.576765699172 1486.8770917348363
1477.3647709584238 1516.226218605671
1478.1525843864802 1567.9841231498126
1478.9402060351367 1442.887969661066
1479.7276359561693 1436.118603341392
1480.514874201328 1419.8170981001144
1481.3019208223468 1450.081160496691
1482.0887758709323 1267.0423734976569
1482.8754393987747 1421.3451940756656
1483.6619114575406 1343.3861010874548
1484.4481920988783 1431.0615807172535
1485.2342813744108 1378.5579251279794
1486.0201793357446 1408.3795473237262
1486.8058860344572 1400.343656493591
1487.591401522117 1432.6686064665023
1488.3767258502594 1338.0527778691664
1489.1618590704056 1309.844676058143
1489.9468012340494 1270.3161200934587
1490.7315523926754 1389.511370996143
1491.5161125977356 1424.9369563787
1492.3004819006637 1452.0422256709764
1493.084660352877 1366.5352482751728
1493.8686480057622 1398.3533509959802
1494.6524449106964 1467.7738215725262
1495.4360511190262 1538.4571364481205
1496.219466682087 1453.3444934510346
1497.0026916511779 1421.912006267432
1497.7857260775945 1386.8548957162723
1498.5685700125996 1396.025599691332
1499.3512235074395 1337.5690051974188
1500.133686613337 1344.9400049606384
1500.9159593814966 1363.7326254093014
1501.698041863101 1525.3176811680717
1502.4799341093094 1372.1278626567196
1503.2616361712662 1333.4962642671408
1504.043148100087 1287.6796372870542
1504.8244699468742 1441.5763011863767
1505.6056017626997 1412.198006369218
1506.3865435986281 1268.9346603206118
1507.1672955056893 1378.8285834905378
1507.9478575348967 1302.9696486773373
1508.7282297372512 1458.5014710688824
1509.5084121637192 1375.8639937472885
1510.2884048652577 1298.4352151844073
1511.0682078927948 1314.1094326480068
1511.8478212972423 1397.0167651219151
1512.6272451294917 1291.6641894058919
1513.4064794404076 1449.082831770483
1514.1855242808433 1362.8309513994493
1514.9643797016215 1433.2916482219657
1515.743045753552 1407.690002865765
1516.5215224874191 1389.398400577375
1517.2998099539836 1251.2340909664026
1518.077908203999 1421.8172894982051
1518.8558172881785 1412.921001709885
1519.633537257234 1453.50992985204
1520.4110681618404 1406.968937134046
1521.1884100526604 1411.7196554114846
1521.9655629803365 1318.7074598973172
1522.7425269954856 1520.3965136130305
1523.5193021487103 1584.640353103706
1524.2958884905856 1410.0158474237169
1525.0722860716687 1452.1422292160667
1525.848494942502 1358.0951704627792
1526.624515153595 1464.6658616260133
1527.4003467554485 1567.0709478096871
1528.175989798534 1458.7132981034383
1528.9514443333064 1370.4973816379093
1529.726710410203 1352.3331554828121
1530.5017880796331 1334.1332006432287
1531.276677391992 1395.4109682199899
1532.0513783976457 1541.8701591421477
1532.825891146953 1495.2688104410493
1533.6002156902414 1489.9615646451957
1534.3743520778207 1429.6344441493661
1535.1483003599806 1426.7484373037767
1535.9220605869923 1418.9464341039748
1536.6956328091019 1476.8207375697232
1537.4690170765407 1381.836304282983
1538.242213439511 1480.8567150365002
1539.015221948208 1385.8808980438196
1539.78804265279 1496.9652727218381
1540.560675603405 1275.0829074634535
1541.3331208501804 1440.328577800535
1542.1053784432224 1516.1090042726241
1542.8774484326168 1463.5896327118867
1543.649330868422 1415.304447575993
1544.4210258006842 1448.0268592435725
1545.1925332794308 1466.4725456911447
1545.9638533546604 1425.0629455703097
1546.7349860763552 1454.3336534764142
1547.5059314944829 1521.9305490427005
1548.27668965898 1394.9687198091412
1549.0472606197673 1516.6717735915042
1549.817644426752 1326.7643383412733
1550.5878411298072 1509.5517578383106
1551.3578507787988 1441.183840791844
1552.1276734235635 1410.4277586002067
1552.8973091139233 1439.4438094287063
1553.6667578996767 1527.144952090744
1554.436019830604 1406.1436324003703
1555.20509495646 1395.4141541181189
1555.9739833269869 1354.8942376491923
1556.7426849919011 1316.1201859615578
1557.511200000903 1391.772489927656
1558.2795284036674 1484.5430380904688
1559.0476702498509 1382.7718230665992
1559.8156255890954 1480.6642683677746
1560.5833944710157 1562.8639101967497
1561.3509769452048 1436.9565979284557
1562.1183730612447 1411.4146027886343
1562.8855828686865 1279.7079601153332
1563.6526064170703 1568.162061133412
1564.4194437559127 1542.3727416805957
1565.1860949347047 1455.9518529503698
1565.9525600029283 1461.9823869262684
1566.7188390100328 1661.7646780738542
1567.4849320054564 1396.480926136052
1568.250839038612 1421.501579504877
1569.0165601588997 1517.6636723489787
1569.7820954156887 1470.1176312879427
1570.5474448583373 1415.99176391629
1571.31260853618 1496.0796506175448
1572.0775864985299 1380.717755762367
1572.8423787946813 1538.1483168649045
1573.6069854739108 1475.5656883237614
1574.371406585471 1610.9403881437004
1575.1356421785986 1530.5119501867105
1575.899692302506 1463.0106514462989
1576.6635570063845 1596.68259787947
1577.4272363394157 1482.1235149111815
1578.190730350747 1370.598901444666
1578.9540390895163 1417.2449685086672
1579.7171626048384 1308.5609004219746
1580.480100945806 1472.9270344237357
1581.2428541614918 1395.7082967686708
1582.0054223009538 1438.1787650733884
1582.767805413223 1481.1937079193929
1583.5300035473156 1499.934193497378
1584.292016752228 1598.3452678519407
1585.0538450769309 1390.6011845727878
1585.8154885703807 1355.4090195640415
1586.5769472815136 1350.3070304178275
1587.3382212592405 1509.0790719860393
1588.099310552463 1520.5169843662748
1588.8602152100484 1341.0260285191614
1589.6209352808564 1522.486931753799
1590.3814708137234 1380.8983122380635
1591.14182185746 1396.931170810031
1591.9019884608679 1451.1382860688211
1592.6619706727215 1237.4333117361941
1593.4217685417734 1495.1582347207375
1594.1813821167616 1467.7432850787475
1594.9408114464022 1205.4496754362444
1595.7000565793933 1423.3376899296659
1596.459117564409 1444.6840356343107
1597.2179944501113 1388.7516399053263
1597.9766872851324 1308.985414796472
1598.735196118092 1403.8684717097472
1599.4935209975883 1506.250606305578
1600.2516619721973 1437.2173622286375
1601.0096190904787 1362.163648705165
1601.7673924009723 1338.7967313709792
1602.524981952196 1208.3943891610973
1603.2823877926476 1414.9229654809487
1604.0396099708087 1380.1001922758394
1604.7966485351371 1211.261919445152
1605.5535035340745 1362.0676735602144
1606.3101750160404 1428.979442269279
1607.0666630294363 1254.341128215165
1607.822967622642 1299.8294817827802
1608.5790888440224 1213.0325342596348
1609.3350267419137 1457.0040530161527
1610.0907813646445 1331.938684170425
1610.8463527605145 1320.4296023612083
1611.601740977805 1299.4779568601773
1612.356946064785 1320.6521964811166
1613.1119680696902 1274.8586167240678
1613.8668070407512 1296.0453393905123
1614.6214630261748 1179.874457900151
1615.375936074137 1395.497636352883
1616.1302262328118 1357.0666106484118
1616.8843335503425 1400.4182249716541
1617.638258074854 1146.4676511853872
1618.391999854457 1287.0361004751142
1619.1455589372363 1443.1313536710034
1619.8989353712623 1347.5366083267968
1620.65212920458 1141.8179006168707
1621.4051404852235 1268.1388046725644
1622.1579692611976 1268.3315246256896
1622.9106155804966 1310.439525147189
1623.663079491087 1240.8988423529695
1624.4153610409248 1452.581199924092
1625.1674602779385 1208.9971526071788
1625.9193772500403 1308.2260650168491
1626.6711120051277 1384.5217660888045
1627.4226645910676 1300.305359061629
1628.174035055721 1228.001133505303
1628.9252234469168 1405.6399697834108
1629.676229812474 1324.2963238413927
1630.4270542001905 1391.4803965535061
1631.1776966578382 1320.272467567131
1631.9281572331747 1348.2568595125663
1632.678435973945 1440.2751570107491
1633.4285329278573 1420.229199581251
1634.1784481426203 1189.8000304375582
1634.9281816659113 1386.2538253766893
1635.677733545388 1453.4299718762554
1636.4271038286934 1247.0609236126993
1637.176292563452 1427.625229314852
1637.9252997972635 1402.814510430379
1638.674125577716 1379.4161041638379
1639.4227699523672 1576.5544707556646
1640.171232968767 1391.6991467070302
1640.9195146744423 1384.8873645578237
1641.6676151168977 1468.6985054311256
1642.4155343436178 1454.2866152366614
1643.1632724020765 1394.3080088067406
1643.9108293397167 1374.705175954036
1644.658205203974 1308.7550909921054
1645.4054000422566 1320.8328469671962
1646.1524139019566 1332.8123477555398
1646.8992468304423 1358.8700277464225
1647.6458988750728 1352.4842398686853
1648.3923700831765 1433.8167966428446
1649.1386605020743 1368.1544714461259
1649.8847701790564 1485.7033828721064
1650.6306991614038 1454.8263889764917
1651.3764474963682 1461.4163620579993
1652.1220152311944 1270.0237644124231
1652.867402413096 1271.4739801927174
1653.6126090892776 1272.981211263088
1654.3576353069184 1490.8881078395655
1655.1024811131829 1445.052101351898
1655.8471465552066 1293.3928517716881
1656.5916316801213 1524.6621175591222
1657.3359365350298 1499.863033558124
1658.0800611670165 1352.2164822168359
1658.824005623148 1419.6488444608688
1659.5677699504722 1281.4986550587269
1660.3113541960192 1415.025275591061
1661.054758406799 1389.5658077658613
1661.7979826297997 1302.1479406770527
1662.5410269119966 1386.8945005150713
1663.283891300338 1378.7626346914014
1664.0265758417645 1316.9141366703914
1664.7690805831826 1432.8488081783855
1665.5114055714948 1390.5551320214815
1666.2535508535748 1544.8580355122756
1666.9955164762814 1231.0163233378667
1667.7373024864555 1378.1502627218204
1668.478908930916 1367.154501813555
1669.220335856462 1239.5751455055583
1669.9615833098778 1273.0755901756347
1670.7026513379296 1325.0772909447244
1671.44353998736 1429.8091007378803
1672.1842493048916 1250.6385775555432
1672.9247793372379 1421.8755246880316
1673.6651301310812 1323.2276711367108
1674.4053017330934 1304.4719866189785
1675.1452941899242 1154.2964670047
1675.885107548207 1290.6794590467193
1676.6247418545518 1188.9094732286808
1677.3641971555535 1224.5052434344527
1678.1034734977893 1435.1374271824682
1678.8425709278108 1256.871527209445
1679.5814894921605 1366.3737397935047
1680.320229237359 1269.5672684055426
1681.0587902098978 1312.8817601971473
1681.7971724562685 1382.1332658928247
1682.5353760229264 1210.0686282730585
1683.2734009563173 1287.9570298105077
1684.0112473028657 1114.8948210952142
1684.7489151089794 1254.2044135438173
1685.4864044210462 1304.1586594889557
1686.2237152854377 1192.3220479176064
1686.960847748498 1304.6407905564756
1687.6978018565642 1166.7020200556667
1688.434577655944 1232.9338828320383
1689.1711751929379 1162.2473668061543
1689.9075945138156 1382.5619502992172
1690.6438356648396 1279.19941002343
1691.3798986922448 1078.1603228918864
1692.1157836422499 1244.3110601467583
1692.851490561059 1210.3196836923173
1693.587019494853 1200.23805461053
1694.3223704897991 1019.3635971462621
1695.0575435920364 1042.5646122003786
1695.792538847696 1267.280701851363
1696.527356302886 1157.5773055260076
1697.2619960036936 1095.2652189762855
1697.9964579961907 1018.2822265921689
1698.730742326432 919.295378738396
1699.4648490404488 1031.7870556792261
1700.1987781842563 981.8177919800643
1700.9325298038548 1106.2375365787495
1701.6661039452174 1233.7576669218156
1702.3995006543082 1153.8172694367324
1703.1327199770658 1155.322493363819
1703.865761959416 1049.6073410205959
1704.598626647261 1169.541361144559
1705.3313140864866 985.7797864712796
1706.0638243229587 1065.4436932579147
1706.7961574025303 1011.8252383706655
1707.528313371029 1031.8904600441879
1708.260292274268 1020.9324624444291
1708.9920941580403 1092.6666303535867
1709.7237190681226 1073.4581859622995
1710.4551670502697 1031.949068253529
1711.18643815022 1014.0338276662781
1711.9175324136959 1196.8585942496456
1712.6484498863938 1001.8494356052213
1713.379190614005 897.8956450497217
1714.109754642188 984.6391193807189
1714.8401420165883 940.0982978115733
1715.570352782839 1022.3197270284652
1716.3003869865497 1104.7271391703875
1717.0302446733076 985.0690345175806
1717.7599258886876 1029.202199660068
1718.4894306782444 1204.7261097953722
1719.2187590875183 983.9508170507822
1719.9479111620203 1072.9926593082573
1720.6768869472544 1020.0380562689954
1721.4056864887025 1020.9123533690351
1722.1343098318284 1212.1478709635344
1722.8627570220742 1100.6923783183552
1723.591028104871 1046.8372730239191
1724.3191231256242 876.4008522700238
1725.0470421297232 962.7971844964674
1725.7747851625427 1132.020812326566
1726.5023522694337 1173.3807432352457
1727.2297434957363 1109.992542662612
1727.9569588867635 1084.1690018246006
1728.6839984878152 1058.3160042856653
1729.4108623441734 871.0229006260424
1730.1375505011038 971.2369533597641
1730.8640630038426 919.0979714491748
1731.5903998976264 915.4025320700817
1732.316561227657 1018.5604688103343
1733.0425470391274 816.6072834213486
1733.7683573772065 969.3484218711537
1734.4939922870508 991.0312541462608
1735.2194518137949 970.9021630859297
1735.9447360025606 996.3623124589878
1736.669844898439 989.0258908071664
1737.3947785465189 951.0768253510566
1738.1195369918605 857.9861551728966
1738.8441202795093 1000.0778207596026
1739.5685284544943 1080.3544128603812
1740.292761561821 1005.301777371196
1741.0168196464838 933.1676852777512
1741.7407027534518 1025.6853787246325
1742.464410927687 994.8677351794074
1743.187944214118 998.5673107729035
1743.9113026576688 973.1485588976373
1744.634486303241 961.587249061153
1745.3574951957125 1006.21271560358
1746.0803293799509 1060.9870749321417
1746.8029889008048 957.98265226839
1747.5254738031017 898.0017427951119
1748.2477841316504 857.9874317198237
1748.969919931249 974.759515532765
1749.6918812466665 841.1472721977018
1750.4136681226646 998.3997725689703
1751.1352806039777 1022.671983278198
1751.856718735331 846.8460516359086
1752.5779825614281 951.0756097374658
1753.2990721269507 1055.569633308382
1754.0199874765676 834.9005902680423
1754.7407286549314 918.4513611280539
1755.4612957066693 1022.4211149564584
1756.1816886763954 980.4712644946233
1756.9019076087097 971.1611997774402
1757.6219525481865 1014.9136048648376
1758.3418235393856 989.7267323101944
1759.061520626854 971.4688634785012
1759.7810438551096 1001.7059881549694
1760.5003932686614 888.493773760117
1761.2195689119999 997.9054359293657
1761.938570829594 1011.7322720950139
1762.657399065898 1024.0632488007022
1763.376053665348 957.5323067846884
1764.0945346723602 890.9902061155875
1764.812842131334 1025.4179591390796
1765.5309760866512 865.6618330599458
1766.2489365826787 886.1451558089357
1766.9667236637597 904.3428491633638
1767.684337374223 745.7444212575338
1768.401777758383 849.273449492635
1769.1190448605284 944.3499613139896
1769.836138724937 881.2333752060683
1770.5530593958665 1020.2230602742035
1771.2698069175603 955.483333611357
1771.9863813342326 1018.5492095414538
1772.702782690094 1008.5003061639958
1773.4190110293293 998.3642079746827
1774.1350663961111 913.1830288976414
1774.8509488345844 848.5165419938052
1775.5666583888924 1000.8722199225149
1776.2821951031437 1023.1531737663872
1776.9975590214362 877.5259656125902
1777.7127501878585 1030.9678674824909
1778.4277686464684 931.6305928383972
1779.1426144413108 898.7111323139188
1779.8572876164162 850.9559264325246
1780.571788215797 803.1691755787032
1781.2861162834415 888.3230769203135
1782.0002718633277 915.7519932181876
1782.7142549994132 960.1401212170658
1783.4280657356376 927.2087906946217
1784.141704115922 848.1789838318861
1784.855170184177 898.9344629457652
1785.5684639842839 914.9691336063115
1786.2815855601148 1011.034602083045
1786.9945349555237 1107.2304793210828
1787.707312214343 881.339541505843
1788.4199173803918 837.8944730297292
1789.132350497468 794.4473828676353
1789.8446116093583 969.8017016997821
1790.556700759822 872.4912806366583
1791.2686179926077 997.9558033898247
1791.9803633514493 834.5319510952537
1792.6919368800554 760.4380129140812
1793.4033386221236 919.6603329135584
1794.1145686213295 1020.3610087002356
1794.8256269213307 1022.2604477984967
1795.536513565774 946.3447501495805
1796.247228598284 798.9368379424138
1796.9577720624693 923.6974950010333
1797.6681440019165 1020.7693204648231
1798.3783444602013 932.1453403456774
1799.0883734808776 852.364191497871
1799.7982311074884 870.4339162121632
1800.5079173835475 1032.7893603806776
1801.2174323525633 914.7562320302528
1801.9267760580187 917.893843256605
1802.635948543386 948.2634130969457
1803.3449498521113 854.6002467050897
1804.0537800276325 917.1887531326563
1804.7624391133668 1020.4214270102866
1805.47092715271 981.7092953608193
1806.1792441890484 942.9707151688906
1806.8873902657433 863.1413742605749
1807.5953654261448 923.5213371560483
1808.3031697135812 894.278135963069
1809.0108031713662 803.4696337931716
1809.71826584279 829.8181132885242
1810.425557771141 911.1154201628317
1811.1326789996747 928.326281693667
1811.839629571632 790.4851065425803
1812.5464095302468 976.8290993719844
1813.2530189187182 918.875566112352
1813.959457780249 819.9497798784002
1814.6657261580076 940.5198653573995
1815.371824095153 940.9141383586457
1816.0777516348262 842.7213283280205
1816.78350882015 698.4805850729847
1817.4890956942272 707.1992266071665
1818.1945123001533 898.3990203168032
1818.8997586809928 939.9324624200106
1819.6048348798067 896.8912856076807
1820.3097409396287 865.5221895476152
1821.0144769034796 972.4813189722114
1821.7190428143622 891.528936913344
1822.423438715261 838.1579650459456
1823.1276646491478 777.1420079086756
1823.8317206589727 903.3664315014278
1824.5356067876692 814.5341842225587
1825.2393230781581 938.2582094164187
1825.942869573335 856.9242295201248
1826.646246316086 843.6564564263587
1827.3494533492758 811.0478440803718
1828.052490715756 874.3285333108724
1828.7553584583547 930.9313617141928
1829.458056619891 969.9188394255746
1830.1605852431585 822.9087590237265
1830.8629443709433 809.7412248745894
1831.5651340460063 884.2292861969415
1832.2671543110919 912.0491161619414
1832.9690052089318 939.9526590630596
1833.6706867822395 798.7495500011412
1834.3721990737104 893.9064679351725
1835.0735421260233 842.2541705103138
1835.774715981841 806.7277042616704
1836.4757206838058 841.6140179310421
1837.1765562745459 955.7262043232789
1837.8772227966747 756.0100174493501
1838.5777202927839 839.3647196077824
1839.2780488054523 862.6753293853944
1839.9782083772352 850.2779895822008
1840.6781990506806 1014.5989932909933
1841.378020868313 888.8970161063393
1842.0776738726418 864.1120457931218
1842.777158106157 767.2427673668178
1843.4764736113375 841.8188200769806
1844.1756204306403 961.1841061608263
1844.8745986065078 775.4478420045224
1845.5734081813607 830.9092937250083
1846.2720491976124 847.9681278477667
1846.970521697649 744.5097112022322
1847.6688257238511 776.7961131186369
1848.3669613185684 808.9561609395812
1849.0649285241452 904.4875779829694
1849.7627273829057 999.9080156788887
1850.460357937156 886.3190007492543
1851.1578202291857 898.3395480270585
1851.8551143012664 910.526911127801
1852.5522401956569 801.936245356558
1853.2491979545957 847.6417795702588
1853.9459876203055 745.3883069435968
1854.6426092349902 795.6979205273916
1855.3390628408451 805.6451309669334
1856.0353484800362 935.6039616383492
1856.7314661947203 946.6618298758085
1857.4274160270397 805.6922081215349
1858.123198019115 815.8427417049451
1858.8188122130487 771.487232298045
1859.5142586509319 782.4869845715241
1860.209537374838 886.2438089242585
1860.9046484268183 895.5992639946683
1861.599591848917 825.960179059326
1862.294367683151 737.0942080432189
1862.988975971528 810.6584126226991
1863.6834167560355 743.3782691279665
1864.3776900786452 768.2820723280076
1865.0717959813119 793.2204506971929
1865.7657345059724 844.3604156441037
1866.4595056945564 988.9553179128261
1867.1531095889586 820.3273638726611
1867.846546231076 722.245601994283
1868.5398156627743 902.1616537768241
1869.2329179259123 809.2704315872058
1869.9258530623283 967.6759748929541
1870.618621113843 836.0786848410492
1871.3112221222636 824.4705156174754
1872.0036561293764 777.686288540191
1872.695923176956 838.0449075716717
1873.3880233067594 972.3738657061991
1874.0799565605212 938.7754589860928
1874.7717229799673 905.1404184431951
1875.4633226068036 822.0976507317913
1876.1547554827175 789.6738927900445
1876.8460216493859 757.2015828374657
1877.5371211484617 897.4594663924038
1878.2280540215852 877.8405872884435
1878.9188203103804 849.7671198266311
1879.6094200564548 821.6405799611572
1880.299853301396 905.1695650872891
1880.9901200867826 776.7584432720556
1881.6802204541673 883.8899782989336
1882.3701544450942 914.748145059603
1883.059922101087 900.7315498367794
1883.7495234636517 886.6799224738259
1884.4389585742792 768.8572139809473
1885.1282274744517 696.3076954166847
1885.8173302056166 774.3435142959031
1886.506266809225 852.4846617273394
1887.195037326701 832.5290203940498
1887.8836417994517 799.1586485949624
1888.5720802688702 969.6155165305402
1889.260352776333 929.1791805834173
1889.9484593632042 865.4215879532967
1890.63640007082 841.9109752000979
1891.3241749405151 698.1934745683996
1892.0117840135954 876.5032139286739
1892.6992273313572 852.9778536971304
1893.3865049350788 906.7327553163217
1894.0736168660223 960.5570850732272
1894.7605631654333 939.6860561635394
1895.4473438745408 992.187634039484
1896.133959034556 1044.7107351430773
1896.820408686679 867.5961927546699
1897.506692872088 853.6639815641269
1898.192811631945 755.6799629519937
1898.8787650073991 862.7899912087436
1899.5645530395832 966.4391974190432
1900.2501757696118 868.4301647254566
1900.9356332385796 763.0969119692926
1901.620925487574 977.6700282789552
1902.3060525576602 873.2972689050633
1902.9910144898859 866.8809583777868
1903.6758113252872 794.1324251513272
1904.3604431048789 843.2256121172995
1905.0449098696663 765.338372816023
1905.7292116606295 687.2839873885846
1906.4133485187394 794.8872638680089
1907.0973204849488 757.8147720208436
1907.7811276001976 720.64602443565
1908.4647699053967 754.3726132495648
1909.1482474414588 709.2730187354416
1909.8315602492694 664.0511918082952
1910.5147083696957 719.7665827547146
1911.1976918436012 799.445308815627
1911.880510711815 810.1980577172545
1912.5631650151681 899.2091239550751
1913.2456547944657 722.917876061255
1913.927980090495 752.9394477117116
1914.6101409440362 870.6760267517309
1915.2921373958416 785.4137608211588
1915.9739694866603 793.3849852267548
1916.655637257214 920.6926582993053
1917.3371407482136 799.2123140139486
1918.0184800003572 883.1795337497018
1918.6996550543154 900.5065904912348
1919.3806659507554 811.1450750388132
1920.0615127303208 812.585917250091
1920.7421954336423 868.7825961152696
1921.4227141013343 965.8956248947652
1922.103068773993 884.5894230982369
1922.783259492202 925.9975647346025
1923.4632862965227 858.1199761639607
1924.1431492275078 790.2025647324174
1924.8228483256917 648.1456499202093
1925.5023836315922 657.0107696148782
1926.1817551857057 776.0532916900441
1926.8609630285227 895.3149302926549
1927.5400072005123 903.5567046668793
1928.218887742125 722.8358560997756
1928.8976046938005 798.4700441909015
1929.5761580959588 818.0511790339566
1930.2545479890086 708.1911258206171
1930.9327744133352 689.2750342493521
1931.6108374093164 795.4688831646027
1932.2887370173066 875.5389725427565
1932.9664732776473 867.1261201567147
1933.6440462306673 858.662270396237
1934.3214559166754 746.176060010359
1934.9987023759659 889.8394067393349
1935.675785648813 779.0002741904399
1936.3527057754836 688.7882019656515
1937.029462796223 741.2417749676963
1937.70605675126 793.8245832943085
1938.3824876808085 683.4079311174269
1939.058755625072 859.3999788848714
1939.7348606242267 756.4645175863452
1940.4108027184448 734.4290331238254
1941.0865819478713 934.0367182980697
1941.7621983526478 835.614607434413
1942.4376519728921 685.2390837313105
1943.1129428487038 758.8810615000832
1943.7880710201734 794.2736657573121
1944.4630365273733 852.7829161535686
1945.1378394103576 741.1250056386108
1945.8124797091714 658.1002349837196
1946.4869574638324 837.5350329308081
1947.161272714353 758.735399325335
1947.8354255007234 779.7138389364218
1948.5094158629272 790.0849934642481
1949.1832438409183 847.8704494863717
1949.8569094746435 889.2969045684133
1950.530412804037 830.9756096440915
1951.2037538690092 779.3374879535752
1951.8769327094578 727.597339879956
1952.5499493652678 787.4901866171409
1953.222803876306 971.9244169474848
1953.895496282421 923.0368456513461
1954.5680266234522 766.8992709570726
1955.2403949392155 909.6996001665381
1955.9126012695142 702.5706560212319
1956.5846456541403 722.5322139851826
1957.2565281328643 699.5656312696542
1957.9282487454457 717.6283948285019
1958.5998075316202 735.7463675051783
1959.27120453112 691.2949972127592
1959.9424397836501 894.564497782297
1960.613513328908 850.2032963713976
1961.2844252065697 867.5606028803974
1961.9551754563017 739.6347375701114
1962.6257641177453 652.7445607601816
1963.29619123054 743.6316500755464
1963.966456834296 765.7432267786938
1964.6365609686181 716.0016944604656
1965.306503673086 757.2724594148024
1965.976284987275 798.5685085241215
1966.645904950734 878.8255590421653
1967.315363603002 851.1308055001825
1967.9846609836077 823.3714569067331
1968.6537971320486 762.4819958562337
1969.3227720878222 788.4090976954571
1969.9915858904042 770.8783119819141
1970.660238579252 820.539408156724
1971.3287301938108 739.8114714301989
1971.997060773514 766.8772218884844
1972.665230357772 657.5084504150283
1973.3332389859843 683.7351075371
1974.0010866975335 710.0635453145826
1974.6687735317864 765.237718219938
1975.3362995280932 763.9175488243203
1976.003664725793 796.3448971814057
1976.6708691642052 646.7969304566731
1977.3379128826364 733.8049667791081
1978.004795920373 851.742556351354
1978.6715183166925 832.3053427662531
1979.3380801108524 782.9394047990827
1980.0044813420973 733.537914823239
1980.6707220496555 670.1437611564013
1981.3368022727373 796.4812020939488
1982.0027220505417 841.1136407245298
1982.66848142225 754.3232565897143
1983.3340804270283 667.4200501286045
1983.999519104027 759.3101795383909
1984.6647974923835 694.8541346554625
1985.329915631215 727.6945597986288
1985.99487355963 766.6101965609236
1986.6596713167146 875.0071741786256
1987.3243089415428 637.0587934517891
1987.9887864731754 864.4419297721272
1988.6531039506553 599.8069146439341
1989.3172614130071 948.7242161065108
1989.9812588992481 685.7453754543342
1990.645096448372 528.538182326885
1991.3087740993633 752.7942130606882
1991.9722918911848 581.1930482681797
1992.635649862792 832.3030590113282
1993.2988480531185 756.9416545223003
1993.9618865010852 726.6896044173561
1994.6247652455968 696.4085905642612
1995.287484325545 697.1657223846555
1995.9500437798033 615.3603709327892
1996.6124436472292 705.9278252282763
1997.2746839666706 813.0814434515185
1997.936764776954 683.0723876443133
1998.598686116895 640.8593054416272
1999.2604480252903 756.5097373551591
1999.9220505409212 846.7241254822766
2000.5834937025593 831.1951250081868
2001.2447775489582 815.5768894805168
2001.9059021188514 810.164497607751
2002.5668674509616 720.1268749842524
2003.2276735839987 632.9773207384075
2003.8883205566508 748.0408196330221
2004.5488084075987 841.5411387983368
2005.2091371755014 744.925398654833
2005.8693068990033 637.8578329392348
2006.5293176167397 591.2541549452204
2007.1891693673224 544.6244492507054
2007.848862189354 575.2503856907532
2008.5083961214223 652.7276818138729
2009.1677712020955 730.4245146845432
2009.8269874699254 741.7243673353735
2010.4860449634598 707.752407017135
2011.1449437212177 673.733117101025
2011.8036837817108 837.7357616866235
2012.4622651834325 723.8034481037427
2013.1206879648653 768.9142853572205
2013.7789521644736 869.8273151965684
2014.4370578207036 855.9095226656676
2015.0950049719922 841.9382145829856
2015.7527936567585 889.6042859542993
2016.4104239134067 644.7974985515718
2017.067895780323 621.9198659597927
2017.725209295886 598.9589715125701
2018.3823644984514 707.9788092014442
2019.0393614263648 799.2275952973143
2019.6962001179545 691.8209118462319
2020.3528806115355 845.0554436420089
2021.0094029454067 812.0756511928355
2021.6657671578487 628.4386336530634
2022.321973287133 706.3278369262664
2022.9780213715148 667.7314440739899
2023.6339114492293 771.7197565683003
2024.2896435585026 712.7764663750527
2024.9452177375442 702.1046039518109
2025.600634024544 722.6873550285636
2026.2558924576842 855.6497353156562
2026.9109930751292 880.9189196986435
2027.565935915025 924.6924976169996
2028.2207210155066 968.6051523670833
2028.8753484146964 934.3670597951492
2029.529818150695 932.1012075344333
2030.1841302615903 929.7680784261972
2030.8382847854573 734.5498411468581
2031.4922817603601 788.0881576320056
2032.1461212243357 693.8133097396146
2032.7998032154192 830.0450685754216
2033.4533277716218 765.5945177847309
2034.1066949309443 768.5026603996092
2034.7599047313688 644.8886985788467
2035.4129572108704 678.9570236828827
2036.0658524074006 713.0596434606903
2036.7185903589016 800.6769168561477
2037.3711711032956 922.6641361600344
2038.023594678496 935.6288768618581
2038.675861122394 648.1131805690558
2039.3279704728757 922.0895223604939
2039.9799227678031 593.1003824638383
2040.6317180450278 794.5816037869929
2041.2833563423865 687.8869841680637
2041.9348376977014 901.1377601680311
2042.5861621487784 772.0005848623567
2043.2373297334088 1110.617998745235
2043.8883404893695 907.6331775606926
2044.5391944544208 670.6337071111936
2045.1898916663158 819.9049455947597
2045.8404321627804 738.8848499316666
2046.4908159815368 657.6771412165438
2047.1410431602853 475.4873972641156
2047.7911137367173 707.7681845637727
2048.441027748504 774.2875747510749
2049.090785233302 661.3318728287721
2049.7403862287592 635.8112974094228
2050.389830772503 652.384114881679
2051.0391189021466 668.9909271282867
2051.688250655294 751.4075740873596
2052.337226069527 632.6323803324046
2052.986045182417 777.1318827259468
2053.634708031521 622.2819133911246
2054.283214654375 526.4119670398416
2054.931565088511 759.3040559718977
2055.579759371436 683.7389306964016
2056.2277975406523 622.1399953112494
2056.8756796336384 580.1825997307043
2057.5234056878617 538.0943400130682
2058.1709757407752 736.4941776170488
2058.8183898298194 845.4694534930479
2059.465647992416 716.5015819070364
2060.1127502659747 784.5838895180902
2060.759696687888 597.6926295768593
2061.4064872955405 702.0235017163952
2062.053122126292 869.8841226396437
2062.699601217497 828.6887304194813
2063.345924606485 787.52657689007
2063.992092330587 672.0820104282204
2064.638104427102 617.8651328052279
2065.283960933324 840.63363600799
2065.92966188653 828.49268915622
2066.5752073239855 784.533294142387
2067.2205972829397 673.4727801776488
2067.86583180062 742.0057453799811
2068.5109109142522 581.9168428990728
2069.15583466104 629.9958035346423
2069.8006030781708 678.1201493079336
2070.445216202821 591.8420174972454
2071.089674072153 711.7967531521754
2071.7339767233116 850.1070377558465
2072.3781241934303 739.8310115117913
2073.0221165196253 755.0276698534537
2073.6659537390024 593.2465548299263
2074.3096358886505 622.7157213852072
2074.953163005637 652.2435690967851
2075.596535127028 673.2437350087018
2076.2397522898664 751.522934182199
2076.882814531182 598.5020174747553
2077.5257218879924 719.247766779314
2078.1684743973 859.6417453198231
2078.8110720960885 904.936729501664
2079.453515021336 950.2668018125244
2080.095803209997 753.1676347622671
2080.7379366990135 798.4109258561137
2081.37991552532 848.2820744649305
2082.0217397258275 804.9731995458559
2082.6634093374414 573.944322020521
2083.3049243970418 699.8399675328967
2083.9462849415067 734.8593831416325
2084.587491007689 769.9834654757759
2085.2285426324324 705.9308451435984
2085.869439852564 633.7266814706992
2086.510182704902 663.1894199300859
2087.1507712262483 685.7610064832669
2087.791205453381 701.4075170821394
2088.4314854230743 664.8893875145268
2089.0716111720867 776.8323546898847
2089.7115827371617 806.5105189627218
2090.351400155023 836.2656069257285
2090.991063462385 857.9721073310251
2091.6305726959527 747.5914316883222
2092.2699278924047 637.0271742233615
2092.9091290884153 745.0670657435173
2093.548176320641 585.8257626717957
2094.187069625721 749.033828607339
2094.8258090402887 610.5281413564496
2095.464394600951 614.7158840572927
2096.102826344313 664.6767943170819
2096.741104306955 789.933766825508
2097.379228525453 669.6844507152975
2098.017199036358 739.3028029887038
2098.6550158762147 809.0674922591919
2099.2926790815527 814.6719259867466
2099.9301886888825 765.940651389082
2100.5675447347076 636.6883645239172
2101.2047472555114 636.1796043088855
2101.841796287761 635.6709989614944
2102.47869186792 706.3371334545084
2103.1154340324265 635.8505586971289
2103.752022817709 522.419132622897
2104.388458260184 696.7470198304378
2105.024740396251 707.051669640088
2105.660869262292 717.3887173489763
2106.296844894685 688.3554983623023
2106.93266732978 647.3166428604259
2107.5683366039284 766.5876447459818
2108.2038527534532 705.2058555213066
2108.8392158146726 677.8838495488789
2109.4744258238843 650.5063801044389
2110.1094828173755 610.4374596256023
2110.744386831422 801.5401107726923
2111.3791379022787 770.0291181057432
2112.01373606619 816.9418572829809
2112.648181359389 884.5329552078834
2113.28247381809 787.6071719949916
2113.916613478492 789.8187269019288
2114.550600376786 777.4291592358381
2115.1844345491445 637.360880779919
2115.818116031729 652.665293886713
2116.451644860679 703.2829493795086
2117.085021072133 714.3449882409876
2117.718244702204 725.392121510274
2118.3513157869984 723.5986709497806
2118.984234362604 590.9717761162738
2119.617000465092 609.8014686735598
2120.249614130529 672.111493717499
2120.8820753949585 734.5210215250535
2121.5143842944162 643.151569108802
2122.14654086492 719.8250270143328
2122.7785451424734 659.1057809131022
2123.4103971630702 598.3351178985508
2124.042096962681 712.3609896556321
2124.6736445772767 766.317490499816
2125.305040042802 684.6301202173486
2125.936283395191 739.9661864375707
2126.567374670365 733.50754993036
2127.198313904233 831.0917798411605
2127.8291011326855 928.8050209776023
2128.4597363916037 899.9088793051908
2129.0902197168507 683.1226007778442
2129.720551144279 737.1597746517834
2130.3507307097225 770.0548138669171
2130.980758449008 783.0084187731422
2131.6106343979427 684.9829180490461
2132.2403585923203 704.0608513882271
2132.8699310679276 799.2584217000666
2133.499351860526 854.5817486667181
2134.1286210058715 693.8542579926418
2134.7577385397053 766.0747722168799
2135.3867044977487 838.4083498438793
2136.0155189157176 763.8523702613279
2136.644181829308 780.6555626322943
2137.2726932742025 645.9070333833257
2137.901053286074 642.0365535550553
2138.5292619005777 638.1871235747534
2139.1573191533535 647.5410943914267
2139.7852250800315 778.8930490887153
2140.4129797162295 682.702667579352
2141.0405830975433 553.5914402365198
2141.6680352595613 610.2293568254325
2142.2953362378576 666.9827352226911
2142.9224860679915 533.7150176142611
2143.549484785508 606.3197985488903
2144.1763324259373 591.7196533308536
2144.803029024799 613.818489944271
2145.429574617594 716.4562246370108
2146.0559692398165 607.2623792863385
2146.682212926942 680.1156958179783
2147.308305714432 774.6255634896847
2147.9342476377333 731.8568121536198
2148.5600387322847 849.3576250916115
2149.185679033506 858.7846027846028
2149.8111685768017 692.4429835568504
2150.4365073975678 703.1682377373907
2151.061695531187 716.5394429784292
2151.686733013021 747.2493864996516
2152.311619878423 778.0697383952222
2152.9363561627342 767.3610331632287
2153.560941901278 721.3626750902655
2154.1853771293663 675.2123229593725
2154.809661882293 603.8711197119084
2155.433796195348 658.2206618773773
2156.0577801037944 712.552995391705
2156.681613642895 615.1526991921492
2157.3052968478896 530.4971804030871
2157.928829754006 589.2354857542421
2158.552212396462 648.0381826978728
2159.1754448104566 578.8028141959425
2159.7985270311783 722.1590585893279
2160.4214590938027 652.3729875523616
2161.0442410334927 582.5503991699527
2161.6668728853874 840.0546223704494
2162.289354684628 445.258503659498
2162.911686466332 650.0912877815864
2163.533868265602 763.338874446745
2164.1559001175337 745.8502790274977
2164.7777820572046 826.8854028153773
2165.399514119681 660.0682806770544
2166.021096340013 738.5312996039045
2166.6425287532384 801.5298611099674
2167.263811394385 517.2211210201458
2167.8849442984574 726.1149704304065
2168.505927500455 516.9407004123302
2169.126761035366 616.7475605136199
2169.7474449381552 719.4691531724227
2170.367979243778 607.8677146718054
2170.9883639871823 598.87133816151
2171.608599203293 589.8555792661939
2172.2286849270276 634.0288149010732
2172.8486211932886 725.6717916247733
2173.4684080369625 772.7280591453168
2174.0880454929265 624.6224519962404
2174.7075335960417 639.9302985731965
2175.3268723811543 679.0833445291155
2175.9460618831 762.7071188880199
2176.565102136701 846.5615453047506
2177.1839931767627 859.6219235044528
2177.802735038078 753.0776282765858
2178.421327755432 787.358528979876
2179.0397713635866 831.0455849196618
2179.658065897298 874.8152065734375
2180.276211391305 778.3386002526111
2180.8942078803357 796.6477706374637
2181.5120553991 734.6009933042576
2182.129753982299 754.862076283357
2182.7473036646206 775.1719804307809
2183.3647044807367 757.2452925324543
2183.9819564653044 756.7975178151399
2184.599059652968 756.3749472016764
2185.216014078367 742.4720794555594
2185.832819776113 594.8211749537383
2186.4494767808137 607.6784834978753
2187.065985127063 800.5262250648268
2187.682344849436 760.6643445011623
2188.298555982501 799.3101902147694
2188.9146185608097 726.6860405115124
2189.530532618901 793.8238947720478
2190.1462981912937 723.780231673605
2190.761915312507 653.6441283623451
2191.377384017036 629.7118023341459
2191.9927043393654 705.2602306038258
2192.6078763139667 795.3058613911263
2193.2228999753006 885.5507771038568
2193.837775357808 783.9262011829643
2194.452502495922 579.4632099403345
2195.0670814240602 695.1176524487543
2195.6815121766285 524.4197101837788
2196.2957947880186 512.5943672739925
2196.9099292926057 500.74693654303917
2197.523915724758 545.2742236859593
2198.137754118825 752.3793993844833
2198.7514445091456 853.8290072224911
2199.3649869300443 865.8465261508984
2199.9783814158327 877.9284769057219
2200.5916280008096 892.8344344043104
2201.2047267192593 902.2573350351419
2201.8176776054515 571.9646689144295
2202.430480693649 339.4246389611126
2203.0431360180955 501.1371016746108
2203.6556436130195 663.2834342959111
2204.268003512645 754.7901620107712
2204.8802157511727 627.4175352807179
2205.492280362796 649.9922722051613
2206.1041973816937 672.648728289886
2206.715966842032 682.0492033399926
2207.3275887779655 788.3235827989147
2207.93906322363 794.9902716081299
2208.550390213153 750.8865681046022
2209.1615697806465 706.5578113051939
2209.7726019602105 742.4210288878647
2210.3834867859277 692.1322838487126
2210.9942242918787 545.6703093809277
2211.6048145121167 699.8999465854527
2212.2152574806914 744.00097392803
2212.825553231638 788.148377166352
2213.435701798975 921.5033356382362
2214.045703216707 832.8891038849888
2214.655557518832 534.6373729150727
2215.2652647393297 557.7980248001145
2215.874824912169 585.341759942141
2216.4842380713 613.0150003832093
2217.09350425067 699.1269816754232
2217.7026234842033 813.965254394586
2218.311595805819 710.8787386929616
2218.9204212494133 620.3519741132549
2219.52909984888 818.3327257862702
2220.137631638092 535.8584277924251
2220.7460166509154 801.4047041852525
2221.354254921198 556.9834743598043
2221.9623464827764 759.8643309211401
2222.5702913694713 632.7185779029016
2223.178089615096 673.5671766945876
2223.7857412534486 714.4920880657189
2224.39324631831 493.3125860324153
2225.000604843457 697.0548652861135
2225.607816862641 836.1880647043872
2226.214882409611 719.8766392437153
2226.8218015180973 691.4999684707269
2227.4285742218217 663.0299773740785
2228.0352005544864 579.4935881579893
2228.6416805497847 443.710382340234
2229.248014241399 509.13279420858055
2229.8542016629945 648.5453424951918
2230.460242848223 578.5645390880138
2231.0661378307304 679.7461128562061
2231.671886644139 574.167574463979
2232.277489322065 690.7537072695566
2232.8829458981127 329.2089701520974
2233.48825640587 597.0864512202048
2234.0934208789095 954.1107561301421
2234.6984393507955 740.6261149206537
2235.3033118550793 656.5987097132933
2235.9080384252975 684.0647416464246
2236.5126190949723 711.5973495562309
2237.1170538976166 605.5133663802286
2237.721342866729 722.9828576334047
2238.32548603579 707.477702223189
2238.9294834382763 731.4823491207378
2239.533335107646 699.8174267362785
2240.1370410773434 398.189152860836
2240.740601380803 455.75341252483395
2241.3440160514474 641.2323231089284
2241.9472851226783 827.0201922109916
2242.550408627896 670.244493859187
2243.1533866004793 706.1599030114046
2243.756219073799 724.4592958189048
2244.3589060812064 579.0292226023606
2244.961447656049 570.6869134885867
2245.5638438316564 732.322385135281
2246.166094641343 781.8381432123675
2246.7682001184166 520.4749706999162
2247.3701602961664 648.4747904803569
2247.971975207871 828.6632868877407
2248.5736448867974 761.1444622771977
2249.175169366197 773.7461657526615
2249.7765486793123 786.3262722355048
2250.3777828593684 694.6315322212355
2250.9788719395783 759.2277834103118
2251.579815953146 758.2559613495523
2252.1806149332606 778.886211934225
2252.781268913097 799.5214248858856
2253.381777925817 708.8656092312796
2253.9821420045737 764.609685000675
2254.5823611825035 786.0301497115908
2255.1824354927303 759.5940491117688
2255.782364968365 692.7025897525465
2256.38214964251 625.7401328146307
2256.9817895482483 437.19710792700346
2257.5812847186553 595.1654149086644
2258.180635186791 437.8919117302183
2258.779840985704 493.8997494550875
2259.37890214843 550.0167261066233
2259.97781870799 696.6232221628635
2260.5765906973957 721.3724330277406
2261.175218149645 720.5087342185882
2261.773701097718 627.49745453637
2262.3720395745895 525.2384106015461
2262.970233613216 670.9086404667921
2263.568283246548 834.9550848477691
2264.1661885075137 723.4468236161665
2264.763949429038 728.5088915593152
2265.3615660440246 809.4332852150035
2265.959038385374 818.349696307989
2266.5563664859637 827.2996406877585
2267.153550378669 684.9949135111539
2267.7505900963424 749.49176102603
2268.3474856718312 713.6140486644433
2268.9442371379664 621.2973636964214
2269.5408445275643 595.9888799727786
2270.1373078734377 702.055622307668
2270.7336272083758 699.7446671671383
2271.32980256516 697.4228124207441
2271.925833976562 816.1738634638857
2272.5217214753357 818.5339417103148
2273.117465094223 522.9120829319979
2273.7130648659586 544.9495389613908
2274.308520823257 727.0768414672712
2274.903832998827 837.1569769906785
2275.4990014253563 765.496227490874
2276.094026135528 693.6836715896225
2276.6889071620117 623.2579951949207
2277.2836445374614 582.0550222216078
2277.878238294519 662.996604566705
2278.472688465812 635.6333234259763
2279.066995083962 522.9706452503481
2279.6611581815705 737.3756716854415
2280.255177791232 571.8589213936755
2280.8490539455233 651.5298050515796
2281.442786677013 731.3715111068178
2282.0363760182554 848.7501530972529
2282.6298220017943 819.9987598476779
2283.223124660155 791.2395654602417
2283.816284025859 684.4121825177237
2284.4093001314086 645.3513944438351
2285.002173009292 766.585772272237
2285.5949026919952 716.5781999506319
2286.1874892119777 692.3140027500544
2286.7799326016993 612.229619802886
2287.3722328936 531.9329553652717
2287.964390120109 392.4405673052928
2288.556404313642 833.696384890833
2289.1482755066027 921.0821505216754
2289.7400037313873 607.9530072993645
2290.3315890203703 567.3900349595658
2290.9230314059205 683.1614909978748
2291.5143309203904 636.2947196214674
2292.1054875961236 605.2028153042821
2292.6965014654506 680.2119590807591
2293.287372560684 650.7657428658337
2293.878100914131 646.6879626551802
2294.468686558086 642.6222969593548
2295.059129524827 686.2778250686945
2295.649429846617 629.7044692476289
2296.239587555716 741.9613324411564
2296.8296026843636 678.8880562423957
2297.419475264791 603.6729666829184
2298.0092053292137 756.8878996063328
2298.598792909839 699.9217459502111
2299.1882380388597 689.2534879725742
2299.777540748455 909.2624554440647
2300.3667010707904 832.8833804927501
2300.9557190380256 562.2403853885463
2301.544594682302 555.3235804506855
2302.1333280357503 548.3906971267653
2302.721919130485 632.2517081943992
2303.3103679986198 944.5707169820362
2303.898674672242 832.6028906030136
2304.486839183437 564.357536029863
2305.0748615642697 421.43218398465814
2305.6627418468015 704.2448283945818
2306.2504800630704 734.1039515712114
2306.8380762451143 880.4910325788348
2307.425530424949 843.4558012873829
2308.012842634582 806.3289948680437
2308.6000129060103 890.0059297995361
2309.187041271214 998.2450917040553
2309.773927762164 555.3704335480172
2310.3606724108213 1026.6432649197584
2310.9472752491274 511.0527812591884
2311.5337363090184 794.0911292039049
2312.120055622414 762.3905714652432
2312.706233221221 904.0798417967032
2313.2922691373424 943.7045558764388
2313.8781634026564 983.4155856434238
2314.463916049037 807.2180969754954
2315.049527108342 796.6752705994613
2315.6349966124235 786.091299124823
2316.2203245931123 818.3237155512282
2316.8055110822315 512.3149679117026
2317.3905561115935 550.886450407589
2317.9754597129977 771.4694675182621
2318.560221918229 577.7836287159688
2319.1448427590603 778.1938487679788
2319.729322267256 652.9851461057227
2320.313660474563 441.09862682986795
2320.8978574127195 786.0844955124201
2321.481913113452 807.1370970735131
2322.0658276084705 532.9739503739222
2322.6496009294806 573.8268725385412
2323.233233108165 613.1257837471106
2323.8167241762058 652.5245941094976
2324.4000741652617 535.972066527566
2324.983283106987 603.866546756962
2325.5663510330232 608.799654825111
2326.1492779749933 613.672797426733
2326.7320639645204 722.1327463111818
2327.3147090332004 912.5065434331527
2327.897213212629 615.2243199146767
2328.4795765343843 776.0963165199857
2329.0617990300307 597.4115229810133
2329.643880731124 785.5186281401435
2330.22582166921 757.2809826471773
2330.807621875816 629.1289541365351
2331.3892813824623 500.82653858421537
2331.9708002206517 499.5873868967754
2332.5521784218818 535.7430265808977
2333.133416017634 631.4984650482655
2333.7145130393765 638.9730042738977
2334.295469518571 646.4769317827839
2334.876285486658 792.1558255171318
2335.456960975076 776.8124858345661
2336.037496015242 761.4483046108743
2336.6178906385667 810.23912497065
2337.198144876451 607.2982560592416
2337.778258760278 819.0003432040825
2338.3582323214214 788.1900518327508
2338.938065591243 757.2883596505668
2339.517758601087 826.9867134296203
2340.0973113822965 721.0467060579201
2340.676723966193 614.855630673788
2341.255996384094 686.27952372725
2341.835128667295 807.9692956582746
2342.4141208470883 834.743449629866
2342.992972954751 629.4908985305791
2343.5716850215467 511.3676833927958
2344.1502570787306 661.9849678393189
2344.7286891575386 523.639286295984
2345.3069812892045 520.6172612072122
2345.885133504944 648.0474786852637
2346.4631458359618 625.8807497261568
2347.04101831345 603.644851523322
2347.6187509685915 628.4294263635572
2348.196343832553 681.1444018717984
2348.7737969364935 768.8360353986536
2349.351110311558 682.8597768885884
2349.9282839888765 596.7931207605563
2350.5053179995757 382.08233667424116
2351.0822123747585 457.6364376818104
2351.658967145526 422.97194494352897
2352.2355823429643 388.2738925505867
2352.812057998144 644.8519696148139
2353.3883941421263 719.2620538949183
2353.9645908059647 762.2013315869168
2354.540648020693 572.8993140670551
2355.116565817336 692.4747857831038
2355.6923442269126 812.3210109110214
2356.2679832804224 792.0198398797831
2356.8434830088518 670.8768324294995
2357.41884344318 535.2924747790453
2357.994064614377 510.1339220243156
