#exp_cfg={"servo_angle": 0.0, "laser_lim": 100.0, "servo_angle_to": 18.0, "laser_wup": 0.0, "bt_dev": "EnSpectr-25AE3", "laser_wdn_max": 0.0, "frames": 10.0, "servo_used": 0, "servo_calib_use": 0, "laser_wdn_min": 0.0, "servo_pix_from": 90.0, "cooler_tout": 300.0, "servo_angle_from": 0.0, "servo_calib": "[-1.9174921013161362e-09, 3.9322238269163779e-05, -0.27385609119055809, 653.59552119713567]", "laser_autoctl": 0, "servo_pix_to": 3682.0, "laser_pw": 100.0, "cooler_on": 0, "laser_volt": 4.0, "cooler_autoctl": 0, "cooler_curr": 70.0, "cooler_startup": 10.0, "laser_fixed_pw": 0, "gain": 1.3, "offset": 2.53059635486, "servo_calib_degree": 3.0, "laser_curr": 55.0, "shutter": 8200.0, "servo_calib_step": 1.0, "laser_fixed_curr": 0, "exp": 2000.0, "ccd_volt": 4.7, "bt_addr": "00:06:66:62:5A:E3", "servo_delay": 500.0, "laser_autooff": 1}
#proc_cfg={"flat_auto_wnd": 200.0, "flat_auto_fr": 200.0, "flat_auto_shift": 5.0, "yconv": 1, "flatten": 1, "flatten_strength": 100.0, "xfrom": 300.0, "auto_max_frame": 2000.0, "auto_signal": 48000.0, "flat_auto_tol": 0.1, "autoclip": 1, "xrel_range": 0.0, "flat_auto_to": 4000.0, "intensity_adj": 1.0, "xrel": 7852.0, "rmhot": 1, "flat_auto_slit": 4.999999999999997, "auto_ini_exp": 300.0, "auto_off": 0, "xto": 2860.0, "flat_auto_ref": "", "flat_auto_rank": 1, "autobackg": 0, "xrel_adj": 0.0, "auto_black_lvl": 1, "base_wnd": 100.0, "sub_baseline": 0, "xconv": 2, "auto_max_exp": 1000.0, "auto_total_exp": 10000.0, "auto_exp": 0, "rmripple": 0, "black_lvl": 8223.0, "shutter_clip_adj": 0.0, "auto_bckg": 0, "flat_auto_thr": 0.9, "subbackg": 1}
316.8218498245369 8788.345594558876
317.89969571804795 8646.03024550131
318.977263876126 8715.492690723628
320.05455438786703 8583.193583456716
321.1315673423287 8578.31766136894
322.2083028285215 8566.2470206527
323.2847609354267 8487.142908103011
324.3609417519747 8502.994711038036
325.43684536705587 8481.23721935414
326.5124718695279 8495.943894876755
327.58782134820103 8392.098590360703
328.66289389184385 8448.750560919303
329.7376895891921 8399.826109730933
330.8122085289342 8379.30841880311
331.88645079971866 8330.797162508894
332.9604164901575 8329.892444599638
334.03410568881554 8348.34115370551
335.1075184842266 8433.61177072063
336.18065496487543 8263.51270063436
337.2535152192122 8281.644997610569
338.32609933564163 8316.831889344503
339.39840740253203 8252.543590235024
340.4704395082099 8249.428705196127
341.5421957409617 8148.563247979997
342.6136761890357 8257.206728538684
343.6848809406365 8219.901509888434
344.75581008392874 8131.905103734191
345.82646370703696 8030.91514036137
346.8968418980512 8074.72054855208
347.96694474501055 8095.199101890741
349.0367723359268 8135.673361965908
350.106324758759 8155.554848883005
351.1756021014353 8055.23965489033
352.2446044518383 8093.041541637472
353.31333189781435 8072.036542570006
354.38178452716966 8051.835645009817
355.449962427665 8062.922773102208
356.51786568702846 7977.5643693601405
357.58549439294256 8102.530120308959
358.6528486330535 8034.005723171559
359.71992849496564 8012.7965998509
360.7867340662433 8084.2970054004645
361.8532654344144 8080.182646126714
362.9195226869597 8088.9829793774215
363.9855059113288 8056.30035584923
365.05121519492604 7981.639656916903
366.11665062511565 8076.527044730047
367.1818122892273 8049.984069701621
368.2467002745434 8044.531764403917
369.31131466831175 8038.372711815524
370.375655557742 8002.114714089174
371.4397230299983 8016.938620658007
372.5035171722102 7985.221654899366
373.5670380714637 7966.221074110756
374.6302858148101 8002.657581941382
375.6932604892554 7981.678905033882
376.7559621817709 7987.305180203512
377.81839097928605 7983.796572936015
378.8805469686886 7909.556624241506
379.94243023683157 8078.593500722831
381.0040408705263 7935.229222837597
382.0653789565458 7832.55353419532
383.1264445816196 7900.291868242918
384.1872378324406 7787.893523734189
385.2477587956637 7880.129923168655
386.3080075579037 7839.146657957717
387.3679842057336 7777.124130485119
388.4276888256918 7785.400595877659
389.48712150426945 7753.029140995293
390.54628232792857 7740.479671721778
391.6051713830857 7792.8745958208865
392.66378875611736 7769.1532921014705
393.7221345333637 7741.4282882975995
394.7802088011249 7727.769730795163
395.838011645661 7747.619759163924
396.89554315319765 7681.520323579352
397.9528034099112 7630.705870932581
399.00979250194723 7619.180050695561
400.06651051541485 7558.171321082313
401.1229575363741 7619.210891952507
402.17913365085224 7586.966170983925
403.23503894483656 7610.111707365833
404.2906735042761 7606.611798174328
405.3460374150818 7521.846708002669
406.401130763119 7559.091163125484
407.455953634224 7611.064238540374
408.5105061141876 7536.126758773981
409.56478828876243 7439.047837994532
410.6188002436629 7487.039202948557
411.6725420645689 7497.023045918885
412.72601383711117 7451.118266330601
413.77921564689314 7540.779276265332
414.8321475794728 7473.004350663274
415.88480972036814 7472.606900779245
416.93720215506437 7401.830477313191
417.9893249690049 7464.123701548432
419.04117824759123 7326.869600060441
420.09276207619223 7396.378077368211
421.144076540133 7379.937717082486
422.1951217247042 7384.216352385649
423.24589771515275 7350.932254441264
424.2964045966928 7338.67440627257
425.34664245449494 7333.340682935009
426.3966113736933 7385.091581098689
427.4463114393875 7342.173513274148
428.49574273662984 7323.222321574741
429.5449053504417 7281.679326099749
430.5937993658026 7296.359522242761
431.6424248676558 7310.330458371282
432.6907819409007 7243.29821679056
433.73887067040596 7274.077802117157
434.7866911409965 7235.927435846662
435.8342434374608 7223.813266694668
436.88152764455117 7231.834637298443
437.9285438469724 7200.556135533094
438.9752921294057 7167.309312587242
440.02177257648145 7180.001299742884
441.06798527279716 7127.641355903006
442.1139303029122 7170.685263802521
443.1596077513459 7146.617845428354
444.2050177025794 7176.86307646817
445.25016024105753 7175.94209437699
446.2950354511886 7151.939091580763
447.33964341733736 7151.244620141119
448.383984223834 7083.81240542566
449.4280579549686 7100.467930655427
450.471864694995 7117.831101508559
451.5154045281306 7099.532363961989
452.5586775385509 7144.71736770927
453.60168381039693 7107.7660566465765
454.64442342776783 7122.067667590492
455.6868964747264 7128.22189035197
456.7291030353008 7077.176705611928
457.77104319347563 7156.730122717634
458.8127170332027 7111.9077069545165
459.854124638392 7158.600803535148
460.895266092919 7188.501713768356
461.93614148061897 7204.278023503294
462.97675088529104 7231.552387566694
464.01709439069236 7179.5318935380565
465.0571720805492 7182.784384625261
466.0969840385442 7193.146608573016
467.1365303483253 7266.254819927448
468.17581109350067 7309.325504373213
469.2148263576437 7244.828344386243
470.2535762242878 7258.7046146256325
471.29206077693016 7299.706800912131
472.33028009902773 7363.475726904569
473.3682342740012 7336.416567816514
474.40592338523857 7267.096029993198
475.4433475160804 7305.626619549856
476.4805067498364 7328.809704558953
477.51740116978 7267.954474027878
478.5540308591426 7347.907089211319
479.59039590112116 7352.342008104693
480.6264963788726 7280.474190696574
481.6623323755193 7371.503155044595
482.6979039741436 7357.44146860545
483.7332112577915 7433.716408624963
484.76825430947247 7517.243713454675
485.80303321215797 7485.922054582527
486.837548048783 7508.385604616659
487.8717989022425 7588.300446824112
488.90578585539697 7550.82446772984
489.9395089910686 7606.21163766587
490.97296839203955 7592.597404819896
492.00616414106116 7535.737354558858
493.0390963208429 7560.177798182687
494.0717650140559 7560.281463136072
495.10417030333883 7504.932918683601
496.1363122712901 7441.171161947599
497.16819100046814 7275.276563100325
498.1998065734024 7302.3648824887405
499.2311590725767 7300.826097572079
500.26224858044407 7155.9980811046535
501.2930751794156 7179.066868468675
502.3236389518679 7128.527961676307
503.35393998014115 7068.585313673847
504.38397834653733 7080.232514779726
505.4137541333221 7036.905041693378
506.4432674227228 7035.710585910396
507.4725182969323 6947.438696225532
508.5015068381035 6926.68127732227
509.53023312835467 6968.667937683637
510.55869724976765 6865.371010162217
511.58689928438434 6824.3351613271125
512.6148393142121 6893.342637043967
513.6425174212218 6907.443769600334
514.6699336873462 6890.096933400724
515.6970881944835 6876.277507258371
516.7239810244901 6846.055840155686
517.7506122591931 6908.7508441456375
518.7769819803761 6861.380055873997
519.8030902697901 6925.791869301245
520.8289372091476 6908.007985586526
521.8545228801249 7008.822543828244
522.8798473643619 6924.119128884537
523.9049107434621 7027.263385265987
524.9297130989908 6966.357858386109
525.9542545124805 6915.716944799021
526.9785350654201 6971.730985821474
528.0025548392696 6939.53198914337
529.0263139154504 6800.163636133261
530.0498123753423 6813.081409406257
531.073050300296 6844.308610660721
532.0960277716204 6737.255589444474
533.1187448705896 6792.753570050621
534.1412016784416 6771.075378156061
535.1633982763833 6749.31198741045
536.1853347455726 6732.706314171164
537.2070111671401 6668.291301635416
538.2284276221817 6687.03613626157
539.2495841917516 6626.432344158595
540.2704809568677 6582.863686654915
541.2911179985167 6627.835437772859
542.3114953976419 6545.541285189907
543.3316132351592 6512.983999553508
544.3514715919409 6494.187446787857
545.3710705488247 6456.97750538834
546.3904101866156 6482.146032611815
547.4094905860784 6503.769613508595
548.4283118279418 6437.11868132236
549.4468739929034 6425.214972527222
550.4651771616191 6405.041411578745
551.4832214147063 6334.428061961988
552.501006832761 6394.66873844854
553.5185334963226 6314.217885999833
554.5358014859103 6447.981633464003
555.5528108820035 6367.221939760957
556.5695617650363 6449.107190393061
557.5860542154242 6446.7604711869035
558.6022883135283 6336.138976235272
559.6182641396881 6318.89693514256
560.6339817741991 6354.056466097269
561.6494412973225 6372.31633352115
562.6646427892883 6376.823597172945
563.6795863302796 6317.0340258546985
564.694272000459 6301.955323473381
565.7086998799423 6385.822818872792
566.7228700488104 6273.976208501152
567.7367825871115 6310.296842914612
568.7504375748576 6362.748554060903
569.7638350920224 6322.5370095179005
570.7769752185486 6297.340028335149
571.7898580343353 6293.695654765859
572.802483619258 6266.261399297313
573.8148520531431 6348.600546637916
574.8269634157932 6309.574160871513
575.8388177869692 6291.192002531219
576.8504152463938 6320.755088796725
577.8617558737587 6352.779592686747
578.8728397487175 6249.954023728883
579.883666950891 6281.0994946631745
580.8942375598654 6407.591668636111
581.9045516551851 6386.8316638391725
582.9146093163617 6498.355125825872
583.924410622878 6410.791547465846
584.9339556541727 6483.55883191244
585.9432444896538 6507.085425958309
586.9522772086875 6438.999187353531
587.9610538906127 6487.984794911932
588.9695746147318 6415.219967971972
589.9778394603054 6501.212543499249
590.985848506567 6418.359572813302
591.9936018327098 6399.287424984352
593.0010995178891 6263.58404063593
594.0083416412344 6345.855474768371
595.0153282818283 6280.22079107733
596.0220595187293 6238.097897243469
597.0285354309508 6193.643123879878
598.0347560974806 6165.023689807449
599.0407215972609 6146.739335658403
600.0464320092051 6097.647434340898
601.0518874121954 6140.316921987563
602.0570878850685 6113.910083856323
603.062033506636 6135.535976308904
604.0667243556636 6146.722824734172
605.0711605108936 6097.1929171516085
606.0753420510264 6197.228498482763
607.0792690547278 6141.445515538331
608.082941600629 6098.1261360863755
609.0863597673306 6101.580116301027
610.0895236333909 6094.844016780028
611.0924332773357 6175.180313908915
612.0950887776617 6134.278885489692
613.0974902128219 6197.44881921488
614.0996376612384 6208.124056564611
615.1015312013005 6295.760699815127
616.1031709113595 6307.034158515855
617.1045568697336 6228.733358945456
618.1056891547069 6326.083463139432
619.1065678445229 6386.647197214334
620.1071930173985 6527.843794523431
621.1075647515099 6526.448515285153
622.1076831250048 6502.6882458044465
623.1075482159849 6592.762214795053
624.1071601025305 6618.154104187119
625.1065188626781 6667.465172336388
626.105624574433 6774.218310720529
627.1044773157682 6812.211793614149
628.1030771646128 6903.2545083869845
629.1014241988742 6858.166168358506
630.0995184964158 6916.350583626573
631.0973601350688 7007.685096370775
632.0949491926294 7128.503680261956
633.0922857468631 6957.914925932004
634.089369875499 7063.071283126626
635.0862016562278 7042.17884894688
636.0827811667077 6954.628134515615
637.0791084845641 6960.0005331315815
638.0751836873878 6931.386048668064
639.0710068527369 6872.783718979066
640.0665780581294 6813.251729683822
641.0618973810506 6740.049431037245
642.0569648989604 6830.876815206972
643.0517806892676 6704.789859196081
644.0463448293649 6716.631771204925
645.040657396592 6583.510577885723
646.0347184682723 6547.263591190377
647.0285281216875 6427.129259852834
648.0220864340772 6353.791662814992
649.0153934826558 6380.833863067095
650.0084493446047 6263.823963901955
651.0012540970674 6213.018336894094
651.9938078171526 6192.830522637799
652.9861105819346 6181.439273677888
653.9781624684565 6114.647903896582
654.9699635537254 6098.664720555923
655.9615139147136 6097.907109087069
656.9528136283589 5999.432479903366
657.9438627715699 6059.21891683922
658.9346614212154 5980.303799374133
659.925209654135 5910.224097414937
660.9155075471263 5904.580652963765
661.9055551769616 5868.142079024972
662.895352620375 5941.2117198136275
663.8848999540678 5791.747528258635
664.8741972547068 5791.109011687777
665.863244598926 5744.418843249272
666.8520420633213 5819.246351716605
667.8405897244611 5720.822252295271
668.8288876588758 5732.410087157934
669.8169359430613 5740.649672218328
670.8047346534822 5723.258326892918
671.7922838665672 5697.812017803562
672.7795836587156 5749.5334662069135
673.766634106285 5756.812139868742
674.7534352856092 5674.997720708619
675.7399872729766 5653.010567393625
676.7262901446538 5658.199747185553
677.712343976862 5597.544555417991
678.6981488457986 5697.784404266347
679.6837048276229 5641.915103921091
680.6690119984596 5628.962227873505
681.6540704344043 5677.384627405915
682.6388802115107 5651.867187210735
683.6234414058108 5623.708548634138
684.6077540932874 5584.050296677461
685.591818349907 5642.033457479261
686.575634251587 5601.556333661148
687.5592018742263 5545.611815420166
688.5425212936734 5443.858950612064
689.5255925857564 5606.325579530835
690.5084158262707 5498.978458916506
691.4909910909646 5507.972303562708
692.4733184555644 5416.795186138897
693.4553979957618 5512.251632242899
694.4372297872123 5507.227416941913
695.4188139055404 5398.496172033866
696.4001504263324 5340.823367671526
697.3812394251509 5379.949727838621
698.3620809775111 5382.517962831536
699.3426751589104 5401.954116545846
700.3230220448004 5375.621739221327
701.3031217106054 5400.306217484393
702.2829742317172 5439.213502836196
703.2625796834873 5334.376917083922
704.2419381412474 5344.272796226238
705.22104968028 5354.277661946408
706.1999143758458 5347.420870595781
707.178532303169 5337.2824073713855
708.1569035374378 5380.355400826889
709.1350281538107 5403.142060934139
710.1129062274158 5369.604849426871
711.0905378333373 5398.7769989874605
712.0679230466376 5434.0931279694
713.0450619423427 5480.338370923351
714.0219545954424 5439.4517783759675
714.9986010808989 5364.176820158113
715.9750014736292 5449.814173185266
716.9511558485392 5483.596729433124
717.9270642804786 5492.044345115236
718.9027268442787 5542.974068079819
719.8781436147328 5517.477949917438
720.8533146666014 5513.6373305949155
721.828240074612 5498.875140594008
722.8029199134635 5518.957509332694
723.7773542578125 5499.351801250593
724.751543182294 5489.261746886315
725.7254867615029 5481.069697678845
726.6991850700015 5371.56874812814
727.6726381823228 5414.5600759874815
728.6458461729599 5348.274482229537
729.6188091163858 5393.516110885741
730.5915270870246 5323.374861101909
731.5640001592856 5326.6619244971
732.536228407529 5288.223101789223
733.5082119060917 5290.997487469143
734.4799507292755 5246.866646756856
735.4514449513481 5267.5298464956095
736.4226946465496 5306.6009785386495
737.3936998890786 5329.770442300645
738.3644607531078 5195.251458697353
739.3349773127793 5249.747197773444
740.3052496421951 5280.794826039608
741.27527781543 5211.497640650524
742.2450619065221 5168.454950305348
743.2146019894826 5199.334966042808
744.183898138288 5208.414869373256
745.1529504268801 5173.912962722667
746.1217589291682 5088.842906848999
747.0903237190341 5052.83638430136
748.058644870318 5132.340561161034
749.0267224568397 5086.172248889736
749.994556552374 5026.935460990061
750.9621472306771 5077.005532259064
751.9294945654583 5052.141869905421
752.8965986304011 5081.970318463087
753.8634594991636 5018.702628749265
754.8300772453586 5109.391092341795
755.7964519425768 5104.988944889017
756.762583664371 5076.432513062243
757.7284724842611 5095.3875056694305
758.6941184757416 5045.2403126923
759.6595217122667 5101.454688629527
760.6246822672638 5059.984145871819
761.5896002141235 4973.517878216773
762.5542756262093 5030.337441354843
763.5187085768503 5058.207813481652
764.4828991393406 5006.467593443236
765.4468473869474 5031.579988840925
766.4105533929032 5048.8092026225795
767.3740172304078 5049.688026141949
768.3372389726283 5026.284486292238
769.3002186926988 4913.68411985965
770.2629564637282 4991.956273753582
771.2254523587872 4898.637366419868
772.1877064509154 4859.338236858225
773.1497188131179 4841.856966954438
774.1114895183728 4864.375369043786
775.0730186396268 4859.246573773435
776.0343062497905 4771.708113182259
776.9953524217381 4802.892732513664
777.9561572283274 4830.657564595493
778.9167207423689 4849.118987075381
779.8770430366476 4810.064628844188
780.8371241839159 4797.63487971803
781.7969642568951 4755.3839839529965
782.7565633282757 4785.043486292037
783.7159214707099 4768.322740084843
784.6750387568281 4818.0207271871195
785.6339152592227 4752.787257729014
786.5925510504512 4641.49904262862
787.5509462030477 4745.0623033964475
788.5091007895098 4681.911029031142
789.4670148823006 4758.965237210979
790.4246885538596 4741.124014961058
791.3821218765861 4786.486014135441
792.3393149228505 4721.3681793951455
793.2962677649975 4761.016830345132
794.2529804753303 4720.8495069475375
795.20945312613 4734.156174685637
796.1656857896378 4657.0300961938065
797.1216785380675 4686.401988872856
798.0774314435985 4725.655240867209
799.0329445783846 4823.717137871104
799.9882180145414 4750.239943955266
800.9432518241574 4779.957734110709
801.89804607929 4791.67119462781
802.852600851962 4866.3706604606605
803.8069162141637 4814.3117664506835
804.760992237856 4856.6329747917225
805.714828994971 4956.6277625515295
806.6684265574077 4913.73070065407
807.6217849970271 4809.096735954302
808.574904385674 4872.373963374974
809.527784795142 4906.834450864527
810.4804262972102 4966.898710857512
811.4328289636178 4795.291089486879
812.3849928660748 4746.68489928439
813.3369180762638 4733.713398945671
814.2886046658241 4761.24883482617
815.2400527063783 4751.279355304617
816.1912622695108 4727.21202999896
817.1422334267718 4730.305444910051
818.0929662496856 4644.274826637282
819.0434608097457 4599.732696056262
819.9937171784059 4594.305704737657
820.9437354271013 4589.030379761215
821.8935156272255 4587.55777531961
822.8430578501484 4526.661163519615
823.7923621672016 4482.982783827447
824.7414286496896 4554.541335244854
825.6902573688876 4529.278811632721
826.6388483960363 4503.879790530906
827.5872018023492 4419.441105794297
828.5353176590033 4533.866302692324
829.4831960371503 4469.166797803258
830.4308370079016 4492.758034781949
831.3782406423525 4471.087531339238
832.3254070115545 4448.225954973713
833.2723361865319 4363.449338435649
834.2190282382799 4335.136817800799
835.1654832377644 4356.127760023309
836.1117012559116 4440.370525174656
837.0576823636256 4462.488218956559
838.003426631778 4330.609302626477
838.9489341312074 4370.45060592537
839.8942049327197 4372.958469059909
840.8392391070975 4486.813160653118
841.7840367250865 4385.029005246104
842.7285978573982 4370.810854401932
843.672922574724 4399.102960476831
844.6170109477152 4361.333070739304
845.560863046996 4356.271863253458
846.5044789431595 4335.762210057029
847.4478587067697 4314.324700282146
848.3910024083561 4420.966058861433
849.333910118421 4349.618721883382
850.2765819074339 4299.231457873101
851.2190178458332 4425.422103510549
852.161218004032 4342.212669200302
853.1031824524016 4383.201647355831
854.0449112612987 4345.6134282736575
854.9864045010327 4336.407418269749
855.9276622418947 4302.841634401418
856.8686845541379 4408.309326345769
857.8094715079915 4344.21638562843
858.7500231736467 4382.402394857431
859.690339621271 4388.107927371033
860.6304209209939 4377.554719454572
861.5702671429244 4304.030632206735
862.5098783571284 4333.424710375441
863.4492546336569 4340.425781979107
864.3883960425155 4347.052808701438
865.3273026536863 4293.4888020889075
866.2659745371238 4297.712973190557
867.2044117627465 4380.240091242069
868.1426144004472 4324.540024845848
869.0805825200823 4394.274050910003
870.0183161914847 4337.855777476747
870.9558154844526 4355.835806362495
871.8930804687552 4301.702350816012
872.8301112141307 4350.757513966555
873.7669077902865 4349.870324516165
874.7034702669062 4481.534578422401
875.6397987136315 4429.127596463183
876.5758932000863 4434.770833276022
877.5117537958522 4474.281680431895
878.4473805704911 4367.338019418048
879.3827735935283 4404.727055581954
880.3179329344603 4453.67559553441
881.2528586627541 4500.057335754735
882.1875508478479 4568.964526719747
883.1220095591489 4455.423354571691
884.0562348660296 4427.067434976531
884.9902268378391 4496.0337591075495
885.9239855438955 4445.088893122624
886.8575110534839 4413.624629007228
887.7908034358588 4439.185164702552
888.7238627602474 4449.036461720569
889.6566890958475 4479.744850498339
890.5892825118208 4386.563518261565
891.5216430773125 4326.206817791138
892.4537708614189 4348.367235266311
893.3856659332196 4322.17902802265
894.3173283617652 4323.561720442708
895.2487582160684 4312.031626190904
896.179955565116 4257.094062357598
897.110920477864 4229.879239441949
898.0416530232451 4237.266383438731
898.9721532701478 4203.212261175696
899.9024212874428 4213.526706802987
900.8324571439662 4198.897061958135
901.7622609085302 4176.1599216833265
902.6918326499072 4213.702988336351
903.6211724368477 4266.888094024443
904.5502803380696 4248.875302822949
905.4791564222614 4241.1641784396925
906.4078007580792 4234.29269262188
907.3362134141571 4199.171384385134
908.2643944590909 4203.488212150257
909.1923439614493 4148.168558981607
910.1200619897754 4198.15341056426
911.0475486125779 4313.68907877695
911.9748038983344 4148.525723696881
912.9018279155007 4107.890660014466
913.8286207324982 4050.000030735283
914.7551824177117 4161.630457216246
915.6815130395116 4136.06908979257
916.6076126662283 4071.652202081179
917.533481366163 4086.340042330847
918.4591192075914 4116.736343173235
919.3845262587565 4099.224527059676
920.3097025878706 4055.0377618375023
921.2346482631237 4097.5963124683385
922.1593633526682 4091.6661956530515
923.0838479246304 4066.866091878418
924.0081020471061 4105.588651824183
924.9321257881656 4026.181746960721
925.8559192158464 4064.423316854302
926.7794823981512 3985.715557255867
927.7028154030686 3975.090283656781
928.6259182985414 3962.2561083166424
929.5487911524906 4068.356822727178
930.4714340328119 4008.1606430400107
931.3938470073608 3910.8864600639004
932.3160301439748 3922.0309173207775
933.2379835104548 3997.8180612075676
934.1597071745709 3993.167643379546
935.0812012040769 4021.4391247065405
936.002465666681 4004.5149890275197
936.9235006300696 4045.0551316663114
937.8443061619055 4018.066159013228
938.7648823298077 3948.5457796899473
939.6852292013809 3912.8664824591046
940.6053468441951 3935.812277662065
941.5252353257874 3929.6913838847745
942.4448947136698 3952.9809035558415
943.364325075323 3917.697062971726
944.2835264782043 3918.6456874474643
945.2024989897309 3925.062642813517
946.1212426773054 3888.6502530632233
947.0397576082851 3897.7769579147725
947.9580438500125 3964.525627038683
948.8761014697939 3970.637329165839
949.7939305349064 4006.793456367209
950.7115311125999 3912.288225278628
951.6289032700952 3873.691823308817
952.5460470745875 3951.889682622013
953.4629625932339 3827.6281300187447
954.3796498931715 3941.1506889210186
955.2961090415029 3950.1353944188595
956.2123401053068 3918.248782139094
957.1283431516276 3815.0046296854694
958.0441182474842 3870.690478155403
958.9596654598663 3915.857728849751
959.8749848557309 3881.7635004456497
960.7900765020167 3828.489176101923
961.7049404656209 3908.314797548958
962.6195768134185 3894.7733099969455
963.5339856122537 3881.2329088754873
964.4481669289453 3935.3143317524164
965.3621208302793 3806.5796333587596
966.2758473830145 3873.4669916347048
967.1893466538822 3940.713277001676
968.1026187095813 3872.6840876121473
969.0156636167867 3845.5229032005527
969.9284814421426 3903.8751334046597
970.8410722522622 3843.0892339890124
971.753436113735 3819.5345936544313
972.6655730931161 3814.7964266059803
973.5774832569368 3806.2186917176964
974.4891666716958 3824.21091779628
975.4006234038698 3828.638335012868
976.3118535198955 3862.8410668545803
977.2228570861935 3923.3809377258794
978.1336341691494 3875.0896000183734
979.0441848351202 3807.471057504805
979.9545091504333 3885.34079492591
980.864607181391 3838.3788818561798
981.7744789942699 3863.0311453743343
982.6841246553086 3855.04953295304
983.5935442307236 3840.738602239264
984.5027377867027 3813.0404493242995
985.4117053894024 3873.413312188938
986.3204471049557 3837.9761408854656
987.2289629994648 3823.6918425967574
988.1372531390007 3932.725716078313
989.0453175896091 3885.7596544978414
989.9531564173067 3873.8479505702317
990.860769688079 3854.5905293860815
991.7681574678918 3896.3783631875112
992.6753198226706 3848.9331051459935
993.582256818323 3833.0732617101676
994.4889685207218 3822.558776048536
995.3954549957143 3937.290763471173
996.301716309119 3988.114625176263
997.2077525267232 3939.5470266688963
998.1135637142943 3925.8174876537682
999.0191499375615 3990.611651669578
999.924511262232 3900.0054118402923
1000.8296477539861 3938.4386752139485
1001.7345594784656 3916.4724167041372
1002.6392465012996 3963.4012906639778
1003.5437088880753 3950.597069317776
1004.4479467043584 3964.8495733475283
1005.3519600156869 3794.3682886177276
1006.2557488875718 3955.3057543122113
1007.1593133854858 3935.7648514065854
1008.0626535748888 3883.106377753794
1008.9657695212009 3801.904698551864
1009.8686612898182 3992.3758134185764
1010.7713289461135 3913.1428887362695
1011.6737725554212 3898.7398328073964
1012.5759921830577 3842.215955634605
1013.4779878943027 3909.647161968807
1014.379759754418 3898.9710006468567
1015.2813078286254 3878.444275248684
1016.18263218213 3867.740093810681
1017.0837328801026 3848.626546340473
1017.9846099876886 3924.3693530783576
1018.8852635700023 3780.6184819406276
1019.7856936921362 3781.5839662051817
1020.6859004191447 3772.99775852706
1021.5858838160675 3785.367769114081
1022.4856439479063 3785.179905509588
1023.3851808796389 3783.4353568956712
1024.2844946762143 3839.676332091116
1025.183585402554 3841.870481084849
1026.082453123554 3685.9361411989653
1026.9810979040776 3831.1037144949864
1027.8795198089647 3757.1582442976783
1028.777718903024 3784.634255504523
1029.6756952510368 3732.7387907106568
1030.5734489177648 3761.6872212284784
1031.4709799679313 3767.50244729679
1032.3682884662358 3845.157736527165
1033.2653744773506 3676.4391187818487
1034.1622380659192 3652.139847604779
1035.058879296559 3729.634116480275
1035.9552982338591 3798.018373180212
1036.8514949423825 3804.9271647535206
1037.7474694866614 3768.562060543324
1038.6432219312028 3738.536100660274
1039.5387523404825 3841.835044171194
1040.4340607789582 3762.336375490801
1041.3291473110476 3819.586437825573
1042.2240120011465 3845.908639577205
1043.1186549136273 3908.0457676777432
1044.0130761128294 3951.784546083957
1044.9072756630649 3906.712804370898
1045.8012536286205 3920.1325910394503
1046.6950100737577 3909.528067969399
1047.588545062701 4038.616407340252
1048.481858659663 3927.3043208670606
1049.3749509288118 3993.61137692856
1050.2678219343034 3973.150221376486
1051.1604717402515 3915.063274846057
1052.0529004107575 3964.1542182011426
1052.9451080098825 4008.6462655763708
1053.8370946016694 3941.373722874193
1054.7288602501267 3896.9706569357113
1055.6204050192446 3881.6215463993285
1056.511728972977 3928.8682185598
1057.402832175254 3861.975023714497
1058.2937146899785 3807.1351861287703
1059.1843765810263 3769.001440256906
1060.0748179122456 3790.099855467476
1060.9650387474576 3804.14911862215
1061.855039150456 3815.44269907199
1062.7448191850071 3701.440613478838
1063.6343789148505 3699.0539567152823
1064.5237184037014 3790.993575975841
1065.412837715241 3773.3097090643896
1066.3017369131267 3717.048721813814
1067.190416060992 3646.956209615249
1068.0788752224398 3652.944026266419
1068.9671144610438 3673.5025364874336
1069.8551338403558 3608.721416436087
1070.7429334239023 3688.9725163982193
1071.6305132751695 3597.956632548914
1072.517873457633 3652.56993803091
1073.4050140347335 3617.3773035321174
1074.2919350698776 3635.1567461239015
1075.1786366264623 3542.0156241068194
1076.0651187678395 3619.51310624997
1076.95138155735 3535.819957053371
1077.8374250582929 3596.8413910306494
1078.7232493339507 3638.946202973197
1079.608854447577 3518.0231266023898
1080.4942404623907 3508.534693881343
1081.3794074415982 3528.8209935068226
1082.2643554483657 3578.529585614035
1083.149084545841 3480.4081774165816
1084.033594797138 3476.4050451498138
1084.9178862653516 3473.2137356324047
1085.8019590135427 3592.9187919110764
1086.6858131047484 3465.195976005657
1087.5694486019802 3570.4875835874764
1088.4528655682225 3533.4562064937463
1089.3360640664287 3565.3926543970456
1090.2190441595321 3468.061158640524
1091.1018059104317 3504.597041714961
1091.98434938201 3573.8034121368487
1092.866674637111 3562.8041017263995
1093.748781738559 3542.3736179179855
1094.6306707491512 3380.1118200098026
1095.5123417316554 3493.1111548202957
1096.3937947488157 3423.6890761094087
1097.2750298633455 3532.6074848857993
1098.156047137938 3446.1963583039274
1099.0368466352556 3445.7788649878726
1099.9174284179317 3577.164736811329
1100.7977925485757 3408.6040804085087
1101.6779390897755 3425.261352442455
1102.5578681040806 3477.3746216393956
1103.4375796540226 3484.579742694145
1104.3170738021054 3494.538235064185
1105.1963506108077 3393.910462008932
1106.0754101425773 3407.6840840491836
1106.9542524598382 3465.8547550579315
1107.8328776249855 3483.6840169195157
1108.7112857003904 3421.7672215272664
1109.5894767483987 3464.8665547306773
1110.4674508313292 3498.0370165193153
1111.3452080114657 3494.73233744289
1112.2227483510815 3458.4864090055753
1113.1000719124077 3491.2026680938857
1113.9771787576592 3557.605422979962
1114.854068949022 3509.90266079414
1115.7307425486542 3522.445482782451
1116.6071996186893 3584.904866261814
1117.483440221229 3541.6527669069137
1118.3594644183577 3555.9752302440147
1119.235272272128 3610.1965624304876
1120.1108638445658 3635.2402424874176
1120.9862391976712 3710.117630037992
1121.8613983934229 3680.248991236068
1122.7363414937627 3643.7403458491376
1123.6110685606182 3667.263818589288
1124.485579655884 3810.0210473643883
1125.359874841426 3766.2443814478074
1126.2339541790916 3788.325410266921
1127.1078177306936 3905.283362163257
1127.9814655580267 3754.6116736300414
1128.854897722851 3842.51381796212
1129.7281142869106 3781.0561408802882
1130.6011153119125 3838.686946803535
1131.473900859548 3942.9988288970294
1132.3464709914697 3825.213828750194
1133.2188257693178 3818.540108614754
1134.0909652546961 3788.2211277998845
1134.96288950919 3745.873959514788
1135.8345985943506 3794.1011734186773
1136.7060925717087 3708.816664921428
1137.57737150277 3760.9125857953345
1138.4484354490069 3716.7730412997785
1139.3192844718778 3609.830122689133
1140.1899186327992 3586.726375321004
1141.060337993178 3717.924989662091
1141.930542614382 3641.904647142529
1142.8005325577597 3583.261872597975
1143.670307884635 3490.3966367606467
1144.5398686563003 3613.52831489488
1145.409214934025 3509.265528104501
1146.2783467790541 3417.239037978388
1147.1472642526023 3479.963021817189
1148.0159674158622 3515.6408256425884
1148.8844563300026 3367.8908192966032
1149.7527310561618 3392.5665099761527
1150.6207916554504 3339.6344211240057
1151.4886381889592 3302.9056286837817
1152.3562707177498 3370.9944562322976
1153.2236893028585 3321.9299757384238
1154.090894005296 3348.9991022998656
1154.9578848860474 3342.4285242369615
1155.8246620060709 3331.085841129547
1156.6912254262988 3272.0917891328336
1157.5575752076438 3268.7410703454525
1158.42371141098 3316.49967820433
1159.2896340971656 3286.0685427942212
1160.1553433270346 3264.268293757722
1161.0208391613887 3328.284285136879
1161.8861216610057 3291.495126900843
1162.75119088664 3251.0137072858065
1163.6160468990201 3313.6487353829916
1164.4806897588442 3236.2848734316863
1165.3451195267917 3269.3565393838962
1166.2093362635114 3222.432623142043
1167.0733400296285 3340.143425144985
1167.9371308857444 3259.6544903003005
1168.8007088924278 3265.7100541602445
1169.6640741102328 3199.3502451777686
1170.5272265996773 3262.726123480195
1171.390166421259 3184.3136788495603
1172.252893635452 3196.6894453264454
1173.1154083026995 3222.9249121422604
1173.977710483421 3321.8750061893347
1174.8398002380145 3215.0035001999977
1175.7016776268483 3322.748276378071
1176.563342710264 3263.715816118003
1177.4247955485826 3259.298987634453
1178.2860362020947 3338.212644377356
1179.147064731069 3211.7184790181564
1180.0078811957483 3286.611754947662
1180.8684856563486 3258.769024463189
1181.7288781730604 3239.895153598578
1182.589058806052 3265.822713037797
1183.4490276154593 3361.1650934864215
1184.3087846614017 3234.367271744558
1185.1683300039676 3308.0414285002335
1186.027663703222 3397.171146084706
1186.8867858192025 3303.3464406098296
1187.7456964119228 3337.2477905277183
1188.6043955413716 3382.881755094496
1189.4628832675116 3317.2940576875526
1190.3211596502842 3446.0004062295957
1191.179224749596 3402.369755272042
1192.0370786253388 3266.196892530371
1192.8947213373758 3440.054182249992
1193.7521529455407 3537.982410029638
1194.6093735096438 3442.309481481676
1195.466383089477 3443.209090129778
1196.3231817447977 3400.596115552148
1197.1797695353398 3479.0101260232086
1198.0361465208189 3448.9294071866652
1198.8923127609214 3374.587573000795
1199.7482683153048 3546.512599843879
1200.6040132436028 3549.4243445592065
1201.459547605431 3451.601242466146
1202.3148714603722 3398.692403813544
1203.1699848679855 3450.6873264902447
1204.0248878878065 3530.5703158855613
1204.8795805793507 3404.46676663657
1205.7340630020935 3451.5334012367043
1206.5883352155033 3529.4500225818615
1207.4423972790064 3487.6045291621876
1208.2962492520237 3394.3559427585387
1209.1498911939307 3448.6784185576603
1210.0033231640937 3465.458085589784
1210.8565452218427 3511.459012516367
1211.7095574264913 3297.7252069318724
1212.5623598373222 3378.225145465589
1213.4149525135963 3298.192456528223
1214.2673355145507 3287.366071415462
1215.1195088993936 3306.4674381628065
1215.9714727273113 3323.2749017635097
1216.8232270574663 3357.105431835659
1217.6747719489904 3198.564412113633
1218.5261074609934 3300.601093917925
1219.3772336525653 3328.0152872945064
1220.2281505827668 3321.6283292267203
1221.0788583106296 3367.911757989265
1221.9293568951707 3281.0796933044608
1222.7796463953746 3194.4751775879395
1223.629726870202 3263.5365348159976
1224.4795983785934 3191.9689496801343
1225.3292609794553 3164.1021534762567
1226.1787147316809 3170.074091498877
1227.0279596941327 3163.788958722169
1227.8769959256424 3121.2599023824914
1228.7258234850306 3235.702234239324
1229.5744424310833 3087.773078534944
1230.422852822563 3286.0740643678737
1231.2710547182105 3237.9279025413753
1232.119048176739 3181.6911959935937
1232.9668332568417 3067.247154281682
1233.8144100171812 3149.0815705371033
1234.6617785163999 3176.557107318721
1235.508938813111 3053.3998371761163
1236.3558909659114 3060.452419988844
1237.2026350333617 3234.592243236533
1238.049171074008 3194.990775370659
1238.8954991463652 3074.5864321450235
1239.741619308932 3151.037345905769
1240.587531620169 3488.182946648645
1241.4332361385277 3241.125667566855
1242.2787329224248 3143.856359854435
1243.1240220302534 3054.8400411477623
1243.9691035203869 3091.4444052603585
1244.813977451171 3173.061036052893
1245.6586438809263 3165.7917457425165
1246.5031028679496 2996.4052611907687
1247.3473544705157 3064.2495250835154
1248.1913987468706 3075.1631233100006
1249.0352357552383 3031.459665649426
1249.8788655538228 2989.5832246399114
1250.7222882007918 3132.4849605243708
1251.565503754302 3109.2066542310217
1252.4085122724755 2964.4311303161903
1253.2513138134182 3101.6280088257363
1254.0939084352049 3085.649760000602
1254.9362961958905 2968.919556243881
1255.7784771535007 3072.9193633411055
1256.6204513660432 3098.0251881799863
1257.4622188915 3139.671901531994
1258.3037797878242 3039.8575794669855
1259.1451341129468 3031.570971088055
1259.9862819247755 3100.533669328234
1260.8272232811978 3047.935510384476
1261.6679582400666 3114.3225973284393
1262.5084868592203 3034.8248489993252
1263.34880919647 3046.1486709865035
1264.1889253095997 3079.855639468323
1265.0288352563712 3073.307413753708
1265.8685390945266 2966.4037101379636
1266.7080368817751 3063.3182777771435
1267.5473286758115 3070.320524106886
1268.386414534294 3103.987614997446
1269.2252945148703 3006.8536645848862
1270.0639686751547 3051.0789819473603
1270.9024370727402 3009.326407856367
1271.7406997651997 3030.3737682303863
1272.5787568100714 2963.720973718214
1273.4166082648808 2970.4483862226066
1274.2542541871244 3037.7791379877203
1275.091694634275 3051.194512007138
1275.9289296637817 2963.6449854023035
1276.7659593330663 3058.715308027456
1277.6027836995308 2990.877132007631
1278.4394028205552 3011.2961721479533
1279.2758167534867 3024.3717495909764
1280.112025555658 3036.42848357982
1280.9480292843746 3017.404591689413
1281.7838279969128 2943.4286433130487
1282.6194217505326 3072.5365868112635
1283.4548106024686 2905.0365306657573
1284.289994609926 3030.466787760389
1285.1249738300921 3044.51977106923
1285.959748320127 2949.822170679684
1286.7943181371702 3037.6833115416143
1287.6286833383328 3018.189089311988
1288.4628439807038 3053.9826416638866
1289.2968001213521 2992.346837991944
1290.1305518173194 2989.408707325484
1290.9640991256183 3132.7049252706283
1291.7974421032523 3030.0578516679657
1292.630580807183 2975.368445214253
1293.463515294361 3066.7464714064927
1294.29624562171 3139.5464222735645
1295.12877184613 2986.102006416629
1295.961094024493 2944.9176502036653
1296.79321221365 2970.8476508779395
1297.6251264704333 3092.273972224781
1298.4568368516466 3103.531312870242
1299.2883434140658 3067.258684406292
1300.1196462144526 2967.449715376918
1300.9507453095375 3079.9320119717986
1301.7816407560313 3052.5352168272993
1302.6123326106172 3104.6759702675945
1303.4428209299622 2949.3404149322437
1304.2731057707024 3149.9749087398027
1305.1031871894502 3021.295066638019
1305.933065242798 3108.003546496512
1306.7627399873181 3094.387027741831
1307.5922114795467 3193.221841392831
1308.4214797760123 3301.178169505817
1309.2505449332057 3008.92555012287
1310.0794070076026 3057.5760086811756
1310.9080660556538 3181.4968253023417
1311.736522133786 3125.724090913071
1312.5647752983987 3080.3386943411583
1313.3928256058734 2988.5493005680596
1314.2206731125661 3113.531571235361
1315.048317874809 3048.2732616508547
1315.8757599489109 3087.274407386009
1316.7029993911547 3059.7538998762
1317.5300362578055 3151.352022654489
1318.356870605101 3022.357964125985
1319.183502489257 3011.0150096241423
1320.0099319664623 3125.192587728233
1320.836159092889 3117.099336288394
1321.66218392468 3133.4096579669535
1322.4880065179532 3040.284124707795
1323.3136269288134 3103.9565583221674
1324.1390452133292 3118.0157540135956
1324.9642614275563 3154.013839241523
1325.7892756275214 3088.760062845152
1326.6140878692295 2968.814842188299
1327.4386982086617 3170.4188429690507
1328.2631067017755 3083.8213653373955
1329.0873134045069 3101.1612016732406
1329.911318372764 3122.450552488019
1330.735121662441 2990.1062555273925
1331.558723329399 3012.0729625462095
1332.3821234294774 3030.365413422588
1333.2053220185007 3077.831800742605
1334.0283191522612 3025.293503173146
1334.851114886529 3112.824401887637
1335.6737092770582 2991.4733255660326
1336.4961023795695 3031.400465414758
1337.3182942497697 2988.673813048222
1338.1402849433325 3040.6596196573114
1338.962074515921 2995.9925824438506
1339.7836630231632 2924.0139998901827
1340.6050505206676 3160.403165428281
1341.426237064028 3080.2641208537143
1342.2472227088037 3004.1442514451346
1343.0680075105338 2956.340268579474
1343.888591524741 3042.451858333957
1344.7089748069138 3073.805507452431
1345.5291574125276 3055.4579634243796
1346.3491393970307 2980.032081020865
1347.168920815846 3085.0780702383213
1347.9885017243778 3021.987014306873
1348.8078821780036 3008.1420384384974
1349.6270622320844 2931.295634662375
1350.4460419419447 2947.9919880040025
1351.2648213629054 2978.747287154316
1352.0834005502438 2924.054198575146
1352.90177955923 2922.516760201351
1353.7199584451064 2977.9224376774396
1354.5379372630887 3066.9145550770836
1355.355716068374 3047.3898861083044
1356.1732949161305 2885.0878388318715
1356.9906738615155 2987.6051319353905
1357.8078529596478 2992.384549627627
1358.6248322656375 3138.933612056829
1359.441611834567 2905.0965489770483
1360.2581917214866 3066.7101659135255
1361.0745719814367 2987.137122181574
1361.890752669433 2972.716144265264
1362.7067338404577 2913.4026652394905
1363.5225155494845 2975.2862954344223
1364.3380978514506 3030.854923842477
1365.1534808012839 2854.856848071421
1365.9686644538815 2796.4734229289306
1366.783648864117 3027.615351897174
1367.5984340868417 3038.0263436232117
1368.413020176893 2961.3644708967668
1369.2274071890715 2744.8616884113885
1370.0415951781652 2948.13279821
1370.8555841989346 2939.452366256839
1371.6693743061223 2827.449970943181
1372.48296555444 2789.1931215307736
1373.2963579985844 2872.246524166946
1374.1095516932255 2798.7184484655086
1374.9225466930166 2775.2162550619123
1375.7353430525782 2780.515654972951
1376.5479408265164 2831.7497303441346
1377.36034006941 2864.3789282230523
1378.1725408358216 2885.3139318056174
1378.9845431802805 2841.0545637181795
1379.796347157304 3021.4383580641042
1380.6079528213813 2847.1263445777454
1381.4193602269788 2767.9415404210413
1382.230569428546 2739.0330434915945
1383.0415804805016 2887.591159067834
1383.852393437246 2744.951455178255
1384.6630083531563 2787.3750450557627
1385.4734252825892 2789.5352868505456
1386.2836442798798 2828.2202416305977
1387.0936653993322 2882.4954592281797
1387.9034886952395 2825.927702904677
1388.713114221864 2809.0745493025347
1389.5225420334482 2769.532002004995
1390.331772184214 2720.7367097518104
1391.1408047283585 2724.691929230218
1391.9496397200564 2759.887371449763
1392.758277213461 2887.3505006848923
1393.5667172627054 2819.447994112834
1394.3749599218918 2766.018043730061
1395.1830052451114 2753.0148884088253
1395.9908532864265 2729.154319779135
1396.7985040998774 2826.894743980011
1397.6059577394808 2735.9488514879
1398.4132142592352 2771.0185567688522
1399.2202737131156 2772.6189037106624
1400.027136155073 2868.55960055315
1400.8338016390353 2709.0776163443074
1401.6402702189134 2785.4615811580343
1402.446541948586 2800.9426069025253
1403.2526168819204 2702.74955647166
1404.058495072757 2694.8505231105746
1404.8641765749107 2788.2817939828687
1405.6696614421799 2772.0249012666395
1406.4749497283356 2895.7934279120304
1407.280041487129 2738.2743753713794
1408.084936772295 2608.754431194217
1408.8896356375335 2780.059350790866
1409.6941381365323 2787.5230333892255
1410.498444322955 2602.8177678014
1411.3025542504402 2727.4577294732744
1412.106467972606 2769.562695701931
1412.9101855430508 2686.622108458159
1413.7137070153458 2697.00678439072
1414.5170324430437 2677.706411992661
1415.320161879672 2850.542579608655
1416.1230953787435 2772.79757906401
1416.925832993742 2656.17580377124
1417.7283747781275 2685.03027898571
1418.5307207853439 2628.731403612829
1419.3328710688093 2688.4841934298647
1420.134825681922 2525.241537706279
1420.9365846780584 2685.4615668963124
1421.7381481105713 2760.140884517432
1422.539516032788 2630.7925224256815
1423.3406884980232 2589.68947386034
1424.1416655595604 2620.929587397053
1424.942447270665 2575.9461923259337
1425.7430336845828 2696.4942534696597
1426.5434248545298 2588.3325084057483
1427.3436208337116 2725.816170845343
1428.143621675301 2701.836500736642
1428.9434274324558 2667.6966336556975
1429.7430381583108 2567.319150278697
1430.5424539059713 2655.9083630898713
1431.3416747285337 2867.2143013586456
1432.1407006790632 2653.7398598960194
1432.9395318106053 2605.9237413067376
1433.7381681761835 2570.944248238612
1434.5366098288014 2579.8394843293636
1435.3348568214424 2542.912651124337
1436.1329092070573 2669.805869093968
1436.9307670385879 2678.5998593589784
1437.7284303689503 2734.978677894707
1438.5258992510335 2662.7710130819773
1439.3231737377118 2719.9277107316816
1440.1202538818306 2695.4776037589622
1440.9171397362225 2607.3796804530984
1441.7138313536925 2555.61996387417
1442.5103287870243 2551.6871528928505
1443.3066320889775 2521.4937531394708
1444.1027413122956 2679.1854844727677
1444.8986565096966 2651.2317215668345
1445.694377733882 2746.7928218227103
1446.4899050375207 2530.5814756937402
1447.2852384732687 2597.822010013801
1448.0803780937622 2558.809449866812
1448.8753239516063 2601.800629798764
1449.6700760993954 2424.441541460707
1450.464634589689 2573.137453392518
1451.2589994750397 2731.220988519489
1452.0531708079689 2521.077768892484
1452.8471486409799 2480.7973267822326
1453.6409330265524 2574.3817246078124
1454.4345240171442 2402.86480704702
1455.2279216651987 2516.7269501744713
1456.0211260231263 2510.412237135366
1456.8141371433194 2778.5777570010723
1457.6069550781594 2531.4532892361776
1458.3995798799897 2430.708551515753
1459.1920116011424 2428.4873747110964
1459.98425029393 2400.706799357001
1460.7762960106338 2408.3087278212074
1461.5681488035225 2468.8093130644293
1462.3598087248392 2465.8955454706143
1463.1512758268036 2511.2730779398485
1463.942550161617 2413.3005248562886
1464.7336317814625 2472.6503991672334
1465.524520738496 2529.1622272821705
1466.3152170848552 2387.1947162879096
1467.1057208726506 2364.8257941412767
1467.8960321539817 2378.0585436591778
1468.6861509809169 2225.047913515459
1469.4760774055085 2351.598655597898
1470.265811479785 2394.9807565647493
1471.055353255755 2229.080109387384
1471.844702785409 2298.657061389048
1472.6338601207044 2321.3696658216318
1473.4228253135934 2384.663514181392
1474.2115984159936 2299.0235997800164
1475.0001794798063 2235.1825547243975
1475.7885685569145 2328.3744526138903
1476.576765699172 2291.208317944975
1477.3647709584238 2412.987986093255
1478.1525843864802 2472.4611183303405
1478.9402060351367 2297.86889309609
1479.7276359561693 2354.753360665054
1480.514874201328 2264.0119813055526
1481.3019208223468 2248.059949280542
1482.0887758709323 2219.625223325401
1482.8754393987747 2315.272814819891
1483.6619114575406 2257.862277389199
1484.4481920988783 2257.249754920244
1485.2342813744108 2270.3222095201936
1486.0201793357446 2352.1957194482975
1486.8058860344572 2275.3813114858062
1487.591401522117 2224.0380116297483
1488.3767258502594 2280.6944295451353
1489.1618590704056 2327.3548192100407
1489.9468012340494 2091.7959400590107
1490.7315523926754 2259.7110684520608
1491.5161125977356 2375.44973325168
1492.3004819006637 2301.3316850299516
1493.084660352877 2294.9964299317776
1493.8686480057622 2226.611448714329
1494.6524449106964 2353.7846593220293
1495.4360511190262 2379.0187757641834
1496.219466682087 2373.824312442287
1497.0026916511779 2290.9324110040516
1497.7857260775945 2295.2404146989857
1498.5685700125996 2270.232401959521
1499.3512235074395 2175.7651969443277
1500.133686613337 2109.9542408505094
1500.9159593814966 2241.282756631318
1501.698041863101 2481.9852815566564
1502.4799341093094 2240.0304057580247
1503.2616361712662 2117.957165381558
1504.043148100087 2180.3507715907576
1504.8244699468742 2287.4906767966386
1505.6056017626997 2126.430067375185
1506.3865435986281 2129.1139468286055
1507.1672955056893 2146.3757722561004
1507.9478575348967 2212.643027754567
1508.7282297372512 2315.926181552307
1509.5084121637192 2251.7112435452627
1510.2884048652577 2207.229123859303
1511.0682078927948 2217.020280886609
1511.8478212972423 2247.8245011123063
1512.6272451294917 2138.7682956435374
1513.4064794404076 2279.0244291293393
1514.1855242808433 2112.31817940104
1514.9643797016215 2225.0281344840423
1515.743045753552 2298.2624103496723
1516.5215224874191 2156.813769954929
1517.2998099539836 2102.3936216227394
1518.077908203999 2194.854605807758
1518.8558172881785 2141.325528069713
1519.633537257234 2284.246297217472
1520.4110681618404 2212.069577132722
1521.1884100526604 2183.239863756156
1521.9655629803365 2202.08301486449
1522.7425269954856 2276.6233822081017
1523.5193021487103 2336.5603839886035
1524.2958884905856 2179.051871557819
1525.0722860716687 2260.3760016035817
1525.848494942502 2156.4857486809888
1526.624515153595 2115.0347212208826
1527.4003467554485 2206.8349657911103
1528.175989798534 2295.0594203687283
1528.9514443333064 2136.044334766892
1529.726710410203 2205.823123124391
1530.5017880796331 2090.2308994369364
1531.276677391992 2176.656546778372
1532.0513783976457 2224.2873466338174
1532.825891146953 2215.131609273002
1533.6002156902414 2199.1256384360177
1534.3743520778207 2148.4732704681664
1535.1483003599806 2137.3450387524117
1535.9220605869923 2142.3451070278174
1536.6956328091019 2229.784662084128
1537.4690170765407 2085.1499295110416
1538.242213439511 2298.79074207575
1539.015221948208 2173.454031217629
1539.78804265279 2131.1831211542944
1540.560675603405 2039.7364131273885
1541.3331208501804 2229.2342973501372
1542.1053784432224 2243.3538183309124
1542.8774484326168 2196.3237394582584
1543.649330868422 2156.622857374811
1544.4210258006842 2140.545341629686
1545.1925332794308 2219.375242826852
1545.9638533546604 2226.609003324433
1546.7349860763552 2179.6299766003426
1547.5059314944829 2434.3146028882147
1548.27668965898 2249.9628056367314
1549.0472606197673 2282.8483769409713
1549.817644426752 2272.5147050097694
1550.5878411298072 2255.225438387965
1551.3578507787988 2203.901192468639
1552.1276734235635 2088.903554419914
1552.8973091139233 2248.921214378205
1553.6667578996767 2259.201723664188
1554.436019830604 2177.3678795817405
1555.20509495646 2116.8098679082736
1555.9739833269869 2096.505274326027
1556.7426849919011 2162.7036793940997
1557.511200000903 2218.0758917947833
1558.2795284036674 2336.729200767067
1559.0476702498509 2228.511609071341
1559.8156255890954 2229.2468158806414
1560.5833944710157 2278.9290279564575
1561.3509769452048 2236.736767294203
1562.1183730612447 2216.922758710966
1562.8855828686865 2160.3726528870197
1563.6526064170703 2314.0383147454695
1564.4194437559127 2292.845727417566
1565.1860949347047 2266.5756048464364
1565.9525600029283 2335.4425217280877
1566.7188390100328 2424.8628144077666
1567.4849320054564 2172.505935930364
1568.250839038612 2259.7691135214345
1569.0165601588997 2180.9432121167697
1569.7820954156887 2194.2700833983226
1570.5474448583373 2167.6712703025855
1571.31260853618 2207.1636761018895
1572.0775864985299 2051.7839943899426
1572.8423787946813 2293.3874384502246
1573.6069854739108 2145.065783802288
1574.371406585471 2233.944263431649
1575.1356421785986 2314.166580199687
1575.899692302506 2182.8916420641153
1576.6635570063845 2287.0074564571564
1577.4272363394157 2245.2105339053674
1578.190730350747 2075.683022952153
1578.9540390895163 2301.8549478860245
1579.7171626048384 2055.1793378802204
1580.480100945806 2170.333780095655
1581.2428541614918 2183.8359612139893
1582.0054223009538 2095.295522580748
1582.767805413223 2211.3484120106114
1583.5300035473156 2234.550623779592
1584.292016752228 2269.3652355546324
1585.0538450769309 2300.177380805678
1585.8154885703807 2126.732687679156
1586.5769472815136 2059.1995428887785
1587.3382212592405 2262.31288390977
1588.099310552463 2299.799743682509
1588.8602152100484 2079.4665469722045
1589.6209352808564 2273.2286125325386
1590.3814708137234 2017.1405383350059
1591.14182185746 2110.1967367361503
1591.9019884608679 2203.360653756849
1592.6619706727215 2011.8668842862958
1593.4217685417734 2212.1074279707304
1594.1813821167616 2284.0237487691425
1594.9408114464022 2078.2996687129976
1595.7000565793933 2156.7928946575385
1596.459117564409 2185.85378563869
1597.2179944501113 2055.707222523938
1597.9766872851324 2033.9102892228498
1598.735196118092 2243.1206959609976
1599.4935209975883 2067.329345189976
1600.2516619721973 2181.0170365885815
1601.0096190904787 2097.977252202539
1601.7673924009723 2109.11862460827
1602.524981952196 1988.0294627464705
1603.2823877926476 2120.0618700008026
1604.0396099708087 2007.255842156473
1604.7966485351371 2022.0552388919318
1605.5535035340745 2090.7651824949035
1606.3101750160404 2202.8358458202993
1607.0666630294363 2002.6494378098112
1607.822967622642 2051.921903233825
1608.5790888440224 2049.7388179282257
1609.3350267419137 2123.673369972456
1610.0907813646445 2064.4615911787023
1610.8463527605145 2088.0395396868585
1611.601740977805 2096.1406802054807
1612.356946064785 2120.2495255466697
1613.1119680696902 2005.7248133025903
1613.8668070407512 2014.421166901478
1614.6214630261748 1935.3589568864786
1615.375936074137 2163.983528159322
1616.1302262328118 2013.808423884963
1616.8843335503425 2112.372875314474
1617.638258074854 1871.3653662666627
1618.391999854457 2008.7567199018845
1619.1455589372363 2170.4091304016374
1619.8989353712623 2138.8403939567465
1620.65212920458 1908.5832906150838
1621.4051404852235 1973.4703119867816
1622.1579692611976 2031.9959862660405
1622.9106155804966 1861.3115970518782
1623.663079491087 2024.7668483999223
1624.4153610409248 2059.821503169799
1625.1674602779385 1994.4670582713056
1625.9193772500403 1902.5247911272006
1626.6711120051277 2079.494122742285
1627.4226645910676 2035.0986509574661
1628.174035055721 1984.2894252411697
1628.9252234469168 1957.6275543938004
1629.676229812474 1977.6322352017037
1630.4270542001905 2014.6134575709632
1631.1776966578382 2057.8193491035477
1631.9281572331747 2018.99354826169
1632.678435973945 2131.1835876671253
1633.4285329278573 2064.0135667260292
1634.1784481426203 1866.0701247249967
1634.9281816659113 1998.3007794831349
1635.677733545388 1990.2421691964623
1636.4271038286934 1924.1654135720626
1637.176292563452 2054.711550695129
1637.9252997972635 1955.9115384509619
1638.674125577716 2049.291168393665
1639.4227699523672 2136.1378531802084
1640.171232968767 1901.8071279673907
1640.9195146744423 1967.5582925664494
1641.6676151168977 2098.6588912556
1642.4155343436178 1997.5400964322841
1643.1632724020765 2019.2217792331278
1643.9108293397167 2048.291668804281
1644.658205203974 1940.0559570364937
1645.4054000422566 2242.3599172968347
1646.1524139019566 1999.91360961596
1646.8992468304423 1908.9404424848549
1647.6458988750728 1974.548260213854
1648.3923700831765 1980.8645195491085
1649.1386605020743 1935.487001602079
1649.8847701790564 2056.1059137948723
1650.6306991614038 2031.813900091725
1651.3764474963682 1941.9221628808846
1652.1220152311944 1852.04989280129
1652.867402413096 2085.220360689908
1653.6126090892776 2063.5295958668357
1654.3576353069184 2166.184787202332
1655.1024811131829 2075.114849536837
1655.8471465552066 2024.3048209987332
1656.5916316801213 2142.0881722484064
1657.3359365350298 2129.1387759288946
1658.0800611670165 1989.225631364081
1658.824005623148 1933.7087939495618
1659.5677699504722 1961.4590038435686
1660.3113541960192 2002.664796570413
1661.054758406799 2031.3535883096379
1661.7979826297997 1926.5159997850635
1662.5410269119966 1891.012818867531
1663.283891300338 2081.539244419699
1664.0265758417645 1954.9151747627977
1664.7690805831826 2075.1093438136713
1665.5114055714948 2014.4172125386635
1666.2535508535748 2017.1625143490255
1666.9955164762814 1815.7094995664465
1667.7373024864555 1878.2492497692742
1668.478908930916 2012.4148784369852
1669.220335856462 1941.3933448251305
1669.9615833098778 1903.578509741133
1670.7026513379296 1906.2020303673514
1671.44353998736 1904.5739856864413
1672.1842493048916 1914.412780296297
1672.9247793372379 1838.1762375869675
1673.6651301310812 1923.8722336785609
1674.4053017330934 1864.9877290502718
1675.1452941899242 1936.1643241346283
1675.885107548207 1671.373180426192
1676.6247418545518 1734.680778430713
1677.3641971555535 1805.2271995011938
1678.1034734977893 2040.7963820137636
1678.8425709278108 1879.5686893255563
1679.5814894921605 1899.02067792523
1680.320229237359 1787.5000161699577
1681.0587902098978 1947.7401751846137
1681.7971724562685 1848.184845306545
1682.5353760229264 1734.771317559214
1683.2734009563173 1939.8717112424995
1684.0112473028657 1671.2657628137501
1684.7489151089794 1839.8050947382867
1685.4864044210462 1863.4223981308933
1686.2237152854377 1704.9985039118096
1686.960847748498 1834.3483946133467
1687.6978018565642 1681.640102443592
1688.434577655944 1663.537397272684
1689.1711751929379 1689.7050653860547
1689.9075945138156 1822.665499625708
1690.6438356648396 1732.0606839106974
1691.3798986922448 1510.335826332144
1692.1157836422499 1774.3929172854628
1692.851490561059 1706.5788684167335
1693.587019494853 1708.5107877668954
1694.3223704897991 1577.5591109742995
1695.0575435920364 1563.1227646282746
1695.792538847696 1772.041084759307
1696.527356302886 1641.3956472262075
1697.2619960036936 1632.670510672192
1697.9964579961907 1558.8743742441554
1698.730742326432 1433.8232176559713
1699.4648490404488 1497.541028521113
1700.1987781842563 1597.2492781114793
1700.9325298038548 1680.2489127609656
1701.6661039452174 1666.5817228294989
1702.3995006543082 1690.3743447904258
1703.1327199770658 1632.7630903920044
1703.865761959416 1564.8645342000984
1704.598626647261 1646.9565346595518
1705.3313140864866 1526.880607146766
1706.0638243229587 1565.761310593583
1706.7961574025303 1602.526040975597
1707.528313371029 1600.9688079656755
1708.260292274268 1437.6158055881929
1708.9920941580403 1535.5372187080789
1709.7237190681226 1521.0742908706313
1710.4551670502697 1536.0887671362184
1711.18643815022 1437.754072638862
1711.9175324136959 1594.8853576972617
1712.6484498863938 1489.8069717496624
1713.379190614005 1412.1263190473337
1714.109754642188 1536.3492602825913
1714.8401420165883 1511.558363987987
1715.570352782839 1500.5841701638087
1716.3003869865497 1489.6519587899586
1717.0302446733076 1520.812417764609
1717.7599258886876 1525.1702768372559
1718.4894306782444 1670.5379928095015
1719.2187590875183 1335.1492685984335
1719.9479111620203 1656.960700462004
1720.6768869472544 1502.0081127435596
1721.4056864887025 1650.0543733140264
1722.1343098318284 1605.7677660767931
1722.8627570220742 1526.1577936328486
1723.591028104871 1473.4195029310386
1724.3191231256242 1452.102048397034
1725.0470421297232 1427.6594305149877
1725.7747851625427 1549.0526473375817
1726.5023522694337 1509.3567274950324
1727.2297434957363 1494.3660538729662
1727.9569588867635 1226.0421507691153
1728.6839984878152 1527.530533612527
1729.4108623441734 1345.0192160550373
1730.1375505011038 1481.0204537720192
1730.8640630038426 1440.6084192002863
1731.5903998976264 1359.4972456043972
1732.316561227657 1502.485811567765
1733.0425470391274 1387.4875031509332
1733.7683573772065 1455.1667809862206
1734.4939922870508 1476.676335758259
1735.2194518137949 1523.2941873483626
1735.9447360025606 1428.3005628882715
1736.669844898439 1414.5582197794033
1737.3947785465189 1354.1336771009367
1738.1195369918605 1301.113731595276
1738.8441202795093 1425.219272870529
1739.5685284544943 1447.675152257306
1740.292761561821 1467.0103665977072
1741.0168196464838 1398.2257860067652
1741.7407027534518 1436.613298226514
1742.464410927687 1379.2067897794075
1743.187944214118 1414.6080511202565
1743.9113026576688 1434.0075883249183
1744.634486303241 1437.392428883891
1745.3574951957125 1373.2104224936356
1746.0803293799509 1508.3596755646527
1746.8029889008048 1468.1820560342533
1747.5254738031017 1424.1265344175604
1748.2477841316504 1295.0926647072513
1748.969919931249 1336.5770920128955
1749.6918812466665 1302.3358113558854
1750.4136681226646 1414.3704406118532
1751.1352806039777 1422.791109994148
1751.856718735331 1227.9892096589188
1752.5779825614281 1333.4112817027485
1753.2990721269507 1455.4436183885778
1754.0199874765676 1381.587322328252
1754.7407286549314 1282.599954382084
1755.4612957066693 1344.8283360662067
1756.1816886763954 1358.6437987881784
1756.9019076087097 1433.2984614746692
1757.6219525481865 1424.9882265012184
1758.3418235393856 1325.7018087796828
1759.061520626854 1308.409688477941
1759.7810438551096 1506.482752037317
1760.5003932686614 1250.0472084746218
1761.2195689119999 1436.4779945617802
1761.938570829594 1441.888591161936
1762.657399065898 1368.8849770996367
1763.376053665348 1292.7477815209072
1764.0945346723602 1262.9925271839872
1764.812842131334 1356.0135646945816
1765.5309760866512 1193.3867754444252
1766.2489365826787 1323.7074167923377
1766.9667236637597 1304.4584490760058
1767.684337374223 1269.4372568786528
1768.401777758383 1179.855903103765
1769.1190448605284 1331.4690306990765
1769.836138724937 1223.6292466378068
1770.5530593958665 1383.6263334290936
1771.2698069175603 1512.2293707849083
1771.9863813342326 1489.2803215511317
1772.702782690094 1232.2758034166773
1773.4190110293293 1419.098165155472
1774.1350663961111 1279.2958172637436
1774.8509488345844 1362.5434523087665
1775.5666583888924 1430.6480312396372
1776.2821951031437 1398.8965600737179
1776.9975590214362 1279.9132938652872
1777.7127501878585 1432.0352595947722
1778.4277686464684 1453.1040014538007
1779.1426144413108 1374.9192199378253
1779.8572876164162 1376.0970316489734
1780.571788215797 1245.7031109086486
1781.2861162834415 1321.6425260658414
1782.0002718633277 1328.5888431274368
1782.7142549994132 1375.8020243957894
1783.4280657356376 1471.414577678936
1784.141704115922 1346.0853693149377
1784.855170184177 1264.041045242383
1785.5684639842839 1294.896504715518
1786.2815855601148 1173.7395545406232
1786.9945349555237 1347.7260823414292
1787.707312214343 1236.1855833458162
1788.4199173803918 1154.9428116299346
1789.132350497468 1398.511283475757
1789.8446116093583 1319.118071067347
1790.556700759822 1217.304467643629
1791.2686179926077 1248.7638261876675
1791.9803633514493 1200.4837260657355
1792.6919368800554 1174.0998795164544
1793.4033386221236 1319.898122229621
1794.1145686213295 1431.654572075018
1794.8256269213307 1393.0815421434102
1795.536513565774 1253.671004390235
1796.247228598284 1162.336842462777
1796.9577720624693 1264.4944091557832
1797.6681440019165 1292.9034405213365
1798.3783444602013 1248.1374836086673
1799.0883734808776 1261.6775305559036
1799.7982311074884 1322.9596522211223
1800.5079173835475 1407.3570150537153
1801.2174323525633 1312.7224516937715
1801.9267760580187 1231.9104976315011
1802.635948543386 1338.5212549754128
1803.3449498521113 1179.780156425641
1804.0537800276325 1401.440522188402
1804.7624391133668 1312.8852276165667
1805.47092715271 1322.4085179645801
1806.1792441890484 1331.9751184717322
1806.8873902657433 1235.8182075418345
1807.5953654261448 1215.104355231681
1808.3031697135812 1258.3473284696545
1809.0108031713662 1206.042304817765
1809.71826584279 1206.0486011389833
1810.425557771141 1300.0808625088828
1811.1326789996747 1393.328918441927
1811.839629571632 1244.908885274452
1812.5464095302468 1252.1986726213793
1813.2530189187182 1266.1146707846874
1813.959457780249 1224.0890299732125
1814.6657261580076 1344.826124596038
1815.371824095153 1221.7670830736624
1816.0777516348262 1102.8066405941124
1816.78350882015 1259.248059224886
1817.4890956942272 1109.7390809802675
1818.1945123001533 1209.9310192834441
1818.8997586809928 1204.7443714212022
1819.6048348798067 1175.257622963008
1820.3097409396287 1219.4881100365176
1821.0144769034796 1435.6631430600069
1821.7190428143622 1291.1481917066703
1822.423438715261 1353.7810032444272
1823.1276646491478 1159.4215061345324
1823.8317206589727 1221.0783146808296
1824.5356067876692 1252.4751279163347
1825.2393230781581 1143.5108100264426
1825.942869573335 1100.887254477383
1826.646246316086 1165.02124198806
1827.3494533492758 1165.2809559242396
1828.052490715756 1289.209086652087
1828.7553584583547 1143.1526342510465
1829.458056619891 1324.4349123688078
1830.1605852431585 1314.770283851582
1830.8629443709433 1262.203034551722
1831.5651340460063 1159.9445239073943
1832.2671543110919 1022.2536790174105
1832.9690052089318 1081.001566317906
1833.6706867822395 1139.89906559521
1834.3721990737104 1256.4122558722731
1835.0735421260233 1159.4218418572032
1835.774715981841 1187.6762104857576
1836.4757206838058 1194.2312435749457
1837.1765562745459 1250.3332180233083
1837.8772227966747 1164.195663234256
1838.5777202927839 1205.819040342221
1839.2780488054523 1215.4745753340799
1839.9782083772352 1171.434088413873
1840.6781990506806 1241.3242014195396
1841.378020868313 1147.1355695676311
1842.0776738726418 1292.7268132117122
1842.777158106157 1173.3237558106437
1843.4764736113375 1238.0888725062773
1844.1756204306403 1225.3883515259188
1844.8745986065078 1097.7967564869552
1845.5734081813607 1094.3835198974639
1846.2720491976124 1169.3667838186543
1846.970521697649 1141.8636657310017
1847.6688257238511 1309.5879237877716
1848.3669613185684 1161.6099179160124
1849.0649285241452 1015.598123167804
1849.7627273829057 1209.6724261643444
1850.460357937156 1162.2963927724077
1851.1578202291857 1235.7568997265055
1851.8551143012664 1309.397891434344
1852.5522401956569 1228.3091723452367
1853.2491979545957 1309.354631456168
1853.9459876203055 1208.953112397497
1854.6426092349902 961.3376138701184
1855.3390628408451 1166.2287480657028
1856.0353484800362 1207.5701013408734
1856.7314661947203 1237.8251302079816
1857.4274160270397 1092.7614881002235
1858.123198019115 1139.458606075776
1858.8188122130487 1040.837734114685
1859.5142586509319 1265.111521171968
1860.209537374838 1191.5541713274793
1860.9046484268183 1237.5770328075605
1861.599591848917 1108.297412027317
1862.294367683151 1102.1730965594963
1862.988975971528 1159.4845496225196
1863.6834167560355 1120.2942290458807
1864.3776900786452 1137.194045688194
1865.0717959813119 1154.116765520397
1865.7657345059724 1094.790023439808
1866.4595056945564 1332.9308851955836
1867.1531095889586 1209.9777453252902
1867.846546231076 1043.1753731109077
1868.5398156627743 1142.0210630664646
1869.2329179259123 1149.1325530043835
1869.9258530623283 1191.301737782908
1870.618621113843 1044.1084233235656
1871.3112221222636 1083.5702310867841
1872.0036561293764 1027.3270317125537
1872.695923176956 1185.4391806420153
1873.3880233067594 1196.002399945631
1874.0799565605212 960.1084514829417
1874.7717229799673 1096.5142225646687
1875.4633226068036 1144.988326126038
1876.1547554827175 1286.210115860971
1876.8460216493859 1078.850472126679
1877.5371211484617 1113.314286733995
1878.2280540215852 1057.1623691746718
1878.9188203103804 1000.9041434173923
1879.6094200564548 1123.9437392477064
1880.299853301396 1060.9743752147242
1880.9901200867826 1306.663277861068
1881.6802204541673 1239.268995300098
1882.3701544450942 1251.727005630926
1883.059922101087 1036.5450113995755
1883.7495234636517 1053.2878209732512
1884.4389585742792 1070.0362029794376
1885.1282274744517 968.2843980732929
1885.8173302056166 1269.4101158414837
1886.506266809225 1182.8191571341213
1887.195037326701 1082.7327501520351
1887.8836417994517 1045.9631860831335
1888.5720802688702 1296.173584377257
1889.260352776333 1191.557202009652
1889.9484593632042 1211.2796099185618
1890.63640007082 1135.169046777905
1891.3241749405151 1077.7917693764973
1892.0117840135954 1203.4544951904363
1892.6992273313572 1182.8970258429983
1893.3865049350788 1090.3664741111909
1894.0736168660223 1219.9273230571232
1894.7605631654333 1136.217931194404
1895.4473438745408 1128.0306408883635
1896.133959034556 1317.270314186691
1896.820408686679 1189.9573933291585
1897.506692872088 1216.8475059556276
1898.192811631945 1140.7544723082308
1898.8787650073991 1114.3034785371235
1899.5645530395832 1324.841847385401
1900.2501757696118 1159.189154328757
1900.9356332385796 1048.6372832618438
1901.620925487574 1268.8845588042598
1902.3060525576602 1108.517733999206
1902.9910144898859 1119.5870110230067
1903.6758113252872 1117.1069817033642
1904.3604431048789 1252.1032127444305
1905.0449098696663 1155.0762293898392
1905.7292116606295 1070.612886432901
1906.4133485187394 1101.0192397837159
1907.0973204849488 909.3263036368708
1907.7811276001976 1052.148629441735
1908.4647699053967 1100.8764338399183
1909.1482474414588 1062.0826496585094
1909.8315602492694 1023.1617464763997
1910.5147083696957 1101.2467474244766
1911.1976918436012 1130.673839586483
1911.880510711815 1037.7045594699052
1912.5631650151681 1141.6198917414056
1913.2456547944657 1068.7175532569731
1913.927980090495 1107.2833888955424
1914.6101409440362 1182.8193160496016
1915.2921373958416 1093.1636602687486
1915.9739694866603 1162.358607067071
1916.655637257214 1153.0588428696885
1917.3371407482136 1061.3740848130806
1918.0184800003572 1336.3552336110106
1918.6996550543154 1260.3876844377342
1919.3806659507554 1053.4667852072027
1920.0615127303208 1126.5313267828815
1920.7421954336423 1312.9328060619875
1921.4227141013343 1203.9974265129426
1922.103068773993 1133.973533362593
1922.783259492202 1216.4464704793413
1923.4632862965227 1009.587132366785
1924.1431492275078 1146.194633774408
1924.8228483256917 1093.8486292526554
1925.5023836315922 1029.3581617503944
1926.1817551857057 889.2098040126542
1926.8609630285227 1140.2745898205667
1927.5400072005123 1308.5963430077613
1928.218887742125 1222.7545557762814
1928.8976046938005 1136.8286224054193
1929.5761580959588 1188.640655074287
1930.2545479890086 1020.9920399839451
1930.9327744133352 891.545194594995
1931.6108374093164 1199.3263872658576
1932.2887370173066 1146.1119393789922
1932.9664732776473 908.8430722539815
1933.6440462306673 1075.0944354848582
1934.3214559166754 1060.197664443813
1934.9987023759659 1225.9556225299077
1935.675785648813 1162.824810374665
1936.3527057754836 939.3226325991045
1937.029462796223 979.7009194367065
1937.70605675126 1020.1883346546916
1938.3824876808085 959.4850568977754
1939.058755625072 958.6616659382325
1939.7348606242267 1088.4651615958542
1940.4108027184448 1178.4867945465467
1941.0865819478713 1075.6868349355968
1941.7621983526478 1114.232533195491
1942.4376519728921 895.2150514055122
1943.1129428487038 1099.4958510131305
1943.7880710201734 1076.7097440826694
1944.4630365273733 1170.1159959448546
1945.1378394103576 993.3771496616655
1945.8124797091714 917.8287358530173
1946.4869574638324 1128.3598224751024
1947.161272714353 1029.0932040836424
1947.8354255007234 1094.7407414879158
1948.5094158629272 999.0798942527438
1949.1832438409183 1063.8247595038747
1949.8569094746435 1173.2225779668825
1950.530412804037 1183.9626977941984
1951.2037538690092 1120.9995519145532
1951.8769327094578 1037.5221027505363
1952.5499493652678 1115.1695461142924
1953.222803876306 1210.4041124683285
1953.895496282421 1125.6910365542221
1954.5680266234522 1012.5499035554421
1955.2403949392155 1130.1770028014337
1955.9126012695142 1032.409667730261
1956.5846456541403 1107.225081339635
1957.2565281328643 940.972452711648
1957.9282487454457 978.741009162123
1958.5998075316202 1016.603262117544
1959.27120453112 981.1731705734453
1959.9424397836501 1118.0793815356715
1960.613513328908 1148.3877873137665
1961.2844252065697 1235.628227262921
1961.9551754563017 960.7382970581593
1962.6257641177453 968.3183508758448
1963.29619123054 927.6925027980648
1963.966456834296 961.7246780674099
1964.6365609686181 984.9348652195388
1965.306503673086 1163.737255615847
1965.976284987275 979.1159048391146
1966.645904950734 1179.7362437719553
1967.315363603002 935.6906333040446
1967.9846609836077 1073.2428397751428
1968.6537971320486 1041.0731783946392
1969.3227720878222 958.4768749189367
1969.9915858904042 1165.2147701582517
1970.660238579252 1112.2493578664325
1971.3287301938108 1040.533150731621
1971.997060773514 1054.890773214916
1972.665230357772 933.8243473548746
1973.3332389859843 1029.5714783208182
1974.0010866975335 933.2892013394818
1974.6687735317864 985.6816058962424
1975.3362995280932 995.4739962057931
1976.003664725793 923.761943779729
1976.6708691642052 851.8720628186713
1977.3379128826364 973.8459626496646
1978.004795920373 1158.6399500780549
1978.6715183166925 1225.054339443493
1979.3380801108524 968.5777657332621
1980.0044813420973 1024.0138797766128
1980.6707220496555 853.020820870201
1981.3368022727373 1055.3996264515856
1982.0027220505417 1091.2470586623112
1982.66848142225 861.1100297595555
1983.3340804270283 1010.150956699463
1983.999519104027 1028.202187132416
1984.6647974923835 1005.1607478956696
1985.329915631215 982.061986319849
1985.99487355963 1161.9885767246378
1986.6596713167146 1129.8592053029492
1987.3243089415428 998.9091954146345
1987.9887864731754 1158.05005574517
1988.6531039506553 933.0154608655017
1989.3172614130071 977.2372249797658
1989.9812588992481 1021.5507212152681
1990.645096448372 925.3409454620884
1991.3087740993633 1092.2406274113127
1991.9722918911848 1026.35578987922
1992.635649862792 1156.1481864877692
1993.2988480531185 1069.9263747797238
1993.9618865010852 972.3922263099827
1994.6247652455968 874.7038158394167
1995.287484325545 958.1592318330282
1995.9500437798033 1016.3539872364975
1996.6124436472292 944.0446680905112
1997.2746839666706 1081.1272873189455
1997.936764776954 977.0284169081991
1998.598686116895 874.7155565242385
1999.2604480252903 1155.8023633113507
1999.9220505409212 1088.3129004114091
2000.5834937025593 1062.7654024862607
2001.2447775489582 1037.0917987337084
2001.9059021188514 1081.3353257165022
2002.5668674509616 948.2263900488376
2003.2276735839987 897.3667933139695
2003.8883205566508 1096.255313543073
2004.5488084075987 997.8054396602859
2005.2091371755014 1029.5089050701722
2005.8693068990033 1012.6698406707199
2006.5293176167397 964.297162587651
2007.1891693673224 915.9291192667904
2007.848862189354 915.7966686893626
2008.5083961214223 1006.1039099408983
2009.1677712020955 977.1054632899977
2009.8269874699254 923.1171874804871
2010.4860449634598 929.5103758924324
2011.1449437212177 935.9751173883081
2011.8036837817108 1167.241132634465
2012.4622651834325 980.5113575785406
2013.1206879648653 1195.8377215700245
2013.7789521644736 1045.413625423627
2014.4370578207036 880.8673205450208
2015.0950049719922 1045.441584068919
2015.7527936567585 1082.864682415759
2016.4104239134067 1008.398657797769
2017.067895780323 1175.910989484369
2017.725209295886 1183.3862903962186
2018.3823644984514 1190.8536039221426
2019.0393614263648 1035.2766450286867
2019.6962001179545 852.6735531722228
2020.3528806115355 1083.8729279709207
2021.0094029454067 963.7659771076854
2021.6657671578487 993.9279035317986
2022.321973287133 965.3876787930697
2022.9780213715148 910.0332304639876
2023.6339114492293 1125.9449070747837
2024.2896435585026 1031.0339032230927
2024.9452177375442 943.4031448266927
2025.600634024544 1021.5207405717317
2026.2558924576842 1086.9688890690913
2026.9109930751292 1172.1249418631965
2027.565935915025 1241.3202375509213
2028.2207210155066 1310.7381241444157
2028.8753484146964 1229.2434854107112
2029.529818150695 1167.5724222086637
2030.1841302615903 1105.6259298711068
2030.8382847854573 978.398473264923
2031.4922817603601 1131.8223730376153
2032.1461212243357 1018.2751271430668
2032.7998032154192 863.7471771498433
2033.4533277716218 937.0930410575656
2034.1066949309443 1004.9848260871915
2034.7599047313688 894.7652430445747
2035.4129572108704 1073.7442671103945
2036.0658524074006 1060.2367631078519
2036.7185903589016 986.100278734068
2037.3711711032956 1070.7336931389232
2038.023594678496 995.5062268551744
2038.675861122394 988.7555143309658
2039.3279704728757 1172.3835587350948
2039.9799227678031 940.0577890777624
2040.6317180450278 1176.3543844781416
2041.2833563423865 1165.6513456024848
2041.9348376977014 1154.9101340864495
2042.5861621487784 1063.9382567432278
2043.2373297334088 1154.3475048818332
2043.8883404893695 1088.6507393173372
2044.5391944544208 1027.1799942898556
2045.1898916663158 1097.3986050963456
2045.8404321627804 1281.7429495940173
2046.4908159815368 1003.8773247901432
2047.1410431602853 667.3101981703347
2047.7911137367173 993.8492301394347
2048.441027748504 1170.4114789443706
2049.090785233302 917.3974703479205
2049.7403862287592 1018.8274043281435
2050.389830772503 936.1934007591744
2051.0391189021466 853.5080657319083
2051.688250655294 982.1113558044178
2052.337226069527 899.4673229828171
2052.986045182417 1079.0401185030935
2053.634708031521 883.8701725401554
2054.283214654375 813.0189309249097
2054.931565088511 742.0796007329893
2055.579759371436 799.1923313918145
2056.2277975406523 1095.97229864646
2056.8756796336384 1056.0599296203955
2057.5234056878617 1028.9734613914493
2058.1709757407752 1001.7127564120517
2058.8183898298194 1156.0807690532279
2059.465647992416 1057.7678318165097
2060.1127502659747 1056.7814051743992
2060.759696687888 803.0614956035201
2061.4064872955405 984.4797225734571
2062.053122126292 875.8171230485505
2062.699601217497 767.1672588659264
2063.345924606485 932.9474480012592
2063.992092330587 910.0058131019025
2064.638104427102 887.0872970004287
2065.283960933324 1116.7767032121171
2065.92966188653 1004.8035998720183
2066.5752073239855 1059.7741834833864
2067.2205972829397 1021.5855796792375
2067.86583180062 990.1939352816073
2068.5109109142522 1056.6342673922125
2069.15583466104 960.3696509882991
2069.8006030781708 864.0164257733352
2070.445216202821 945.3094037931638
2071.089674072153 1030.0882526037587
2071.7339767233116 1097.8388733826575
2072.3781241934303 1027.6094269435844
2073.0221165196253 1053.2183866058667
2073.6659537390024 1018.3604870216341
2074.3096358886505 1018.9276826565074
2074.953163005637 918.9186288329518
2075.596535127028 985.848636474334
2076.2397522898664 886.8804197927648
2076.882814531182 1062.7227855821745
2077.5257218879924 1112.696373319673
2078.1684743973 1035.405460452764
2078.8110720960885 958.0016268004774
2079.453515021336 1146.916420957556
2080.095803209997 1000.4890052085286
2080.7379366990135 879.1592015164408
2081.37991552532 1107.3660438573065
2082.0217397258275 1075.6952261104232
2082.6634093374414 847.1080673964518
2083.3049243970418 1015.7823311455693
2083.9462849415067 1001.4276114700149
2084.587491007689 1114.0309033936105
2085.2285426324324 980.9756307696541
2085.869439852564 915.9346458611296
2086.510182704902 907.4786155387841
2087.1507712262483 871.2313528051252
2087.791205453381 883.5609621877568
2088.4314854230743 912.1236719048908
2089.0716111720867 1082.2891099579554
2089.7115827371617 1088.993346022969
2090.351400155023 1095.7449581288533
2090.991063462385 887.3304342022162
2091.6305726959527 784.5479413088403
2092.2699278924047 955.5498687489647
2092.9091290884153 942.5615320822766
2093.548176320641 857.1350298201114
2094.187069625721 846.96430477184
2094.8258090402887 836.7709581291465
2095.464394600951 937.3203916595334
2096.102826344313 1034.573198072554
2096.741104306955 947.6195021415836
2097.379228525453 860.4742339990659
2098.017199036358 738.99007692807
2098.6550158762147 1007.3519182978125
2099.2926790815527 1098.1266514171984
2099.9301886888825 1068.5998823023021
2100.5675447347076 943.2173873559974
2101.2047472555114 1066.1376605745093
2101.841796287761 868.199239312102
2102.47869186792 985.3763510712819
2103.1154340324265 922.3163667371934
2103.752022817709 1000.5928475068522
2104.388458260184 835.0774017599963
2105.024740396251 918.2121732794737
2105.660869262292 990.810115323331
2106.296844894685 1045.6779212917593
2106.93266732978 999.0789636322112
2107.5683366039284 853.0482727598558
2108.2038527534532 994.3026188412783
2108.8392158146726 996.7369244521558
2109.4744258238843 989.5851537698209
2110.1094828173755 980.0230669359519
2110.744386831422 1034.2914444486623
2111.3791379022787 1076.6575359295496
2112.01373606619 1116.730628831608
2112.648181359389 1016.6280973662222
2113.28247381809 1094.2383530592215
2113.916613478492 942.8646937222748
2114.550600376786 889.9969715773126
2115.1844345491445 836.9527240058308
2115.818116031729 941.2918967784486
2116.451644860679 938.6240277943255
2117.085021072133 809.1122295545237
2117.718244702204 907.4980527113419
2118.3513157869984 882.6617540620106
2118.984234362604 999.5389608518419
2119.617000465092 1081.7041945173944
2120.249614130529 934.4096376380473
2120.8820753949585 1014.1808302417603
2121.5143842944162 1028.5059920597068
2122.14654086492 1008.5566973231486
2122.7785451424734 1009.5550871365224
2123.4103971630702 1029.1217965898436
2124.042096962681 1048.8472170970313
2124.6736445772767 1023.0925186820263
2125.305040042802 884.9546105151288
2125.936283395191 924.4892288298122
2126.567374670365 1033.414387142438
2127.198313904233 906.9977362884676
2127.8291011326855 972.5296889867147
2128.4597363916037 1038.0831769817496
2129.0902197168507 983.0438245346802
2129.720551144279 980.080137134945
2130.3507307097225 1214.8582096739794
2130.980758449008 1119.7014548160428
2131.6106343979427 944.5810226655578
2132.2403585923203 955.0670715966417
2132.8699310679276 965.5292885627974
2133.499351860526 1013.4416774281171
2134.1286210058715 1022.6782104076758
2134.7577385397053 1103.191415332432
2135.3867044977487 1183.8422032753258
2136.0155189157176 1135.7780310021003
2136.644181829308 1102.7510621840715
2137.2726932742025 995.8116862552955
2137.901053286074 907.571036607842
2138.5292619005777 819.2235188213208
2139.1573191533535 851.3490056062614
2139.7852250800315 1085.9904699565602
2140.4129797162295 1024.0638337662338
2141.0405830975433 834.8060502510676
2141.6680352595613 889.189659776109
2142.2953362378576 943.6875859932059
2142.9224860679915 901.6520747327364
2143.549484785508 998.644374080525
2144.1763324259373 921.1340607321761
2144.803029024799 979.0211889928751
2145.429574617594 837.8636226056191
2146.0559692398165 1047.9792681822041
2146.682212926942 981.4433274852103
2147.308305714432 1065.98645675868
2147.9342476377333 994.1440874968446
2148.5600387322847 1134.7037701319866
2149.185679033506 1072.998290220762
2149.8111685768017 975.603805704836
2150.4365073975678 823.3282593222432
2151.061695531187 924.8629216970346
2151.686733013021 1202.9603340428187
2152.311619878423 1082.7159801792534
2152.9363561627342 858.5482858724993
2153.560941901278 797.9057239361975
2154.1853771293663 908.9404362967174
2154.809661882293 1047.012120410524
2155.433796195348 961.652018005196
2156.0577801037944 876.0676929110698
2156.681613642895 1106.5958421442913
2157.3052968478896 1125.6661010242722
2157.928829754006 1144.7360387200704
2158.552212396462 998.4546581997207
2159.1754448104566 906.2041905137655
2159.7985270311783 884.8154759509265
2160.4214590938027 670.0820100056064
2161.0442410334927 847.3826939506029
2161.6668728853874 831.9626215159836
2162.289354684628 816.5529955067448
2162.911686466332 958.327188668045
2163.533868265602 1047.246303137594
2164.1559001175337 944.4588126945175
2164.7777820572046 1020.4678349130725
2165.399514119681 947.2723243790431
2166.021096340013 807.6931186234614
2166.6425287532384 808.9858583478798
2167.263811394385 810.32732298993
2167.8849442984574 919.1988262611452
2168.505927500455 943.626117538229
2169.126761035366 1062.200150851846
2169.7474449381552 965.5006865190455
2170.367979243778 871.2395665560167
2170.9883639871823 1134.5483884253822
2171.608599203293 790.9580880742442
2172.2286849270276 1052.2451206655633
2172.8486211932886 1165.4996695225298
2173.4684080369625 1029.9746714337227
2174.0880454929265 738.3906877827574
2174.7075335960417 874.0450986607879
2175.3268723811543 1086.7482706581395
2175.9460618831 1043.7589296326
2176.565102136701 1000.6833567024657
2177.1839931767627 1174.5974203929368
2177.802735038078 854.4282957623515
2178.421327755432 846.2445352552579
2179.0397713635866 870.0141894504928
2179.658065897298 1028.6153483760813
2180.276211391305 987.1163362272297
2180.8942078803357 986.9409994315238
2181.5120553991 933.1468929503499
2182.129753982299 979.7765726307949
2182.7473036646206 1026.5150505258114
2183.3647044807367 1041.130906069135
2183.9819564653044 711.3648585380191
2184.599059652968 810.5776435822823
2185.216014078367 1057.0674619538745
2185.832819776113 778.8023670649037
2186.4494767808137 1075.8011157186095
2187.065985127063 837.3876947049608
2187.682344849436 873.4314099607034
2188.298555982501 1074.9000548701308
2188.9146185608097 919.7183153598095
2189.530532618901 1105.177734103707
2190.1462981912937 1019.0737305425821
2190.761915312507 1043.0586389958553
2191.377384017036 816.580699854192
2191.9927043393654 933.1915120650917
2192.6078763139667 1071.2082914746275
2193.2228999753006 825.1000566022973
2193.837775357808 968.795312957536
2194.452502495922 867.1528704601384
2195.0670814240602 933.7867703616175
2195.6815121766285 697.5122802934634
2196.2957947880186 718.1168065688615
2196.9099292926057 738.7654268089631
2197.523915724758 989.8447461070937
2198.137754118825 849.0810092044374
2198.7514445091456 1165.661273474842
2199.3649869300443 870.3097637162851
2199.9783814158327 1173.910117635869
2200.5916280008096 1155.979493323008
2201.2047267192593 1086.7858720999886
2201.8176776054515 877.3721776596991
2202.430480693649 943.7501946186255
2203.0431360180955 1031.1663246040325
2203.6556436130195 969.8777348370471
2204.268003512645 859.6675068317638
2204.8802157511727 939.0432723415772
2205.492280362796 962.7670595058202
2206.1041973816937 986.5835521764564
2206.715966842032 888.4844856151587
2207.3275887779655 1111.590440354421
2207.93906322363 1160.8628564718565
2208.550390213153 1001.7685892044294
2209.1615697806465 1049.2800700092089
2209.7726019602105 927.4919404015079
2210.3834867859277 988.8171058941562
2210.9942242918787 825.5764758433801
2211.6048145121167 917.778541708131
2212.2152574806914 1145.6903965595795
2212.825553231638 886.0345632028491
2213.435701798975 1134.0151379110791
2214.045703216707 1113.4675288070262
2214.655557518832 981.854220805741
2215.2652647393297 850.1762516114688
2215.874824912169 903.5688159306876
2216.4842380713 957.1851938044565
2217.09350425067 841.7175004637054
2217.7026234842033 938.9321672380936
2218.311595805819 1036.379686503002
2218.9204212494133 994.7942392289808
2219.52909984888 913.0160356808576
2220.137631638092 819.5402919026899
2220.7460166509154 1096.8310605751742
2221.354254921198 869.8988110873449
2221.9623464827764 1146.2660510362991
2222.5702913694713 1051.081825039451
2223.178089615096 1044.8704931026944
2223.7857412534486 1067.431795433341
2224.39324631831 695.3238311681969
2225.000604843457 654.1380391211528
2225.607816862641 794.6774208559101
2226.214882409611 935.4041080195132
2226.8218015180973 969.3329625628646
2227.4285742218217 1118.9322913211845
2228.0352005544864 941.6064218366424
2228.6416805497847 866.8335802655589
2229.248014241399 891.9160904723651
2229.8542016629945 831.5113592573755
2230.460242848223 974.0857872680665
2231.0661378307304 917.3319010760848
2231.671886644139 860.5367432363053
2232.277489322065 895.9435840321685
2232.8829458981127 765.6783251146691
2233.48825640587 884.0034360217826
2234.0934208789095 1085.4604811927557
2234.6984393507955 1210.0011300710376
2235.3033118550793 922.2309117108007
2235.9080384252975 813.5021077147965
2236.5126190949723 917.7751372485978
2237.1170538976166 791.4019749545622
2237.721342866729 854.9223742342235
2238.32548603579 972.6932372119343
2238.9294834382763 851.920065479957
2239.533335107646 878.980032010288
2240.1370410773434 869.4014244124348
2240.740601380803 919.993853215866
2241.3440160514474 970.6750993569588
2241.9472851226783 918.5284130509611
2242.550408627896 984.7758476449023
2243.1533866004793 1051.1507163092363
2243.756219073799 900.2246881946421
2244.3589060812064 794.7848659648439
2244.961447656049 748.2406190356159
2245.5638438316564 944.03512614052
2246.166094641343 893.1462257518415
2246.7682001184166 842.1823248830369
2247.3701602961664 843.0149113949019
2247.971975207871 934.3647480925532
2248.5736448867974 882.5441842692098
2249.175169366197 830.5883665871736
2249.7765486793123 911.6651130037142
2250.3777828593684 1036.0022222429334
2250.9788719395783 1030.8080207332519
2251.579815953146 991.2482282600398
2252.1806149332606 857.5792508588772
2252.781268913097 907.3794758137635
2253.381777925817 957.2312017427757
2253.9821420045737 1017.610861130034
2254.5823611825035 997.3039468284562
2255.1824354927303 985.9730496768705
2255.782364968365 860.8170169645118
2256.38214964251 735.5145836325433
2256.9817895482483 835.0645237346956
2257.5812847186553 901.7672017793991
2258.180635186791 985.133554058161
2258.779840985704 928.8256931382199
2259.37890214843 1030.4729974771144
2259.97781870799 980.1729048129976
2260.5765906973957 1077.5472743113828
2261.175218149645 1033.2392817835039
2261.773701097718 1011.4912520752499
2262.3720395745895 1022.9358765270387
2262.970233613216 1034.3637811305084
2263.568283246548 918.5854428489835
2264.1661885075137 775.319454782283
2264.763949429038 892.6241828478571
2265.3615660440246 835.5838055158778
2265.959038385374 787.5782483008146
2266.5563664859637 791.1876374308756
2267.153550378669 794.84025969597
2267.7505900963424 894.4342455091233
2268.3474856718312 910.4821249962404
2268.9442371379664 917.4720589493345
2269.5408445275643 836.7551268544145
2270.1373078734377 755.8946098371287
2270.7336272083758 863.7760792232941
2271.32980256516 878.471850864182
2271.925833976562 1075.5857575618797
2272.5217214753357 1022.9696325501806
2273.117465094223 830.4580163283699
2273.7130648659586 826.6609448860206
2274.308520823257 842.8580033439424
2274.903832998827 1040.8561085933381
2275.4990014253563 930.8441835941651
2276.094026135528 886.9697702439186
2276.6889071620117 842.9829295607221
2277.2836445374614 877.7330787928219
2277.878238294519 927.1942595793005
2278.472688465812 976.6912888486852
2279.066995083962 791.4419858944473
2279.6611581815705 855.6068295333256
2280.255177791232 1008.3496862537224
2280.8490539455233 1239.0351874648256
2281.442786677013 1278.9588761764312
2282.0363760182554 1292.587961249602
2282.6298220017943 1254.1529722040345
2283.223124660155 1215.7174097504715
2283.816284025859 984.484278363045
2284.4093001314086 1137.2093208989477
2285.002173009292 969.5695292380303
2285.5949026919952 1020.8369560932115
2286.1874892119777 953.0129966713312
2286.7799326016993 889.7040449978389
2287.3722328936 826.2015765804535
2287.964390120109 789.2566072682957
2288.556404313642 815.1697985599255
2289.1482755066027 841.0769130655888
2289.7400037313873 900.1125152459357
2290.3315890203703 850.3081436759833
2290.9230314059205 795.6929516857857
2291.5143309203904 956.0354718853432
2292.1054875961236 846.1020688692461
2292.6965014654506 1087.646177103191
2293.287372560684 743.0952538354543
2293.878100914131 766.8895408654673
2294.468686558086 790.7593356287182
2295.059129524827 874.3437470002054
2295.649429846617 819.5687390658222
2296.239587555716 764.6518146276646
2296.8296026843636 848.404376870845
2297.419475264791 1076.0247894291085
2298.0092053292137 1067.4015288597013
2298.598792909839 1058.6950779547644
2299.1882380388597 981.0522258659327
2299.777540748455 1172.4245467283822
2300.3667010707904 1036.8890766080294
2300.9557190380256 1021.4530841237898
2301.544594682302 951.3813311799561
2302.1333280357503 776.8261758228227
2302.721919130485 896.1648849876692
2303.3103679986198 1039.8141563011015
2303.898674672242 997.1021119459953
2304.486839183437 954.443357112879
2305.0748615642697 966.6268583835044
2305.6627418468015 915.9998247675488
2306.2504800630704 668.2529214990336
2306.8380762451143 1108.895637069582
2307.425530424949 1115.0282804217836
2308.012842634582 1121.1663141884774
2308.6000129060103 1174.3686688298144
2309.187041271214 1014.8719330280516
2309.773927762164 829.0021297916222
2310.3606724108213 1033.5386111437851
2310.9472752491274 803.2758236710397
2311.5337363090184 882.6238857473396
2312.120055622414 859.2057209116887
2312.706233221221 812.8203753438811
2313.2922691373424 854.7898242479189
2313.8781634026564 1041.2183263087677
2314.463916049037 1091.7577924311695
2315.049527108342 1191.736786015256
2315.6349966124235 936.3019577493554
2316.2203245931123 1019.8075674618838
2316.8055110822315 750.3329591942497
2317.3905561115935 1027.0685576503984
2317.9754597129977 798.3195923550114
2318.560221918229 715.6000165801145
2319.1448427590603 632.708248883481
2319.729322267256 864.1466585452168
2320.313660474563 1048.83278176581
2320.8978574127195 773.1637694394078
2321.481913113452 1007.4570442427015
2322.0658276084705 928.7745612092003
2322.6496009294806 978.5417628968055
2323.233233108165 962.3667058073013
2323.8167241762058 946.1279370558574
2324.4000741652617 776.2878373203367
2324.983283106987 859.614069689067
2325.5663510330232 1033.8950321959796
2326.1492779749933 844.7505328950716
2326.7320639645204 1024.2218288732897
2327.3147090332004 1167.616183070641
2327.897213212629 1311.1069879665058
2328.4795765343843 1097.4352947084171
2329.0617990300307 787.1116675180637
2329.643880731124 884.0090546188082
2330.22582166921 981.0777824566218
2330.807621875816 1196.9143287631855
2331.3892813824623 1010.6053945856113
2331.9708002206517 824.0474573785814
2332.5521784218818 994.6897621654549
2333.133416017634 1021.2142762930855
2333.7145130393765 841.8945988310625
2334.295469518571 987.617631012612
2334.876285486658 1193.3637633862795
2335.456960975076 1153.7067396170612
2336.037496015242 1113.9810547094023
2336.6178906385667 923.588639862917
2337.198144876451 945.2275435283094
2337.778258760278 1057.8363565002692
2338.3582323214214 1024.7302522516966
2338.938065591243 991.5214721339216
2339.517758601087 1187.1343305728135
2340.0973113822965 861.0236234544
2340.676723966193 867.099257004213
2341.255996384094 924.1045031531141
2341.835128667295 981.2193886371106
2342.4141208470883 1136.2048677346895
2342.992972954751 934.7240288571517
2343.5716850215467 854.1847641437537
2344.1502570787306 525.2927865065042
2344.7286891575386 786.3410253753821
2345.3069812892045 1115.6122975871533
2345.885133504944 947.7255991512478
2346.4631458359618 805.6327216209935
2347.04101831345 731.2452402433785
2347.6187509685915 874.6634887373141
2348.196343832553 856.0029931722742
2348.7737969364935 961.2564202912536
2349.351110311558 862.3011674422221
2349.9282839888765 780.7221771062456
2350.5053179995757 658.8399236494246
2351.0822123747585 690.8442249353092
2351.658967145526 719.432770393821
2352.2355823429643 748.1114413159827
2352.812057998144 908.5017416030112
2353.3883941421263 882.1630380531453
2353.9645908059647 855.81078822931
2354.540648020693 890.1681982076034
2355.116565817336 964.2716210634338
2355.6923442269126 1038.549201095512
2356.2679832804224 871.9089530274774
2356.8434830088518 859.5842502728559
2357.41884344318 847.1984428026466
2357.994064614377 786.0308671008988
