#exp_cfg={"servo_angle": 0.0, "laser_lim": 100.0, "servo_angle_to": 18.0, "laser_wup": 0.0, "bt_dev": "EnSpectr-25AE3", "laser_wdn_max": 0.0, "frames": 10.0, "servo_used": 0, "servo_calib_use": 0, "laser_wdn_min": 0.0, "servo_pix_from": 90.0, "cooler_tout": 300.0, "servo_angle_from": 0.0, "servo_calib": "[-1.9174921013161362e-09, 3.9322238269163779e-05, -0.27385609119055809, 653.59552119713567]", "laser_autoctl": 0, "servo_pix_to": 3682.0, "laser_pw": 100.0, "cooler_on": 0, "laser_volt": 4.0, "cooler_autoctl": 0, "cooler_curr": 70.0, "cooler_startup": 10.0, "laser_fixed_pw": 0, "gain": 1.3, "offset": 2.53059635486, "servo_calib_degree": 3.0, "laser_curr": 55.0, "shutter": 8200.0, "servo_calib_step": 1.0, "laser_fixed_curr": 0, "exp": 2000.0, "ccd_volt": 4.7, "bt_addr": "00:06:66:62:5A:E3", "servo_delay": 500.0, "laser_autooff": 1}
#proc_cfg={"flat_auto_wnd": 200.0, "flat_auto_fr": 200.0, "flat_auto_shift": 5.0, "yconv": 1, "flatten": 1, "flatten_strength": 100.0, "xfrom": 300.0, "auto_max_frame": 2000.0, "auto_signal": 48000.0, "flat_auto_tol": 0.1, "autoclip": 1, "xrel_range": 0.0, "flat_auto_to": 4000.0, "intensity_adj": 1.0, "xrel": 7852.0, "rmhot": 1, "flat_auto_slit": 4.999999999999997, "auto_ini_exp": 300.0, "auto_off": 0, "xto": 2860.0, "flat_auto_ref": "", "flat_auto_rank": 1, "autobackg": 0, "xrel_adj": 0.0, "auto_black_lvl": 1, "base_wnd": 100.0, "sub_baseline": 0, "xconv": 2, "auto_max_exp": 1000.0, "auto_total_exp": 10000.0, "auto_exp": 0, "rmripple": 0, "black_lvl": 8228.8125, "shutter_clip_adj": 0.0, "auto_bckg": 0, "flat_auto_thr": 0.9, "subbackg": 1}
316.8218498245369 14024.29469770593
317.89969571804795 14079.162238094368
318.977263876126 13969.180264020379
320.05455438786703 13989.868539001905
321.1315673423287 13886.396351208987
322.2083028285215 13862.65240089074
323.2847609354267 13815.920352870879
324.3609417519747 13821.108733073988
325.43684536705587 13757.805048169184
326.5124718695279 13767.502408524448
327.58782134820103 13756.074267287084
328.66289389184385 13742.435050121954
329.7376895891921 13706.726777443435
330.8122085289342 13700.666551236867
331.88645079971866 13724.345868478113
332.9604164901575 13704.692610219514
334.03410568881554 13641.915090099788
335.1075184842266 13718.993934574039
336.18065496487543 13576.010981862117
337.2535152192122 13643.768031018426
338.32609933564163 13607.821181267524
339.39840740253203 13541.098260058594
340.4704395082099 13600.499995666658
341.5421957409617 13516.72220281598
342.6136761890357 13600.010142840954
343.6848809406365 13507.187829472019
344.75581008392874 13424.106183313139
345.82646370703696 13412.132305320914
346.8968418980512 13360.780505260243
347.96694474501055 13392.603344041485
349.0367723359268 13462.020174134677
350.106324758759 13378.511411685444
351.1756021014353 13317.042951619902
352.2446044518383 13332.008276362913
353.31333189781435 13329.051087670092
354.38178452716966 13337.234680430556
355.449962427665 13247.963252355723
356.51786568702846 13260.184564739528
357.58549439294256 13400.385707299682
358.6528486330535 13389.673725959408
359.71992849496564 13315.841499203936
360.7867340662433 13341.994294496335
361.8532654344144 13249.666741581514
362.9195226869597 13378.857950646434
363.9855059113288 13259.464069593494
365.05121519492604 13183.370527362571
366.11665062511565 13251.841350413864
367.1818122892273 13250.446890513422
368.2467002745434 13215.49598592136
369.31131466831175 13265.072073355357
370.375655557742 13263.963968715561
371.4397230299983 13287.33119695773
372.5035171722102 13204.512942991196
373.5670380714637 13176.939693168122
374.6302858148101 13232.34944543907
375.6932604892554 13263.311721086186
376.7559621817709 13232.139264496716
377.81839097928605 13203.807074658045
378.8805469686886 13179.570331793779
379.94243023683157 13321.847438435943
381.0040408705263 13139.562257854943
382.0653789565458 13174.349892079432
383.1264445816196 13216.10902434403
384.1872378324406 13169.671866607503
385.2477587956637 13165.63580719629
386.3080075579037 13154.685909157104
387.3679842057336 13054.653520107317
388.4276888256918 13092.711096995488
389.48712150426945 13073.503998298194
390.54628232792857 13113.83744122035
391.6051713830857 13103.211439590068
392.66378875611736 13004.711512301548
393.7221345333637 13019.018726349608
394.7802088011249 12959.68332674156
395.838011645661 13070.701743211854
396.89554315319765 12898.72354160107
397.9528034099112 12915.441898568035
399.00979250194723 12858.169167384774
400.06651051541485 12914.965028002764
401.1229575363741 12882.094511165173
402.17913365085224 12902.907612169593
403.23503894483656 12996.75653242623
404.2906735042761 12860.40051570456
405.3460374150818 12827.614816767707
406.401130763119 12848.602953133039
407.455953634224 12940.14180551725
408.5105061141876 12919.730765137854
409.56478828876243 12791.144830427496
410.6188002436629 12815.590547379576
411.6725420645689 12841.01588346799
412.72601383711117 12745.967550671425
413.77921564689314 12816.30032473447
414.8321475794728 12807.422561110503
415.88480972036814 12775.947375787107
416.93720215506437 12670.615489101347
417.9893249690049 12742.740920536471
419.04117824759123 12603.81155352113
420.09276207619223 12627.687577920075
421.144076540133 12667.05705685837
422.1951217247042 12610.74095800855
423.24589771515275 12635.913445929464
424.2964045966928 12496.061551699586
425.34664245449494 12631.075605408287
426.3966113736933 12564.219014216498
427.4463114393875 12539.168516772748
428.49574273662984 12521.431580059243
429.5449053504417 12484.520973117269
430.5937993658026 12538.201086346267
431.6424248676558 12505.98680858051
432.6907819409007 12471.835782780347
433.73887067040596 12479.562081717728
434.7866911409965 12468.990851386938
435.8342434374608 12438.865150552901
436.88152764455117 12390.996784574627
437.9285438469724 12371.042180373312
438.9752921294057 12346.262852367183
440.02177257648145 12417.449169666823
441.06798527279716 12391.580508613191
442.1139303029122 12370.468190460422
443.1596077513459 12378.19231614774
444.2050177025794 12363.120224729448
445.25016024105753 12362.157029738863
446.2950354511886 12252.842139430471
447.33964341733736 12306.223238241908
448.383984223834 12331.493008030517
449.4280579549686 12239.830530615518
450.471864694995 12337.20984950828
451.5154045281306 12248.166066230628
452.5586775385509 12274.962768582787
453.60168381039693 12318.039683388119
454.64442342776783 12399.373946440403
455.6868964747264 12333.84985366854
456.7291030353008 12306.667634777625
457.77104319347563 12318.48459503925
458.8127170332027 12192.176535177408
459.854124638392 12344.65134208404
460.895266092919 12396.546512486166
461.93614148061897 12483.33882727866
462.97675088529104 12328.352619196969
464.01709439069236 12334.531027987607
465.0571720805492 12427.491428955718
466.0969840385442 12356.527711164754
467.1365303483253 12430.705762477271
468.17581109350067 12388.807203178443
469.2148263576437 12340.202452061678
470.2535762242878 12460.579194332766
471.29206077693016 12457.917404478518
472.33028009902773 12424.037402102867
473.3682342740012 12416.349504331254
474.40592338523857 12451.311413430205
475.4433475160804 12462.840693683493
476.4805067498364 12486.006506722662
477.51740116978 12419.291268947336
478.5540308591426 12565.689175253356
479.59039590112116 12602.057348956117
480.6264963788726 12541.731341389543
481.6623323755193 12662.976287309275
482.6979039741436 12629.612663628297
483.7332112577915 12706.86863205621
484.76825430947247 12766.066421733747
485.80303321215797 12824.52240217388
486.837548048783 12854.789852467164
487.8717989022425 13031.239918249561
488.90578585539697 12912.53941782302
489.9395089910686 12976.612764696485
490.97296839203955 12947.197882807593
492.00616414106116 12812.891576283722
493.0390963208429 12937.371655506515
494.0717650140559 12919.257912092993
495.10417030333883 12854.09788908005
496.1363122712901 12819.395698802824
497.16819100046814 12766.376003169698
498.1998065734024 12728.271390928614
499.2311590725767 12716.868786087887
500.26224858044407 12588.242438913343
501.2930751794156 12647.137709284847
502.3236389518679 12537.430348803233
503.35393998014115 12505.658560676191
504.38397834653733 12387.14752310652
505.4137541333221 12467.81224613596
506.4432674227228 12411.501494306836
507.4725182969323 12363.011827880424
508.5015068381035 12186.1154897848
509.53023312835467 12226.633718480447
510.55869724976765 12156.41875317043
511.58689928438434 12158.79838804082
512.6148393142121 12048.532018872811
513.6425174212218 12144.232792325192
514.6699336873462 12156.485195651258
515.6970881944835 12186.793030095027
516.7239810244901 12076.579735895266
517.7506122591931 12090.325655990726
518.7769819803761 12154.290611214257
519.8030902697901 12157.329662540087
520.8289372091476 12238.001579075155
521.8545228801249 12291.072149970374
522.8798473643619 12211.975404868843
523.9049107434621 12267.04815540707
524.9297130989908 12261.629462391518
525.9542545124805 12160.781493321885
526.9785350654201 12290.563820134916
528.0025548392696 12235.93335837204
529.0263139154504 12157.970758496182
530.0498123753423 12241.983951562035
531.073050300296 12180.595403319863
532.0960277716204 12114.895359399325
533.1187448705896 12137.106031268318
534.1412016784416 12170.299441243069
535.1633982763833 12228.201294833063
536.1853347455726 12076.277805685346
537.2070111671401 12013.745798998212
538.2284276221817 12066.641703443222
539.2495841917516 11969.900112831552
540.2704809568677 11913.284795667161
541.2911179985167 11969.763215729763
542.3114953976419 11872.056356307055
543.3316132351592 11809.618973989385
544.3514715919409 11798.474461609501
545.3710705488247 11738.66738806927
546.3904101866156 11752.732296884946
547.4094905860784 11754.651823696324
548.4283118279418 11800.424052802384
549.4468739929034 11662.404405877183
550.4651771616191 11714.565815471415
551.4832214147063 11610.750396821586
552.501006832761 11775.371324412896
553.5185334963226 11575.274598444184
554.5358014859103 11641.87849559219
555.5528108820035 11567.068927435
556.5695617650363 11760.734410269062
557.5860542154242 11661.174209341985
558.6022883135283 11639.59006208638
559.6182641396881 11575.178582881204
560.6339817741991 11556.239735520676
561.6494412973225 11649.625595951476
562.6646427892883 11654.190976775575
563.6795863302796 11500.888151964626
564.694272000459 11471.190353366354
565.7086998799423 11604.211465398248
566.7228700488104 11528.717248696377
567.7367825871115 11510.140468232556
568.7504375748576 11558.272707585958
569.7638350920224 11487.73218946411
570.7769752185486 11503.624772481216
571.7898580343353 11493.061039110955
572.802483619258 11420.701508903298
573.8148520531431 11520.897237068584
574.8269634157932 11471.442757665533
575.8388177869692 11455.553733362716
576.8504152463938 11503.04292256678
577.8617558737587 11586.740701874154
578.8728397487175 11519.454033699001
579.883666950891 11491.616728860328
580.8942375598654 11628.03949470463
581.9045516551851 11604.991883259081
582.9146093163617 11757.977437231742
583.924410622878 11627.994516474044
584.9339556541727 11693.55944050501
585.9432444896538 11652.042287604423
586.9522772086875 11681.608974794359
587.9610538906127 11815.251342462925
588.9695746147318 11681.046966399024
589.9778394603054 11725.009899147095
590.985848506567 11729.976189067782
591.9936018327098 11662.883637626666
593.0010995178891 11596.002844044411
594.0083416412344 11592.503593969017
595.0153282818283 11570.70181039481
596.0220595187293 11480.237277684904
597.0285354309508 11459.01493826609
598.0347560974806 11398.960003601114
599.0407215972609 11450.511978997496
600.0464320092051 11420.468563711322
601.0518874121954 11363.023229648123
602.0570878850685 11350.194518516893
603.062033506636 11356.975367891771
604.0667243556636 11481.01770191741
605.0711605108936 11374.24464985757
606.0753420510264 11411.322912237902
607.0792690547278 11428.299122669718
608.082941600629 11375.10569729633
609.0863597673306 11292.249086159965
610.0895236333909 11358.118512092977
611.0924332773357 11481.137882224182
612.0950887776617 11430.02706611688
613.0974902128219 11458.161375395197
614.0996376612384 11443.079267512698
615.1015312013005 11504.54086777182
616.1031709113595 11613.527253390705
617.1045568697336 11525.82676379259
618.1056891547069 11652.468237228955
619.1065678445229 11739.326590331664
620.1071930173985 11815.876770166422
621.1075647515099 11730.517129985408
622.1076831250048 11789.327665693318
623.1075482159849 11832.028964231451
624.1071601025305 11860.448066530154
625.1065188626781 11932.163106371823
626.105624574433 12079.948966356893
627.1044773157682 12071.628988516
628.1030771646128 12200.117544666657
629.1014241988742 12169.760284426413
630.0995184964158 12273.827780870584
631.0973601350688 12307.36897361427
632.0949491926294 12382.63626032696
633.0922857468631 12236.972122461362
634.089369875499 12263.92679211112
635.0862016562278 12306.574088008607
636.0827811667077 12260.988666241416
637.0791084845641 12209.852196715856
638.0751836873878 12215.73014931337
639.0710068527369 12211.538059376857
640.0665780581294 12041.02109471521
641.0618973810506 11979.0516786032
642.0569648989604 12030.216247222701
643.0517806892676 11880.972465978626
644.0463448293649 11789.987451332123
645.040657396592 11735.658273880956
646.0347184682723 11728.233349635046
647.0285281216875 11636.136463394821
648.0220864340772 11521.272479878928
649.0153934826558 11444.14203657606
650.0084493446047 11470.189129653249
651.0012540970674 11363.38050472878
651.9938078171526 11249.457747669945
652.9861105819346 11279.961601136329
653.9781624684565 11301.561234141587
654.9699635537254 11163.560350854019
655.9615139147136 11239.604525817176
656.9528136283589 11128.493393601839
657.9438627715699 11136.477354705317
658.9346614212154 11023.297252908606
659.925209654135 10947.934403531212
660.9155075471263 11047.36843302134
661.9055551769616 10983.977805467805
662.895352620375 11025.928358702866
663.8848999540678 10920.003169505519
664.8741972547068 10810.083742485536
665.863244598926 10809.936216701371
666.8520420633213 10938.633796293518
667.8405897244611 10822.653603713672
668.8288876588758 10758.618030991023
669.8169359430613 10775.064801013514
670.8047346534822 10808.54542098504
671.7922838665672 10681.508236488833
672.7795836587156 10788.054697369542
673.766634106285 10831.492234139925
674.7534352856092 10769.903342781778
675.7399872729766 10580.832542738033
676.7262901446538 10778.299461226356
677.712343976862 10674.87560850519
678.6981488457986 10813.205915474364
679.6837048276229 10768.699052356164
680.6690119984596 10732.421811754737
681.6540704344043 10744.209245597514
682.6388802115107 10640.149614461614
683.6234414058108 10681.58254500909
684.6077540932874 10643.479615213953
685.591818349907 10654.097176465013
686.575634251587 10682.336056681037
687.5592018742263 10601.559243155063
688.5425212936734 10486.226610086193
689.5255925857564 10758.30165506073
690.5084158262707 10498.139100503688
691.4909910909646 10531.864846330502
692.4733184555644 10482.594619464477
693.4553979957618 10523.052046286328
694.4372297872123 10555.569596565536
695.4188139055404 10372.700475237456
696.4001504263324 10353.131256308854
697.3812394251509 10415.152214832384
698.3620809775111 10407.642784691307
699.3426751589104 10288.097032994967
700.3230220448004 10327.492986013374
701.3031217106054 10325.047477826349
702.2829742317172 10400.670324255534
703.2625796834873 10255.999358587196
704.2419381412474 10314.739102837146
705.22104968028 10228.89350066849
706.1999143758458 10252.44979807067
707.178532303169 10211.866158334546
708.1569035374378 10250.941801208563
709.1350281538107 10258.58328714141
710.1129062274158 10169.427574633384
711.0905378333373 10254.493828067567
712.0679230466376 10299.398008678389
713.0450619423427 10292.942784955045
714.0219545954424 10250.18132666708
714.9986010808989 10137.5643998512
715.9750014736292 10217.23623986576
716.9511558485392 10309.001530160338
717.9270642804786 10263.524850028381
718.9027268442787 10279.635542762033
719.8781436147328 10224.137253086337
720.8533146666014 10179.91924512732
721.828240074612 10235.203716542914
722.8029199134635 10250.901226268883
723.7773542578125 10187.472913774476
724.751543182294 10234.581409186521
725.7254867615029 10183.279192260208
726.6991850700015 10132.67386385329
727.6726381823228 10159.239477555782
728.6458461729599 10018.57704713198
729.6188091163858 10076.37120658123
730.5915270870246 10153.101881212104
731.5640001592856 9990.947068042658
732.536228407529 10054.957167034716
733.5082119060917 10062.726923287737
734.4799507292755 9951.747825106677
735.4514449513481 9991.054520038453
736.4226946465496 10058.949119679015
737.3936998890786 10016.635849285485
738.3644607531078 9996.766892662727
739.3349773127793 10038.985578180556
740.3052496421951 9998.936087858143
741.27527781543 9998.6498702365
742.2450619065221 9933.65605891983
743.2146019894826 10022.22701141876
744.183898138288 9935.700741257959
745.1529504268801 9964.27967312763
746.1217589291682 9900.431724784608
747.0903237190341 9796.477003055492
748.058644870318 9897.460721806083
749.0267224568397 9847.52728502187
749.994556552374 9757.196502595794
750.9621472306771 9737.574285481125
751.9294945654583 9776.809677546787
752.8965986304011 9778.84582966961
753.8634594991636 9756.065906254837
754.8300772453586 9856.503718772761
755.7964519425768 9786.795616355694
756.762583664371 9791.01171488461
757.7284724842611 9792.128407483262
758.6941184757416 9768.232119538494
759.6595217122667 9785.8896618794
760.6246822672638 9778.848196270406
761.5896002141235 9641.778683104381
762.5542756262093 9771.099566275732
763.5187085768503 9691.337319212304
764.4828991393406 9665.940647407733
765.4468473869474 9649.584634785355
766.4105533929032 9777.878419439658
767.3740172304078 9708.011680240848
768.3372389726283 9669.567310319315
769.3002186926988 9611.090377636021
770.2629564637282 9531.884510004109
771.2254523587872 9548.881846009928
772.1877064509154 9564.743563348677
773.1497188131179 9534.015945289082
774.1114895183728 9460.419967206159
775.0730186396268 9467.733610447067
776.0343062497905 9409.968711657619
776.9953524217381 9385.57551772486
777.9561572283274 9456.713612140316
778.9167207423689 9391.67994557687
779.8770430366476 9353.48949555058
780.8371241839159 9335.719767321205
781.7969642568951 9289.206023130586
782.7565633282757 9431.921189907805
783.7159214707099 9282.573084704487
784.6750387568281 9338.705801487527
785.6339152592227 9241.644515348973
786.5925510504512 9157.375071167398
787.5509462030477 9233.78252144722
788.5091007895098 9198.978922866405
789.4670148823006 9280.162563979397
790.4246885538596 9228.312462881138
791.3821218765861 9128.555881915687
792.3393149228505 9224.008758510303
793.2962677649975 9200.121438282546
794.2529804753303 9255.602080905406
795.20945312613 9250.547892655526
796.1656857896378 9203.248932925071
797.1216785380675 9173.450734914615
798.0774314435985 9317.965689326305
799.0329445783846 9344.54784689582
799.9882180145414 9292.287100004422
800.9432518241574 9276.268926977245
801.89804607929 9340.741738547742
802.852600851962 9276.024077869235
803.8069162141637 9360.528615459518
804.760992237856 9379.983947365085
805.714828994971 9386.112965890145
806.6684265574077 9392.417565625085
807.6217849970271 9372.294533909186
808.574904385674 9307.770615167698
809.527784795142 9375.882879937777
810.4804262972102 9386.404900407406
811.4328289636178 9288.577860918029
812.3849928660748 9158.413215118844
813.3369180762638 9235.831152466375
814.2886046658241 9188.958185874866
815.2400527063783 9172.125018017985
816.1912622695108 9112.617951614575
817.1422334267718 9147.250198172598
818.0929662496856 9009.713866263535
819.0434608097457 9003.24830367124
819.9937171784059 9030.675123768442
820.9437354271013 8941.987037990186
821.8935156272255 9013.978688073717
822.8430578501484 8835.774280671294
823.7923621672016 8779.5115397094
824.7414286496896 8887.967276123698
825.6902573688876 8832.15719310426
826.6388483960363 8887.147213440872
827.5872018023492 8767.999851695651
828.5353176590033 8861.847237953963
829.4831960371503 8750.23859810578
830.4308370079016 8816.756297698532
831.3782406423525 8762.007054273708
832.3254070115545 8731.68656690893
833.2723361865319 8585.798321481396
834.2190282382799 8676.573069548353
835.1654832377644 8716.420680912797
836.1117012559116 8677.145738764211
837.0576823636256 8754.566682534221
838.003426631778 8594.878334867799
838.9489341312074 8619.552558074613
839.8942049327197 8650.24772994648
840.8392391070975 8694.847708967098
841.7840367250865 8626.46070839429
842.7285978573982 8598.182534831003
843.672922574724 8572.237086198431
844.6170109477152 8595.917209537112
845.560863046996 8578.242977068669
846.5044789431595 8608.888296832682
847.4478587067697 8556.652007285049
848.3910024083561 8653.546883375548
849.333910118421 8587.96402079584
850.2765819074339 8543.01954260044
851.2190178458332 8581.269622405573
852.161218004032 8611.422762713873
853.1031824524016 8637.824338939
854.0449112612987 8572.502457412478
854.9864045010327 8572.400951289437
855.9276622418947 8466.065287762274
856.8686845541379 8619.862287942158
857.8094715079915 8602.425754300399
858.7500231736467 8578.277850000431
859.690339621271 8574.39199136394
860.6304209209939 8626.024193731642
861.5702671429244 8511.575017475992
862.5098783571284 8455.793533056436
863.4492546336569 8521.317561489599
864.3883960425155 8410.181786562143
865.3273026536863 8428.65749110629
866.2659745371238 8444.528970193856
867.2044117627465 8586.263948306241
868.1426144004472 8497.525604300054
869.0805825200823 8472.819716861015
870.0183161914847 8449.037246642678
870.9558154844526 8533.16076918038
871.8930804687552 8491.028136760995
872.8301112141307 8424.598030924135
873.7669077902865 8517.453215987825
874.7034702669062 8651.675693304987
875.6397987136315 8505.57729975139
876.5758932000863 8578.720602273195
877.5117537958522 8545.530553722634
878.4473805704911 8562.786212495093
879.3827735935283 8529.131572069455
880.3179329344603 8582.097541188019
881.2528586627541 8549.076994627241
882.1875508478479 8694.269119796922
883.1220095591489 8564.844092370764
884.0562348660296 8489.169300805079
884.9902268378391 8541.945624479647
885.9239855438955 8565.736426972317
886.8575110534839 8551.734839017314
887.7908034358588 8511.812261836923
888.7238627602474 8531.315973019322
889.6566890958475 8533.949654806162
890.5892825118208 8351.279403836052
891.5216430773125 8482.493195149586
892.4537708614189 8473.90544396247
893.3856659332196 8381.228536474715
894.3173283617652 8328.737091434403
895.2487582160684 8316.905724385126
896.179955565116 8301.709875420089
897.110920477864 8217.617175815296
898.0416530232451 8239.091836311056
898.9721532701478 8223.210444050477
899.9024212874428 8282.127570191931
900.8324571439662 8221.84545891833
901.7622609085302 8186.033403630225
902.6918326499072 8200.700014496488
903.6211724368477 8199.928257567191
904.5502803380696 8214.624179219356
905.4791564222614 8304.860464982274
906.4078007580792 8156.389448953922
907.3362134141571 8182.109932651534
908.2643944590909 8260.311973303407
909.1923439614493 8144.695827814803
910.1200619897754 8048.157388105314
911.0475486125779 8175.240734997996
911.9748038983344 8082.615544418736
912.9018279155007 8073.698198260432
913.8286207324982 8015.903111751885
914.7551824177117 8098.312352047609
915.6815130395116 8115.028353664058
916.6076126662283 7991.34075289282
917.533481366163 8046.91112325742
918.4591192075914 7995.016312909494
919.3845262587565 8026.010095429073
920.3097025878706 7921.325322538988
921.2346482631237 7930.360437963241
922.1593633526682 8031.245490613366
923.0838479246304 7942.824340789421
924.0081020471061 8049.221551781615
924.9321257881656 7889.59788962986
925.8559192158464 7970.570792115994
926.7794823981512 7748.286632375134
927.7028154030686 7902.218119714713
928.6259182985414 7845.905179092154
929.5487911524906 7898.227134864736
930.4714340328119 7918.880825603366
931.3938470073608 7785.280460610391
932.3160301439748 7839.594234603726
933.2379835104548 7904.550036357143
934.1597071745709 7916.234558846787
935.0812012040769 7856.03920470734
936.002465666681 7904.861867742109
936.9235006300696 7838.967917343902
937.8443061619055 7818.32576655375
938.7648823298077 7853.8473964155
939.6852292013809 7741.289736676999
940.6053468441951 7815.10651810207
941.5252353257874 7738.562807811419
942.4448947136698 7847.278152449804
943.364325075323 7690.903749811015
944.2835264782043 7697.37836726064
945.2024989897309 7700.192669624064
946.1212426773054 7746.563548638272
947.0397576082851 7716.767092686384
947.9580438500125 7774.483784089144
948.8761014697939 7710.745884461893
949.7939305349064 7865.485386433344
950.7115311125999 7672.537045885447
951.6289032700952 7705.807703781288
952.5460470745875 7717.09346752445
953.4629625932339 7608.435252072983
954.3796498931715 7715.132161246227
955.2961090415029 7637.273930669694
956.2123401053068 7652.7977004844915
957.1283431516276 7612.643551861767
958.0441182474842 7625.669308302839
958.9596654598663 7715.912885252903
959.8749848557309 7650.403654175594
960.7900765020167 7626.419078295689
961.7049404656209 7595.039835444945
962.6195768134185 7710.120193185665
963.5339856122537 7602.244843257999
964.4481669289453 7618.401323377754
965.3621208302793 7570.694047664353
966.2758473830145 7592.624694514556
967.1893466538822 7694.349579128083
968.1026187095813 7662.830540253218
969.0156636167867 7595.235545822504
969.9284814421426 7674.632213168569
970.8410722522622 7580.501841465998
971.753436113735 7631.967048527692
972.6655730931161 7543.655454927056
973.5774832569368 7692.2376297417595
974.4891666716958 7513.466892969205
975.4006234038698 7480.283603819296
976.3118535198955 7581.442351032934
977.2228570861935 7633.112093542464
978.1336341691494 7574.5552345031265
979.0441848351202 7507.194454593073
979.9545091504333 7654.084751351862
980.864607181391 7667.849619581929
981.7744789942699 7624.398375900897
982.6841246553086 7661.448114465615
983.5935442307236 7615.548384548992
984.5027377867027 7572.073884509987
985.4117053894024 7649.081121927193
986.3204471049557 7562.966256385548
987.2289629994648 7553.015114343163
988.1372531390007 7687.998716547818
989.0453175896091 7600.637533745712
989.9531564173067 7569.238706150757
990.860769688079 7497.278731946391
991.7681574678918 7529.266086280458
992.6753198226706 7534.178067243648
993.582256818323 7522.8992849819115
994.4889685207218 7531.946404960385
995.3954549957143 7686.224201840533
996.301716309119 7565.804902362148
997.2077525267232 7604.456973909924
998.1135637142943 7553.8984720428225
999.0191499375615 7622.127858371479
999.924511262232 7497.062638038803
1000.8296477539861 7632.686145562312
1001.7345594784656 7534.069758307809
1002.6392465012996 7432.214991864293
1003.5437088880753 7626.839330719022
1004.4479467043584 7559.1180379222615
1005.3519600156869 7442.2035813934945
1006.2557488875718 7475.106775207588
1007.1593133854858 7492.480218191797
1008.0626535748888 7398.619027074313
1008.9657695212009 7385.383122351052
1009.8686612898182 7552.907483119823
1010.7713289461135 7487.001036831624
1011.6737725554212 7470.806488401705
1012.5759921830577 7379.481522203649
1013.4779878943027 7444.443683262185
1014.379759754418 7416.020757418924
1015.2813078286254 7380.2776965139465
1016.18263218213 7309.031721701656
1017.0837328801026 7359.4685574757
1017.9846099876886 7356.621328543335
1018.8852635700023 7306.507043301232
1019.7856936921362 7257.37897642447
1020.6859004191447 7326.593206068965
1021.5858838160675 7226.49606532293
1022.4856439479063 7231.90608951773
1023.3851808796389 7158.488477966986
1024.2844946762143 7311.845840569802
1025.183585402554 7179.042667416531
1026.082453123554 7063.851201605355
1026.9810979040776 7291.0173881212195
1027.8795198089647 7054.884345806693
1028.777718903024 7205.69748708508
1029.6756952510368 7159.983343148441
1030.5734489177648 7195.471844212587
1031.4709799679313 7132.312554264936
1032.3682884662358 7239.595015723642
1033.2653744773506 7111.05623739463
1034.1622380659192 7163.075970370703
1035.058879296559 7287.083234878815
1035.9552982338591 7162.220643300518
1036.8514949423825 7292.218012678079
1037.7474694866614 7308.440714399313
1038.6432219312028 7233.729247327004
1039.5387523404825 7407.482432926163
1040.4340607789582 7301.89582809564
1041.3291473110476 7367.981788396854
1042.2240120011465 7404.000927550971
1043.1186549136273 7489.603846135991
1044.0130761128294 7571.05893801998
1044.9072756630649 7438.35796082218
1045.8012536286205 7482.766043245321
1046.6950100737577 7518.435036291962
1047.588545062701 7725.198339203841
1048.481858659663 7623.350581099081
1049.3749509288118 7680.810492390597
1050.2678219343034 7601.720129526259
1051.1604717402515 7628.497116124451
1052.0529004107575 7523.68602803317
1052.9451080098825 7741.250971826017
1053.8370946016694 7599.559396915723
1054.7288602501267 7577.398902060115
1055.6204050192446 7532.679326516814
1056.511728972977 7513.815202537818
1057.402832175254 7383.632986515744
1058.2937146899785 7362.776001151654
1059.1843765810263 7350.385778287899
1060.0748179122456 7415.631966200209
1060.9650387474576 7289.940210998504
1061.855039150456 7282.992948871337
1062.7448191850071 7156.480943813597
1063.6343789148505 7156.224657815947
1064.5237184037014 7175.1398506632
1065.412837715241 7190.307602090752
1066.3017369131267 6927.382297775761
1067.190416060992 7029.9409641204165
1068.0788752224398 6927.532111101039
1068.9671144610438 7006.163882228323
1069.8551338403558 6923.054088421772
1070.7429334239023 6925.290445252926
1071.6305132751695 6879.282803427418
1072.517873457633 6921.296930404906
1073.4050140347335 6845.342779671509
1074.2919350698776 6843.081930314748
1075.1786366264623 6819.36148122406
1076.0651187678395 6832.769451851049
1076.95138155735 6717.2778455444
1077.8374250582929 6822.792173745384
1078.7232493339507 6705.553719558951
1079.608854447577 6686.539420024199
1080.4942404623907 6632.658520599163
1081.3794074415982 6691.693069031676
1082.2643554483657 6816.999467158064
1083.149084545841 6738.840775254195
1084.033594797138 6598.9527774089265
1084.9178862653516 6631.02079438901
1085.8019590135427 6745.710597621236
1086.6858131047484 6558.48525400504
1087.5694486019802 6630.797004047248
1088.4528655682225 6595.5953000004565
1089.3360640664287 6680.728311767447
1090.2190441595321 6616.578354617073
1091.1018059104317 6570.710970544269
1091.98434938201 6654.5446411565545
1092.866674637111 6651.112205870466
1093.748781738559 6535.872959946091
1094.6306707491512 6473.889155729697
1095.5123417316554 6523.334229029359
1096.3937947488157 6458.339960589874
1097.2750298633455 6566.374783944889
1098.156047137938 6445.682328778669
1099.0368466352556 6560.795822307655
1099.9174284179317 6497.783056814778
1100.7977925485757 6357.138995818453
1101.6779390897755 6384.756487068535
1102.5578681040806 6461.394248454149
1103.4375796540226 6419.4853298066355
1104.3170738021054 6489.006008044405
1105.1963506108077 6276.011673181834
1106.0754101425773 6347.738388033255
1106.9542524598382 6296.363221335668
1107.8328776249855 6378.173816185243
1108.7112857003904 6348.700967242219
1109.5894767483987 6370.143327893214
1110.4674508313292 6400.106776905994
1111.3452080114657 6365.878471830023
1112.2227483510815 6440.049558122375
1113.1000719124077 6489.194690413388
1113.9771787576592 6390.515780894066
1114.854068949022 6451.421098831346
1115.7307425486542 6468.097630936745
1116.6071996186893 6356.866971938329
1117.483440221229 6674.205653797532
1118.3594644183577 6486.210125881942
1119.235272272128 6551.541616473975
1120.1108638445658 6461.472737765342
1120.9862391976712 6663.189074936983
1121.8613983934229 6592.663948850587
1122.7363414937627 6542.771278085986
1123.6110685606182 6597.866212723425
1124.485579655884 6637.734815718284
1125.359874841426 6639.273197292724
1126.2339541790916 6596.511664459902
1127.1078177306936 6838.790079825584
1127.9814655580267 6643.065527196432
1128.854897722851 6738.0215082739915
1129.7281142869106 6627.801830972528
1130.6011153119125 6718.650761588263
1131.473900859548 6747.83746536566
1132.3464709914697 6689.178839673429
1133.2188257693178 6734.224922109077
1134.0909652546961 6615.2120004038825
1134.96288950919 6481.569259414423
1135.8345985943506 6668.03180941217
1136.7060925717087 6433.82747085694
1137.57737150277 6471.688917155695
1138.4484354490069 6567.153649722325
1139.3192844718778 6416.456560491825
1140.1899186327992 6271.1549518150105
1141.060337993178 6454.243588138689
1141.930542614382 6288.391455486823
1142.8005325577597 6352.968692702815
1143.670307884635 6062.164326754409
1144.5398686563003 6195.985278049753
1145.409214934025 6253.321432742743
1146.2783467790541 6068.401354209921
1147.1472642526023 6120.0939490216615
1148.0159674158622 6125.596749260394
1148.8844563300026 6063.201337022894
1149.7527310561618 5948.742971221553
1150.6207916554504 5961.4813533686865
1151.4886381889592 5920.907279972003
1152.3562707177498 5931.572975542216
1153.2236893028585 5943.582832471903
1154.090894005296 5852.175905725363
1154.9578848860474 5925.159925914885
1155.8246620060709 5891.014969008209
1156.6912254262988 5830.841588921923
1157.5575752076438 5869.259580659151
1158.42371141098 5897.181322524093
1159.2896340971656 5855.049925139335
1160.1553433270346 5888.958004995864
1161.0208391613887 5857.128128883323
1161.8861216610057 5777.413678770442
1162.75119088664 5773.934830199302
1163.6160468990201 5723.805738200949
1164.4806897588442 5787.23128481309
1165.3451195267917 5818.040265524438
1166.2093362635114 5831.4741318328615
1167.0733400296285 5838.944005788539
1167.9371308857444 5659.546159750155
1168.8007088924278 5727.583598061321
1169.6640741102328 5782.988959427231
1170.5272265996773 5727.980085325327
1171.390166421259 5606.7143825076255
1172.252893635452 5830.517496145365
1173.1154083026995 5787.180946684387
1173.977710483421 5747.8719016306695
1174.8398002380145 5634.921557084399
1175.7016776268483 5807.25809032548
1176.563342710264 5664.098390915394
1177.4247955485826 5722.436232922311
1178.2860362020947 5770.065035403082
1179.147064731069 5590.876809886074
1180.0078811957483 5676.793311325293
1180.8684856563486 5681.211257621417
1181.7288781730604 5679.31262706831
1182.589058806052 5695.15222831215
1183.4490276154593 5775.136641431609
1184.3087846614017 5648.260401391535
1185.1683300039676 5728.433589683538
1186.027663703222 5855.586572347938
1186.8867858192025 5776.60675344745
1187.7456964119228 5797.248610153701
1188.6043955413716 5854.92121993354
1189.4628832675116 5798.151625819804
1190.3211596502842 5765.965990636296
1191.179224749596 5831.425121243324
1192.0370786253388 5709.378246873761
1192.8947213373758 5855.102413471809
1193.7521529455407 6020.439629433731
1194.6093735096438 5747.838239613681
1195.466383089477 5845.00523494644
1196.3231817447977 5719.7972072741495
1197.1797695353398 5917.332939444064
1198.0361465208189 5779.960250006567
1198.8923127609214 5809.497730547786
1199.7482683153048 5867.725020359079
1200.6040132436028 5920.070217418497
1201.459547605431 5803.406268710438
1202.3148714603722 5766.530954705873
1203.1699848679855 5710.7177285156895
1204.0248878878065 5885.846333153509
1204.8795805793507 5551.354040348806
1205.7340630020935 5819.421637768678
1206.5883352155033 5874.203146571614
1207.4423972790064 5696.380888617316
1208.2962492520237 5666.096258337444
1209.1498911939307 5618.4147392861105
1210.0033231640937 5612.092310051026
1210.8565452218427 5647.560557064008
1211.7095574264913 5484.977968844202
1212.5623598373222 5557.738759003625
1213.4149525135963 5462.317499804464
1214.2673355145507 5529.1910114189295
1215.1195088993936 5466.930426268116
1215.9714727273113 5333.975820117239
1216.8232270574663 5611.576122760402
1217.6747719489904 5382.11194956372
1218.5261074609934 5460.30294681665
1219.3772336525653 5489.003883632565
1220.2281505827668 5554.152952055409
1221.0788583106296 5432.619339431891
1221.9293568951707 5395.153448610303
1222.7796463953746 5321.350231776862
1223.629726870202 5358.883836926038
1224.4795983785934 5307.67452529522
1225.3292609794553 5294.249049586381
1226.1787147316809 5244.459123731352
1227.0279596941327 5175.528990002703
1227.8769959256424 5262.011303207924
1228.7258234850306 5366.920448861728
1229.5744424310833 5164.678365037734
1230.422852822563 5289.286161919763
1231.2710547182105 5303.123881136683
1232.119048176739 5304.421335991537
1232.9668332568417 5131.917400370157
1233.8144100171812 5244.597630266583
1234.6617785163999 5280.165925190711
1235.508938813111 5041.715499978482
1236.3558909659114 5172.048875639154
1237.2026350333617 5301.910207806982
1238.049171074008 5216.198492512988
1238.8954991463652 5137.79992914987
1239.741619308932 5074.847143102684
1240.587531620169 5119.411815643237
1241.4332361385277 5162.74522860104
1242.2787329224248 5079.521527413569
1243.1240220302534 5071.665697192898
1243.9691035203869 5009.016723622275
1244.813977451171 5185.120598144603
1245.6586438809263 5139.296863903008
1246.5031028679496 4923.802568885744
1247.3473544705157 5119.588890694746
1248.1913987468706 5003.141988046866
1249.0352357552383 4938.65048503667
1249.8788655538228 5008.367019647623
1250.7222882007918 5093.264835365148
1251.565503754302 5076.493817879893
1252.4085122724755 4891.785522272245
1253.2513138134182 5139.722230499918
1254.0939084352049 5010.969655430183
1254.9362961958905 4955.620364704074
1255.7784771535007 5027.588132140593
1256.6204513660432 5000.047693901672
1257.4622188915 5103.086002172146
1258.3037797878242 4975.920785949767
1259.1451341129468 5026.814551059853
1259.9862819247755 4971.740894782362
1260.8272232811978 4981.681098139701
1261.6679582400666 5125.908744136726
1262.5084868592203 4818.0249913613725
1263.34880919647 4902.108339951581
1264.1889253095997 4997.419971326533
1265.0288352563712 4897.875065439443
1265.8685390945266 4940.134201474413
1266.7080368817751 4894.31328904194
1267.5473286758115 4950.679288135954
1268.386414534294 5019.475375911803
1269.2252945148703 4699.636069851827
1270.0639686751547 4854.9008086842605
1270.9024370727402 4890.996980467235
1271.7406997651997 4819.980146053808
1272.5787568100714 4744.593443021132
1273.4166082648808 4778.141243320448
1274.2542541871244 4744.328706501143
1275.091694634275 4961.26642758505
1275.9289296637817 4732.714831570128
1276.7659593330663 4837.0072765988225
1277.6027836995308 4751.224375462798
1278.4394028205552 4853.738936214291
1279.2758167534867 4833.714962378939
1280.112025555658 4792.686136772196
1280.9480292843746 4732.09889907839
1281.7838279969128 4759.274112267547
1282.6194217505326 4758.777726225964
1283.4548106024686 4640.02903332846
1284.289994609926 4783.624108828156
1285.1249738300921 4833.447472012065
1285.959748320127 4618.454969477335
1286.7943181371702 4737.246043530982
1287.6286833383328 4775.1704012589125
1288.4628439807038 4765.234637029434
1289.2968001213521 4693.051234386965
1290.1305518173194 4602.532645948413
1290.9640991256183 4735.122443579458
1291.7974421032523 4679.212449379677
1292.630580807183 4676.242066569078
1293.463515294361 4711.113315292321
1294.29624562171 4837.1686821520325
1295.12877184613 4621.66906254538
1295.961094024493 4612.596708007761
1296.79321221365 4649.447754396251
1297.6251264704333 4713.0727315737695
1298.4568368516466 4799.0806684188
1299.2883434140658 4736.134034263519
1300.1196462144526 4657.71110654091
1300.9507453095375 4805.035205380934
1301.7816407560313 4737.0363087692
1302.6123326106172 4789.288202184865
1303.4428209299622 4688.82744756526
1304.2731057707024 4869.199056138943
1305.1031871894502 4705.7427366019965
1305.933065242798 4761.584616395174
1306.7627399873181 4748.996992284587
1307.5922114795467 4939.358254510593
1308.4214797760123 5072.391738289713
1309.2505449332057 4676.452293737706
1310.0794070076026 4740.037269877007
1310.9080660556538 4820.155095504155
1311.736522133786 4800.818901180055
1312.5647752983987 4742.123918230262
1313.3928256058734 4588.685498704267
1314.2206731125661 4810.96640557215
1315.048317874809 4712.172656427441
1315.8757599489109 4674.245923516989
1316.7029993911547 4721.525219167857
1317.5300362578055 4850.185154016492
1318.356870605101 4591.112134467486
1319.183502489257 4639.107362216559
1320.0099319664623 4673.100062170534
1320.836159092889 4721.460309925251
1321.66218392468 4669.183616161992
1322.4880065179532 4541.388547285605
1323.3136269288134 4730.297918218364
1324.1390452133292 4636.09949559296
1324.9642614275563 4815.950332916912
1325.7892756275214 4729.350609169933
1326.6140878692295 4584.430304633734
1327.4386982086617 4765.558636894124
1328.2631067017755 4684.424554048846
1329.0873134045069 4767.450576790487
1329.911318372764 4723.54254313559
1330.735121662441 4630.2050727845
1331.558723329399 4655.315682750466
1332.3821234294774 4618.285215675589
1333.2053220185007 4704.652338319555
1334.0283191522612 4551.004772659139
1334.851114886529 4610.194470490814
1335.6737092770582 4556.5279415285095
1336.4961023795695 4592.822718513516
1337.3182942497697 4629.813688171145
1338.1402849433325 4570.750905644652
1338.962074515921 4488.050510791128
1339.7836630231632 4358.94828734772
1340.6050505206676 4769.728951399813
1341.426237064028 4501.922002800263
1342.2472227088037 4479.597459205331
1343.0680075105338 4422.6041373474945
1343.888591524741 4558.487986953991
1344.7089748069138 4490.052973249389
1345.5291574125276 4598.715706978091
1346.3491393970307 4395.87709455471
1347.168920815846 4588.159633113935
1347.9885017243778 4525.173908317947
1348.8078821780036 4433.974662577899
1349.6270622320844 4406.02948996462
1350.4460419419447 4342.073810380496
1351.2648213629054 4411.849663440616
1352.0834005502438 4398.3144029996465
1352.90177955923 4388.975116019619
1353.7199584451064 4432.936482630612
1354.5379372630887 4542.367832795603
1355.355716068374 4445.067403543731
1356.1732949161305 4401.656586495645
1356.9906738615155 4354.129663879193
1357.8078529596478 4355.94269390391
1358.6248322656375 4511.108293131576
1359.441611834567 4341.085441620533
1360.2581917214866 4484.134214464242
1361.0745719814367 4335.981131033929
1361.890752669433 4395.059703030928
1362.7067338404577 4251.193302159416
1363.5225155494845 4425.7066170327935
1364.3380978514506 4379.607319774383
1365.1534808012839 4261.913500050461
1365.9686644538815 4018.481541949698
1366.783648864117 4398.941364707784
1367.5984340868417 4353.222390470072
1368.413020176893 4293.502730976512
1369.2274071890715 4143.287614664567
1370.0415951781652 4322.046682130582
1370.8555841989346 4317.996554254522
1371.6693743061223 4135.04294112705
1372.48296555444 4115.116807799729
1373.2963579985844 4344.298245709257
1374.1095516932255 4276.917860777486
1374.9225466930166 4097.501460932078
1375.7353430525782 4243.300991150884
1376.5479408265164 4113.37742220254
1377.36034006941 4164.378868508533
1378.1725408358216 4247.000429189846
1378.9845431802805 4076.8376101061863
1379.796347157304 4314.133690900733
1380.6079528213813 4225.70706853838
1381.4193602269788 4139.844014545041
1382.230569428546 4116.571949871506
1383.0415804805016 4145.824107852763
1383.852393437246 4109.093497942374
1384.6630083531563 4175.9453165167815
1385.4734252825892 4044.6129628824688
1386.2836442798798 4163.568055242849
1387.0936653993322 4050.2498146482276
1387.9034886952395 4073.409301484219
1388.713114221864 4177.254660812548
1389.5225420334482 4050.0538243671085
1390.331772184214 4047.676436092717
1391.1408047283585 3944.4160633692286
1391.9496397200564 4083.178306643645
1392.758277213461 4116.778819492831
1393.5667172627054 3988.923562533605
1394.3749599218918 4130.918182042781
1395.1830052451114 3894.220616089745
1395.9908532864265 3977.7859112221167
1396.7985040998774 4044.0689341197917
1397.6059577394808 3954.093241226709
1398.4132142592352 3940.9079854060437
1399.2202737131156 3862.8515043681655
1400.027136155073 4075.132697759732
1400.8338016390353 3918.412898030196
1401.6402702189134 3881.6702480298104
1402.446541948586 3923.4012274611828
1403.2526168819204 3855.4191943281694
1404.058495072757 3861.051289466069
1404.8641765749107 3887.624955371192
1405.6696614421799 3981.35551385723
1406.4749497283356 4029.4986496630736
1407.280041487129 3946.742721695709
1408.084936772295 3743.5726761676124
1408.8896356375335 3950.364355489969
1409.6941381365323 3924.9812247253567
1410.498444322955 3817.972530773039
1411.3025542504402 3877.431210222345
1412.106467972606 3782.3958775156543
1412.9101855430508 3940.960233492167
1413.7137070153458 3737.683749751109
1414.5170324430437 3793.1566397631664
1415.320161879672 3886.1365647981393
1416.1230953787435 3867.2730695761975
1416.925832993742 3686.000466210548
1417.7283747781275 3653.9083036022903
1418.5307207853439 3675.2698958082715
1419.3328710688093 3733.139494517853
1420.134825681922 3611.769179637512
1420.9365846780584 3667.6704079080205
1421.7381481105713 3804.862408844017
1422.539516032788 3638.2628881565242
1423.3406884980232 3662.16327104832
1424.1416655595604 3601.6521880981973
1424.942447270665 3560.550343239037
1425.7430336845828 3765.2966619194463
1426.5434248545298 3579.0185121151603
1427.3436208337116 3703.0324645264636
1428.143621675301 3682.3227867506116
1428.9434274324558 3637.4467018799996
1429.7430381583108 3542.5703089500666
1430.5424539059713 3651.834532661487
1431.3416747285337 3793.4056805305468
1432.1407006790632 3646.1808400505533
1432.9395318106053 3594.367865323859
1433.7381681761835 3573.9757512069837
1434.5366098288014 3591.2556311585313
1435.3348568214424 3583.0330173033267
1436.1329092070573 3631.786961163897
1436.9307670385879 3633.582630816981
1437.7284303689503 3673.87837886093
1438.5258992510335 3738.674962771581
1439.3231737377118 3692.463199720263
1440.1202538818306 3609.3595413013454
1440.9171397362225 3492.101906663919
1441.7138313536925 3384.9516182372477
1442.5103287870243 3538.176083753173
1443.3066320889775 3421.209299281126
1444.1027413122956 3746.766919673776
1444.8986565096966 3496.315184619565
1445.694377733882 3555.544660913851
1446.4899050375207 3445.617668384245
1447.2852384732687 3497.0887789923922
1448.0803780937622 3419.259421695754
1448.8753239516063 3467.0079167042445
1449.6700760993954 3336.9461868794688
1450.464634589689 3482.9015659427505
1451.2589994750397 3604.8040975420636
1452.0531708079689 3455.270716000779
1452.8471486409799 3292.1996183721303
1453.6409330265524 3506.4624317230678
1454.4345240171442 3399.7400681500267
1455.2279216651987 3357.0332519191834
1456.0211260231263 3414.96201871486
1456.8141371433194 3595.1891622906596
1457.6069550781594 3389.80568924457
1458.3995798799897 3278.10588020184
1459.1920116011424 3352.5493991381686
1459.98425029393 3272.618652081634
1460.7762960106338 3306.4434401906155
1461.5681488035225 3376.323477838831
1462.3598087248392 3414.2105760055756
1463.1512758268036 3421.2168808195556
1463.942550161617 3254.5006428998845
1464.7336317814625 3263.6725309919275
1465.524520738496 3433.348939696508
1466.3152170848552 3287.315641908694
1467.1057208726506 3283.662535661534
1467.8960321539817 3150.131741052636
1468.6861509809169 3213.5070633668693
1469.4760774055085 3232.3092542190534
1470.265811479785 3246.269946744974
1471.055353255755 3110.068358801517
1471.844702785409 3156.5814971273876
1472.6338601207044 3099.9008092143013
1473.4228253135934 3313.2001909763335
1474.2115984159936 3191.647006663369
1475.0001794798063 3054.9024813645974
1475.7885685569145 3109.2512297107173
1476.576765699172 3179.7110701417228
1477.3647709584238 3246.8024808684004
1478.1525843864802 3302.75176061117
1478.9402060351367 3157.0227019301988
1479.7276359561693 3176.098352844668
1480.514874201328 3207.414865370125
1481.3019208223468 3082.6993114734078
1482.0887758709323 2943.596682611249
1482.8754393987747 3186.1925343492976
1483.6619114575406 3099.6398201258726
1484.4481920988783 3200.6459046418872
1485.2342813744108 3037.802495522285
1486.0201793357446 3220.8246372046133
1486.8058860344572 3109.565537714268
1487.591401522117 3077.7320089598843
1488.3767258502594 3098.7442035437834
1489.1618590704056 3038.4528633831014
1489.9468012340494 2885.9837939949375
1490.7315523926754 3125.1995498881365
1491.5161125977356 3138.5527782847125
1492.3004819006637 3107.7933375392754
1493.084660352877 3075.139552437186
1493.8686480057622 3152.692518664914
1494.6524449106964 3214.7871642359955
1495.4360511190262 3118.1556719115824
1496.219466682087 3241.7940700839326
1497.0026916511779 3064.3868086871394
1497.7857260775945 3112.7883160384686
1498.5685700125996 3090.6420063636037
1499.3512235074395 2975.6970287019867
1500.133686613337 2989.4169199183557
1500.9159593814966 2990.0251485809026
1501.698041863101 3356.540357510106
1502.4799341093094 2995.1587844249757
1503.2616361712662 2890.4539562922537
1504.043148100087 3086.8925625181696
1504.8244699468742 3045.6263620456275
1505.6056017626997 2917.1759042760073
1506.3865435986281 2932.687497908602
1507.1672955056893 3037.647914076058
1507.9478575348967 3043.8515457126236
1508.7282297372512 3243.528469505311
1509.5084121637192 2985.3868577806606
1510.2884048652577 3001.5802147475174
1511.0682078927948 2947.185283235115
1511.8478212972423 2984.610367533411
1512.6272451294917 3011.4197601666187
1513.4064794404076 2974.7633909930864
1514.1855242808433 2935.9973026016937
1514.9643797016215 3061.1948853903928
1515.743045753552 3055.6827865751675
1516.5215224874191 3016.154698451297
1517.2998099539836 2810.5470894608125
1518.077908203999 2960.63080908972
1518.8558172881785 2936.2048828303255
1519.633537257234 2988.7947413292836
1520.4110681618404 2898.8238272624685
1521.1884100526604 3032.983768067298
1521.9655629803365 2993.2100754759913
1522.7425269954856 3114.868258606789
1523.5193021487103 3094.0380056471486
1524.2958884905856 2862.9755624551462
1525.0722860716687 2992.630990239092
1525.848494942502 2923.6324971892695
1526.624515153595 2885.795355816209
1527.4003467554485 2969.532675008178
1528.175989798534 3145.595229872957
1528.9514443333064 2935.479509942309
1529.726710410203 3112.9261791649196
1530.5017880796331 2893.8163431366106
1531.276677391992 2937.605904062295
1532.0513783976457 3096.752694209291
1532.825891146953 2946.770456516292
1533.6002156902414 3081.8871175287713
1534.3743520778207 2955.11149028458
1535.1483003599806 3011.226886643425
1535.9220605869923 2841.6630367536095
1536.6956328091019 3158.619770858305
1537.4690170765407 2844.889335779006
1538.242213439511 3024.3922228735587
1539.015221948208 3029.952296468264
1539.78804265279 3000.1990735742684
1540.560675603405 2844.2177466534913
1541.3331208501804 3100.299269395862
1542.1053784432224 3039.1240475461627
1542.8774484326168 2983.9260320164667
1543.649330868422 3040.115523560134
1544.4210258006842 2972.2107717749514
1545.1925332794308 3002.9113338109682
1545.9638533546604 3058.186076697165
1546.7349860763552 2981.8660228034873
1547.5059314944829 3054.556268345958
1548.27668965898 3002.9251508872194
1549.0472606197673 3051.5814162935862
1549.817644426752 2990.5410348288087
1550.5878411298072 2948.817860989433
1551.3578507787988 2979.2409480619363
1552.1276734235635 2888.2439430781983
1552.8973091139233 2976.5701028587346
1553.6667578996767 3069.478907555676
1554.436019830604 3041.3977445317746
1555.20509495646 2910.253378729767
1555.9739833269869 2994.296413057423
1556.7426849919011 2865.7336090693493
1557.511200000903 3050.1263730476153
1558.2795284036674 3058.4668886435625
1559.0476702498509 2988.727592191107
1559.8156255890954 3026.717398170512
1560.5833944710157 3157.5212028569395
1561.3509769452048 2935.5805529121503
1562.1183730612447 2962.09452698761
1562.8855828686865 2835.591000030906
1563.6526064170703 3143.388946238122
1564.4194437559127 3137.7167658711687
1565.1860949347047 2980.8857480388415
1565.9525600029283 3065.849764722256
1566.7188390100328 3122.1402765757243
1567.4849320054564 2963.944819125976
1568.250839038612 2918.6732059730657
1569.0165601588997 2928.9276505816215
1569.7820954156887 2977.522489810729
1570.5474448583373 2944.4519242350743
1571.31260853618 2908.6559666134585
1572.0775864985299 2767.928371622588
1572.8423787946813 2908.988743569725
1573.6069854739108 2933.1534907260266
1574.371406585471 3000.7833612731
1575.1356421785986 3063.6659653714696
1575.899692302506 2923.497565353446
1576.6635570063845 3026.5423312334688
1577.4272363394157 2906.018977953272
1578.190730350747 2787.9514372056956
1578.9540390895163 2876.1112408885697
1579.7171626048384 2787.543476377372
1580.480100945806 2934.1965456843564
1581.2428541614918 2824.0655745843846
1582.0054223009538 2830.0985002293296
1582.767805413223 2840.9993365665327
1583.5300035473156 2898.646898901222
1584.292016752228 2911.012307702501
1585.0538450769309 2935.669312950903
1585.8154885703807 2807.1120305564077
1586.5769472815136 2813.9951048729217
1587.3382212592405 2973.6508749122354
1588.099310552463 2993.875510695108
1588.8602152100484 2817.3020804833777
1589.6209352808564 2948.5031419708157
1590.3814708137234 2727.688201039555
1591.14182185746 3187.13804754634
1591.9019884608679 2885.8888228231326
1592.6619706727215 2701.4182000700894
1593.4217685417734 2951.507928390856
1594.1813821167616 2922.363785563232
1594.9408114464022 2753.311084392867
1595.7000565793933 2914.060977346528
1596.459117564409 2934.33998514745
1597.2179944501113 2781.5303528892746
1597.9766872851324 2822.3703202627453
1598.735196118092 2940.148686908369
1599.4935209975883 2985.411156022635
1600.2516619721973 2907.6360910946746
1601.0096190904787 2786.7446393305904
1601.7673924009723 2795.172458606903
1602.524981952196 2687.974321117922
1603.2823877926476 2827.913047073596
1604.0396099708087 2806.1895108600243
1604.7966485351371 2642.3975236859173
1605.5535035340745 2886.1699612100124
1606.3101750160404 2874.029002029308
1607.0666630294363 2845.780242967998
1607.822967622642 2707.9041775687115
1608.5790888440224 2654.6420792955087
1609.3350267419137 2874.6282065458313
1610.0907813646445 2831.146954610548
1610.8463527605145 2764.0355974273016
1611.601740977805 2908.9196786630278
1612.356946064785 2975.471653432617
1613.1119680696902 2573.8914185609865
1613.8668070407512 2736.199237741081
1614.6214630261748 2706.980872017657
1615.375936074137 2791.7285707663514
1616.1302262328118 2755.7775538557753
1616.8843335503425 2856.5818942302253
1617.638258074854 2557.3942619394434
1618.391999854457 2695.62625136302
1619.1455589372363 2901.7677278103356
1619.8989353712623 2880.498149247135
1620.65212920458 2619.6356516189167
1621.4051404852235 2746.077783982799
1622.1579692611976 2624.1762322066825
1622.9106155804966 2539.4795412066223
1623.663079491087 2655.719155334488
1624.4153610409248 2819.559592541725
1625.1674602779385 2661.821585291432
1625.9193772500403 2622.5988460791964
1626.6711120051277 2790.756463144651
1627.4226645910676 2687.340765016384
1628.174035055721 2609.866319308218
1628.9252234469168 2698.1304820855185
1629.676229812474 2666.969607961449
1630.4270542001905 2880.0672061074692
1631.1776966578382 2737.7047668509217
1631.9281572331747 2697.936233250357
1632.678435973945 2731.7222706398993
1633.4285329278573 2639.134263278689
1634.1784481426203 2498.136430226362
1634.9281816659113 2703.7512496606196
1635.677733545388 2692.1265411208406
1636.4271038286934 2526.258800325843
1637.176292563452 2675.7048897977993
1637.9252997972635 2607.4833535074745
1638.674125577716 2822.5158200887986
1639.4227699523672 2790.2672148121724
1640.171232968767 2536.0284260765743
1640.9195146744423 2735.5333914390717
1641.6676151168977 2846.803249433871
1642.4155343436178 2736.085550769135
1643.1632724020765 2565.7512136335927
1643.9108293397167 2706.0947606768186
1644.658205203974 2507.3320912408785
1645.4054000422566 2515.5725344706952
1646.1524139019566 2523.611215893022
1646.8992468304423 2603.9591496827315
1647.6458988750728 2616.6830366723807
1648.3923700831765 2697.8322587867683
1649.1386605020743 2638.275988709783
1649.8847701790564 2616.885635760861
1650.6306991614038 2764.4738110049575
1651.3764474963682 2656.424587961715
1652.1220152311944 2470.8429715971674
1652.867402413096 2912.5401941718687
1653.6126090892776 2550.191055654174
1654.3576353069184 2758.880450435531
1655.1024811131829 2676.0312615197686
1655.8471465552066 2659.2298832501465
1656.5916316801213 2809.7299639972593
1657.3359365350298 2750.099443027703
1658.0800611670165 2559.252967884107
1658.824005623148 2553.399296017283
1659.5677699504722 2580.565422862969
1660.3113541960192 2680.793815244145
1661.054758406799 2562.9830280285923
1661.7979826297997 2421.599550937326
1662.5410269119966 2488.0937268278217
1663.283891300338 2675.1384402775097
1664.0265758417645 2501.9527498892894
1664.7690805831826 2538.7121610676204
1665.5114055714948 2526.606621611056
1666.2535508535748 2756.383228292613
1666.9955164762814 2396.2069224334696
1667.7373024864555 2576.958502526834
1668.478908930916 2512.9571169409055
1669.220335856462 2358.4873172827024
1669.9615833098778 2541.2433331003676
1670.7026513379296 2487.3823234617967
1671.44353998736 2509.606537003695
1672.1842493048916 2330.457901823763
1672.9247793372379 2522.4543209430853
1673.6651301310812 2520.2935750786683
1674.4053017330934 2515.5005170626637
1675.1452941899242 2455.13942760063
1675.885107548207 2132.948810669336
1676.6247418545518 2249.7193739717977
1677.3641971555535 2371.6704843889725
1678.1034734977893 2444.920248675085
1678.8425709278108 2468.574707218208
1679.5814894921605 2487.0555320291264
1680.320229237359 2368.0521196842606
1681.0587902098978 2414.9873333805854
1681.7971724562685 2423.7427381797866
1682.5353760229264 2287.6303229760942
1683.2734009563173 2324.3674328757306
1684.0112473028657 2159.1597606934706
1684.7489151089794 2356.163252350776
1685.4864044210462 2336.061261511446
1686.2237152854377 2060.148169754856
1686.960847748498 2324.3248199522545
1687.6978018565642 2240.075118568672
1688.434577655944 2244.197138919606
1689.1711751929379 2139.6131210254002
1689.9075945138156 2315.821042565436
1690.6438356648396 2248.1956028295226
1691.3798986922448 1962.9320228828158
1692.1157836422499 2255.0344364281164
1692.851490561059 2193.424847660127
1693.587019494853 2178.9333025991095
1694.3223704897991 2113.1988530439767
1695.0575435920364 2053.8138545721376
1695.792538847696 2278.318977803709
1696.527356302886 2213.671821780025
1697.2619960036936 1961.8176896473492
1697.9964579961907 1956.1914920001716
1698.730742326432 1843.0493051955436
1699.4648490404488 2018.2557774013426
1700.1987781842563 2189.299517824177
1700.9325298038548 2139.989346678088
1701.6661039452174 2174.2605651632543
1702.3995006543082 2265.1447309446457
1703.1327199770658 2234.35086272818
1703.865761959416 2162.475163210983
1704.598626647261 2215.6126865597225
1705.3313140864866 1979.724094941913
1706.0638243229587 2066.8730646087884
1706.7961574025303 2128.4074552098905
1707.528313371029 2077.1319346326954
1708.260292274268 1936.3296072185399
1708.9920941580403 2118.148022172417
1709.7237190681226 2050.840980257944
1710.4551670502697 2003.2843540454637
1711.18643815022 1901.517344339188
1711.9175324136959 2253.019248152541
1712.6484498863938 1982.270299466259
1713.379190614005 1882.6496458804995
1714.109754642188 1990.1325039734875
1714.8401420165883 2025.1306897158665
1715.570352782839 2457.368645079502
1716.3003869865497 2094.917545318004
1717.0302446733076 2028.3085504383168
1717.7599258886876 2028.6521393292835
1718.4894306782444 2281.173519760416
1719.2187590875183 1818.5999896722358
1719.9479111620203 2107.933200012564
1720.6768869472544 1953.3633508070525
1721.4056864887025 2125.0083378270315
1722.1343098318284 2027.1746613716307
1722.8627570220742 2034.1894941273708
1723.591028104871 1937.5961466433196
1724.3191231256242 1855.0541448073095
1725.0470421297232 1948.2224349527412
1725.7747851625427 2127.1668643363037
1726.5023522694337 2074.2773046915363
1727.2297434957363 1947.3512079204097
1727.9569588867635 1687.5450113018323
1728.6839984878152 2064.671180046823
1729.4108623441734 1754.188368588416
1730.1375505011038 1977.2734283258258
1730.8640630038426 1944.8001159191201
1731.5903998976264 1900.4507614387094
1732.316561227657 2039.4630269821114
1733.0425470391274 1878.0889872291214
1733.7683573772065 1884.89223816173
1734.4939922870508 1830.9476030367045
1735.2194518137949 1975.343134934281
1735.9447360025606 2005.741192308264
1736.669844898439 1884.362490610453
1737.3947785465189 1829.7376623704433
1738.1195369918605 1745.0646768818847
1738.8441202795093 1926.08818777073
1739.5685284544943 1987.91809039619
1740.292761561821 1992.3059884586462
1741.0168196464838 1989.711049698032
1741.7407027534518 1912.7384123345248
1742.464410927687 1913.1288456163852
1743.187944214118 1916.6430925514226
1743.9113026576688 1795.1128020633319
1744.634486303241 1961.6653614997554
1745.3574951957125 1966.3569635315398
1746.0803293799509 1967.3378182711538
1746.8029889008048 1973.819121739402
1747.5254738031017 1856.227742020817
1748.2477841316504 1736.117961733999
1748.969919931249 1892.4096395097847
1749.6918812466665 1700.1576084399487
1750.4136681226646 1971.3208426716544
1751.1352806039777 2008.2131441189401
1751.856718735331 1696.0925086692077
1752.5779825614281 1754.6443865680326
1753.2990721269507 1984.4616764965572
1754.0199874765676 1730.5968614393828
1754.7407286549314 1731.7607982299135
1755.4612957066693 1816.31552492092
1756.1816886763954 1783.735548155746
1756.9019076087097 1934.5791974640208
1757.6219525481865 1851.550901089448
1758.3418235393856 1878.554539176347
1759.061520626854 1825.5376806506786
1759.7810438551096 1951.7724722946168
1760.5003932686614 1751.192922583456
1761.2195689119999 1865.7009719520797
1761.938570829594 1908.198784453738
1762.657399065898 1964.199555656212
1763.376053665348 1767.4573747579907
1764.0945346723602 1726.2420910700034
1764.812842131334 1790.5141583058808
1765.5309760866512 1661.3227305679684
1766.2489365826787 1703.8023055509038
1766.9667236637597 1758.2752986827422
1767.684337374223 1645.5357420737005
1768.401777758383 1535.0032500623952
1769.1190448605284 1766.1264355504743
1769.836138724937 1678.5727686833175
1770.5530593958665 1889.8407609165138
1771.2698069175603 2007.9031750431677
1771.9863813342326 1866.282501752324
1772.702782690094 1838.8405547897437
1773.4190110293293 1936.269766439374
1774.1350663961111 1863.113113890006
1774.8509488345844 1726.6297439058203
1775.5666583888924 1867.6726522172598
1776.2821951031437 1950.494593204067
1776.9975590214362 1817.4958678416606
1777.7127501878585 1908.380146887952
1778.4277686464684 1872.1444631094807
1779.1426144413108 1841.5733444564485
1779.8572876164162 1835.130236953321
1780.571788215797 1650.5679114049585
1781.2861162834415 1797.6146415712938
1782.0002718633277 1796.1865587186235
1782.7142549994132 1909.0831997322016
1783.4280657356376 1892.3728340091839
1784.141704115922 1729.5071916169004
1784.855170184177 1688.1464695872087
1785.5684639842839 1763.7618498889994
1786.2815855601148 1600.089949411215
1786.9945349555237 1762.2437626143158
1787.707312214343 1670.447199209019
1788.4199173803918 1982.998770378248
1789.132350497468 1682.2488284648393
1789.8446116093583 1703.410479307125
1790.556700759822 1628.8298815058768
1791.2686179926077 1804.7701349520644
1791.9803633514493 1742.4553645563312
1792.6919368800554 1684.0573049369937
1793.4033386221236 1743.8759123717293
1794.1145686213295 1901.0403023635731
1794.8256269213307 1948.8721408864535
1795.536513565774 1837.8916231116332
1796.247228598284 1626.6464192187273
1796.9577720624693 1715.3337812733512
1797.6681440019165 1841.9727637468282
1798.3783444602013 1695.776957510075
1799.0883734808776 1738.5559316782244
1799.7982311074884 1736.0015490124351
1800.5079173835475 1894.1364857821857
1801.2174323525633 1752.841137808382
1801.9267760580187 1599.6719379308452
1802.635948543386 1754.4622801082314
1803.3449498521113 1663.7965039494563
1804.0537800276325 1781.498324969411
1804.7624391133668 1837.242407524283
1805.47092715271 1476.35035295846
1806.1792441890484 1732.6505606136354
1806.8873902657433 1771.9875418900665
1807.5953654261448 1745.010020716166
1808.3031697135812 1721.3422997081075
1809.0108031713662 1644.428368569757
1809.71826584279 1634.7561120849164
1810.425557771141 1814.8165239648547
1811.1326789996747 1835.9059514978185
1811.839629571632 1611.8858758078848
1812.5464095302468 1736.0986466210259
1813.2530189187182 1709.3564784831033
1813.959457780249 1623.285916937247
1814.6657261580076 1850.225256050488
1815.371824095153 1763.2955175787727
1816.0777516348262 1661.286934597089
1816.78350882015 1468.1037998249883
1817.4890956942272 1511.5078112451827
1818.1945123001533 1635.350109674359
1818.8997586809928 1662.2216967000036
1819.6048348798067 1592.7744000375553
1820.3097409396287 1769.6855168461188
1821.0144769034796 1955.106166559536
1821.7190428143622 1674.0505414223535
1822.423438715261 1759.5008225712172
1823.1276646491478 1627.4203097288298
1823.8317206589727 1748.8525224062857
1824.5356067876692 1595.5391508368587
1825.2393230781581 1603.4678245596085
1825.942869573335 1644.1597478465367
1826.646246316086 1673.9396817812292
1827.3494533492758 1726.4511677506393
1828.052490715756 1763.035351709187
1828.7553584583547 1769.3914088632969
1829.458056619891 1812.833107743699
1830.1605852431585 1833.6380858710497
1830.8629443709433 1584.1887705020488
1831.5651340460063 1725.566902410564
1832.2671543110919 1481.9332826574098
1832.9690052089318 1803.2331194520375
1833.6706867822395 1646.5267332201227
1834.3721990737104 1705.9716888540042
1835.0735421260233 1787.7083486785327
1835.774715981841 1702.3764445414986
1836.4757206838058 1760.399041737078
1837.1765562745459 1784.2661741400516
1837.8772227966747 1659.9948019504463
1838.5777202927839 1679.6610463501722
1839.2780488054523 1568.3405205768152
1839.9782083772352 1635.5892363734683
1840.6781990506806 1813.9089207592563
1841.378020868313 1549.0818957149284
1842.0776738726418 1810.1946623843937
1842.777158106157 1678.782929331352
1843.4764736113375 1637.0208133090377
1844.1756204306403 1726.828668964166
1844.8745986065078 1518.0694880415183
1845.5734081813607 1522.4699365782612
1846.2720491976124 1541.9127236914705
1846.970521697649 1523.7106628291122
1847.6688257238511 1777.6028199266573
1848.3669613185684 1705.242279686699
1849.0649285241452 1580.3347647699575
1849.7627273829057 1753.2515563103775
1850.460357937156 1612.4243391276145
1851.1578202291857 1440.1641725760605
1851.8551143012664 1611.8978111972988
1852.5522401956569 1559.183711301335
1853.2491979545957 1791.7994249708015
1853.9459876203055 1570.955413518347
1854.6426092349902 1455.3351452146142
1855.3390628408451 1559.6416801743612
1856.0353484800362 1678.0344520530466
1856.7314661947203 1683.6019034172816
1857.4274160270397 1490.4975078609423
1858.123198019115 1614.4717298627131
1858.8188122130487 1588.9232072625362
1859.5142586509319 1504.4276837281816
1860.209537374838 1545.4720345365006
1860.9046484268183 1624.7298602171538
1861.599591848917 1658.946574149275
1862.294367683151 1539.4261605820404
1862.988975971528 1633.5696846080616
1863.6834167560355 1559.04849464658
1864.3776900786452 1779.548976993478
1865.0717959813119 1614.402163913599
1865.7657345059724 1529.2512676230538
1866.4595056945564 1725.8354806967163
1867.1531095889586 1701.8603585866153
1867.846546231076 1486.5208102301935
1868.5398156627743 1714.3162384646178
1869.2329179259123 1643.1342585262887
1869.9258530623283 1634.9117298665367
1870.618621113843 1684.5161146014968
1871.3112221222636 1473.5019330759492
1872.0036561293764 1508.9054473798917
1872.695923176956 1722.7569722847954
1873.3880233067594 1709.0932019999896
1874.0799565605212 1461.261845818975
1874.7717229799673 1634.172338725552
1875.4633226068036 1593.1422342247467
1876.1547554827175 1745.314828571282
1876.8460216493859 1447.3717082442336
1877.5371211484617 1734.9032556557336
1878.2280540215852 1715.076365699682
1878.9188203103804 1454.4120348325914
1879.6094200564548 1592.867308275187
1880.299853301396 1554.196964329795
1880.9901200867826 1724.8421081607037
1881.6802204541673 1653.3205816121322
1882.3701544450942 1625.2069343264307
1883.059922101087 1405.8464751682839
1883.7495234636517 1701.3665462386452
1884.4389585742792 1511.0845677067505
1885.1282274744517 1577.1446571251886
1885.8173302056166 1520.6841055833181
1886.506266809225 1464.1506666217288
1887.195037326701 1525.8591104549423
1887.8836417994517 1501.9073115632884
1888.5720802688702 1727.4118491170407
1889.260352776333 1508.586243085013
1889.9484593632042 1631.5308962872946
1890.63640007082 1609.5237444224542
1891.3241749405151 1354.316801796233
1892.0117840135954 1572.6649764196686
1892.6992273313572 1523.6670476705558
1893.3865049350788 1539.31445956057
1894.0736168660223 1671.9376450989887
1894.7605631654333 1617.3952776936835
1895.4473438745408 1530.250983754684
1896.133959034556 1723.3690097373778
1896.820408686679 1618.869947301776
1897.506692872088 1600.8686198093606
1898.192811631945 1651.476850273283
1898.8787650073991 1535.8325691098296
1899.5645530395832 1755.6769111329643
1900.2501757696118 1609.3218028570827
1900.9356332385796 1516.314905516667
1901.620925487574 1679.8343112046746
1902.3060525576602 1547.0590772752005
1902.9910144898859 1657.5541612265777
1903.6758113252872 1546.527474135956
1904.3604431048789 1703.829695521384
1905.0449098696663 1576.320565474079
1905.7292116606295 1435.7694729179498
1906.4133485187394 1558.8117504003344
1907.0973204849488 1299.0539013187492
1907.7811276001976 1240.957687652508
1908.4647699053967 1162.0839497173235
1909.1482474414588 1083.0021989070851
1909.8315602492694 1307.0769403822983
1910.5147083696957 1567.32004889194
1911.1976918436012 1560.3586323990944
1911.880510711815 1378.4682636687187
1912.5631650151681 1588.540913136516
1913.2456547944657 1542.6855805138653
1913.927980090495 1581.5863927590276
1914.6101409440362 1639.001008673403
1915.2921373958416 1600.4668658288115
1915.9739694866603 1568.3725537487012
1916.655637257214 1638.9193519346973
1917.3371407482136 1593.883402451082
1918.0184800003572 1654.3641275253751
1918.6996550543154 1511.8858659198854
1919.3806659507554 1570.4313619334494
1920.0615127303208 1615.9769627099206
1920.7421954336423 1651.280448598586
1921.4227141013343 1595.495504373333
1922.103068773993 1629.8073104665132
1922.783259492202 1691.1530341396108
1923.4632862965227 1395.213931586573
1924.1431492275078 1522.7490538590478
1924.8228483256917 1531.236634847106
1925.5023836315922 1401.7784174513554
1926.1817551857057 1253.5157297529302
1926.8609630285227 1620.7067028528459
1927.5400072005123 1687.5312518894461
1928.218887742125 1426.1083411321015
1928.8976046938005 1529.5874270667282
1929.5761580959588 1609.936206488232
1930.2545479890086 1459.6495980463458
1930.9327744133352 1382.3972396065487
1931.6108374093164 1518.5783096226285
1932.2887370173066 1624.9391034499506
1932.9664732776473 1312.7798758181902
1933.6440462306673 1616.3887577145415
1934.3214559166754 1559.5485786658865
1934.9987023759659 1665.2795490059427
1935.675785648813 1470.9500019441878
1936.3527057754836 1514.1992245392921
1937.029462796223 1557.5553945340698
1937.70605675126 1566.8344502898528
1938.3824876808085 1378.3196950937495
1939.058755625072 1460.817776667783
1939.7348606242267 1489.1838462037329
1940.4108027184448 1648.3901344930487
1941.0865819478713 1520.331134868722
1941.7621983526478 1436.9324517174155
1942.4376519728921 1449.1050460999425
1943.1129428487038 1455.5270741487388
1943.7880710201734 1561.760074550624
1944.4630365273733 1719.1089805433207
1945.1378394103576 1378.4513276912585
1945.8124797091714 1288.8479579718194
1946.4869574638324 1199.02161692085
1947.161272714353 1379.6011313900356
1947.8354255007234 1540.205288206164
1948.5094158629272 1422.71779850297
1949.1832438409183 1660.0382265949636
1949.8569094746435 1598.5891380602036
1950.530412804037 1634.9066935520032
1951.2037538690092 1731.4232438851136
1951.8769327094578 1464.9940726831364
1952.5499493652678 1404.058155321159
1953.222803876306 1513.1418922426067
1953.895496282421 1626.2211894587824
1954.5680266234522 1492.986115684273
1955.2403949392155 1515.4300096847032
1955.9126012695142 1326.2432475240848
1956.5846456541403 1453.9380853283888
1957.2565281328643 1362.11849954757
1957.9282487454457 1638.583562602988
1958.5998075316202 1517.5408599280343
1959.27120453112 1517.7207131428424
1959.9424397836501 1499.3415738817434
1960.613513328908 1565.2426917075456
1961.2844252065697 1507.644225494902
1961.9551754563017 1481.3248256065008
1962.6257641177453 1431.3256861085342
1963.29619123054 1306.4741624940757
1963.966456834296 1395.8318155623906
1964.6365609686181 1502.9622526415446
1965.306503673086 1587.5131589804794
1965.976284987275 1377.499500562382
1966.645904950734 1388.0554708149898
1967.315363603002 1402.5188279157799
1967.9846609836077 1482.053204934565
1968.6537971320486 1274.3352635804247
1969.3227720878222 1497.917114675966
1969.9915858904042 1354.1801959306708
1970.660238579252 1482.0934200652034
1971.3287301938108 1472.79643255013
1971.997060773514 1322.2138290627222
1972.665230357772 1351.722957532826
1973.3332389859843 1371.5241334288746
1974.0010866975335 1257.682613924261
1974.6687735317864 1399.631922429937
1975.3362995280932 1485.2375224821958
1976.003664725793 1468.5796602691112
1976.6708691642052 1271.8107458613329
1977.3379128826364 1434.866469777959
1978.004795920373 1586.090286674336
1978.6715183166925 1710.5307656005916
1979.3380801108524 1272.913160703802
1980.0044813420973 1359.4505807614519
1980.6707220496555 1310.4395908476185
1981.3368022727373 1572.0816343855638
1982.0027220505417 1377.4440458800389
1982.66848142225 1221.5994148124807
1983.3340804270283 1347.9528473560713
1983.999519104027 1372.3563894307745
1984.6647974923835 1415.892496692621
1985.329915631215 1296.7763465718085
1985.99487355963 1422.7149087148234
1986.6596713167146 1539.7736094091294
1987.3243089415428 1436.3844584723197
1987.9887864731754 1566.6661181809627
1988.6531039506553 1278.4109106228761
1989.3172614130071 1264.860426829071
1989.9812588992481 1251.3064551253497
1990.645096448372 1295.9199192477595
1991.3087740993633 1454.042566510361
1991.9722918911848 1287.141248555561
1992.635649862792 1505.4336462827307
1993.2988480531185 1487.5778056134245
1993.9618865010852 1399.6044639747527
1994.6247652455968 1311.5151943200385
1995.287484325545 1358.7768682641788
1995.9500437798033 1385.8155827723333
1996.6124436472292 1394.5954894076522
1997.2746839666706 1387.0729576475178
1997.936764776954 1434.8086054392618
1998.598686116895 1416.0414661295822
1999.2604480252903 1607.493030062805
1999.9220505409212 1572.3569925377692
2000.5834937025593 1268.7127460359593
2001.2447775489582 1381.1595300136566
2001.9059021188514 1410.2750208094235
2002.5668674509616 1335.1852396746121
2003.2276735839987 1307.3244436982243
2003.8883205566508 1459.0063065039028
2004.5488084075987 1402.1326584625026
2005.2091371755014 1528.204543788804
2005.8693068990033 1202.347383469572
2006.5293176167397 1583.3657148496068
2007.1891693673224 1254.147234528967
2007.848862189354 1088.3474677676318
2008.5083961214223 1341.904640705739
2009.1677712020955 1252.9825960911976
2009.8269874699254 1410.6703760186763
2010.4860449634598 1607.4073031483908
2011.1449437212177 1627.3062889896116
2011.8036837817108 1647.3471987748737
2012.4622651834325 1392.225374609418
2013.1206879648653 1484.4610936327038
2013.7789521644736 1356.5244155895562
2014.4370578207036 1228.206258773808
2015.0950049719922 1378.563781196212
2015.7527936567585 1465.0018081212534
2016.4104239134067 1270.6813332433035
2017.067895780323 1221.1968177745134
2017.725209295886 1171.5358766350482
2018.3823644984514 1513.6430153510194
2019.0393614263648 1339.3870849694636
2019.6962001179545 1411.3950947963388
2020.3528806115355 1483.5939211825757
2021.0094029454067 1293.6420280590605
2021.6657671578487 1317.850549145916
2022.321973287133 1336.8243146064801
2022.9780213715148 1276.657136550877
2023.6339114492293 1342.9549495994086
2024.2896435585026 1283.8403275562052
2024.9452177375442 1334.3636125587498
2025.600634024544 1375.4116889476013
2026.2558924576842 1503.0093187649345
2026.9109930751292 1623.4934312120959
2027.565935915025 1634.9591301854477
2028.2207210155066 1646.4439139488309
2028.8753484146964 1554.6454560940288
2029.529818150695 1476.6337086703102
2030.1841302615903 1398.2735725702041
2030.8382847854573 1351.228984917965
2031.4922817603601 1365.1603228520148
2032.1461212243357 1525.7355316816588
2032.7998032154192 1272.0104425851853
2033.4533277716218 1369.9299980845942
2034.1066949309443 1292.0939178446597
2034.7599047313688 1363.556526768904
2035.4129572108704 1393.2332249431906
2036.0658524074006 1339.2174552377044
2036.7185903589016 1444.9486166067627
2037.3711711032956 1542.0881622645957
2038.023594678496 1417.5975548979486
2038.675861122394 1312.9070776390495
2039.3279704728757 1386.254531732302
2039.9799227678031 1238.3646609487455
2040.6317180450278 1381.875022624255
2041.2833563423865 1337.0114630358005
2041.9348376977014 1477.706786883342
2042.5861621487784 1292.5065108405074
2043.2373297334088 1354.2040610043352
2043.8883404893695 1415.9224015821671
2044.5391944544208 1238.6192197539378
2045.1898916663158 1486.766557359791
2045.8404321627804 1517.0309876379795
2046.4908159815368 1234.8523752628737
2047.1410431602853 1230.0184200457918
2047.7911137367173 1287.8638363912994
2048.441027748504 1239.7292196878873
2049.090785233302 1191.501782171663
2049.7403862287592 1233.564764697795
2050.389830772503 1245.3569010473643
2051.0391189021466 1257.1952619386334
2051.688250655294 1227.5162464135337
2052.337226069527 1324.9832046565173
2052.986045182417 1360.7765859784756
2053.634708031521 1135.4088524673537
2054.283214654375 1098.586634108778
2054.931565088511 1061.7457444299048
2055.579759371436 1202.7057605684463
2056.2277975406523 1343.846407312295
2056.8756796336384 1395.7324620406378
2057.5234056878617 1465.6169739486377
2058.1709757407752 1535.3698313751943
2058.8183898298194 1475.841765551509
2059.465647992416 1345.8766280988164
2060.1127502659747 1403.848728551718
2060.759696687888 1286.144876987382
2061.4064872955405 1338.4221050254007
2062.053122126292 1260.9839675049905
2062.699601217497 1183.593044434879
2063.345924606485 1280.3132037297537
2063.992092330587 1430.4851799878443
2064.638104427102 1269.8817434633147
2065.283960933324 1507.673383941233
2065.92966188653 1312.9528352690108
2066.5752073239855 1315.7874469999456
2067.2205972829397 1318.6333096075282
2067.86583180062 1310.1180543471814
2068.5109109142522 1376.703642015831
2069.15583466104 1279.4494261333116
2069.8006030781708 1182.1060053747055
2070.445216202821 1082.3881685616639
2071.089674072153 1395.203564492151
2071.7339767233116 1399.2581160974053
2072.3781241934303 1357.6908950805528
2073.0221165196253 1435.966923091708
2073.6659537390024 1388.7447701333788
2074.3096358886505 1362.0935560121195
2074.953163005637 1308.0244639675207
2075.596535127028 1350.5990458930312
2076.2397522898664 1393.2501439455198
2076.882814531182 1415.9136163628032
2077.5257218879924 1435.164107291204
2078.1684743973 1236.4933450037577
2078.8110720960885 1129.3730896553138
2079.453515021336 1201.2512185459452
2080.095803209997 1273.1798926377717
2080.7379366990135 1403.7804790212656
2081.37991552532 1497.6724940359286
2082.0217397258275 1404.0502048596095
2082.6634093374414 1144.5422397309633
2083.3049243970418 1344.487678964349
2083.9462849415067 1422.5618217759534
2084.587491007689 1390.1052240909203
2085.2285426324324 1355.3987678100173
2085.869439852564 1473.23715016692
2086.510182704902 1119.4766067275737
2087.1507712262483 1163.2815870718603
2087.791205453381 1312.561921047255
2088.4314854230743 1353.0764440937571
2089.0716111720867 1430.7712632346406
2089.7115827371617 1218.2673011830643
2090.351400155023 1552.91680865626
2090.991063462385 1300.710219373043
2091.6305726959527 1051.5955706494224
2092.2699278924047 1247.3514108259455
2092.9091290884153 1226.5042732721165
2093.548176320641 1198.630943822042
2094.187069625721 1151.4094872500239
2094.8258090402887 1104.0839716880246
2095.464394600951 1269.3933369813517
2096.102826344313 1283.7009469810723
2096.741104306955 1261.6327206012993
2097.379228525453 1239.518021880947
2098.017199036358 1104.3276983507394
2098.6550158762147 1397.843510173257
2099.2926790815527 1432.4096485882521
2099.9301886888825 1387.8879300368415
2100.5675447347076 1158.7909295418035
2101.2047472555114 1388.4721125294836
2101.841796287761 1231.1647320928416
2102.47869186792 1368.8954139026523
2103.1154340324265 1360.8749416989765
2103.752022817709 1238.7230974704269
2104.388458260184 1398.3660063318723
2105.024740396251 1351.0697974197367
2105.660869262292 1319.19161844569
2106.296844894685 1340.9992784077033
2106.93266732978 1291.1588132199993
2107.5683366039284 1444.7135178056944
2108.2038527534532 1366.1830333457563
2108.8392158146726 1408.6755239567597
2109.4744258238843 1352.785957228704
2110.1094828173755 1403.8351136039962
2110.744386831422 1455.0393069585666
2111.3791379022787 1382.1740935940782
2112.01373606619 1305.5067898797902
2112.648181359389 1512.8115379438186
2113.28247381809 1368.2709332118907
2113.916613478492 1372.4315143211315
2114.550600376786 1503.9894266941135
2115.1844345491445 1175.1821894743819
2115.818116031729 1233.6634407733704
2116.451644860679 1417.64122079649
2117.085021072133 1202.048642381784
2117.718244702204 1093.3601213269853
2118.3513157869984 1300.7486196676173
2118.984234362604 1122.1606861569865
2119.617000465092 1333.4926947326896
2120.249614130529 1325.9725002859786
2120.8820753949585 1471.607553720884
2121.5143842944162 1308.492011062174
2122.14654086492 1191.8260325254762
2122.7785451424734 1387.1303791004898
2123.4103971630702 1358.5299461668571
2124.042096962681 1330.0124687338887
2124.6736445772767 1356.4164466142117
2125.305040042802 1173.0452672739127
2125.936283395191 1250.0658501672692
2126.567374670365 1423.7981822104728
2127.198313904233 1216.044799588604
2127.8291011326855 1593.400584619433
2128.4597363916037 1555.2226610798302
2129.0902197168507 1193.5462133311744
2129.720551144279 1205.6782072633648
2130.3507307097225 1563.8838371410088
2130.980758449008 1475.1807747433836
2131.6106343979427 1454.2324677909735
2132.2403585923203 1433.185294607188
2132.8699310679276 1331.5708873369479
2133.499351860526 1297.2552895637962
2134.1286210058715 1345.353914172461
2134.7577385397053 1391.0382159767719
2135.3867044977487 1436.8360114223008
2136.0155189157176 1530.324623745032
2136.644181829308 1299.729589152868
2137.2726932742025 1382.1537270179674
2137.901053286074 1399.56718452972
2138.5292619005777 1068.1363049191903
2139.1573191533535 1190.9307126289564
2139.7852250800315 1378.0974658917607
2140.4129797162295 1157.86309494116
2141.0405830975433 1074.5480499694963
2141.6680352595613 1151.2259638402375
2142.2953362378576 1228.0638918951959
2142.9224860679915 1104.1862346144658
2143.549484785508 1224.1396173928906
2144.1763324259373 1250.6473616812023
2144.803029024799 1254.3634743708762
2145.429574617594 1219.9788931175563
2146.0559692398165 1293.3354014414242
2146.682212926942 1298.1122131390566
2147.308305714432 1291.3537402987633
2147.9342476377333 1397.6996589545467
2148.5600387322847 1446.8725721063365
2149.185679033506 1488.4936601860961
2149.8111685768017 1298.3629457359925
2150.4365073975678 1119.5542916425197
2151.061695531187 1276.22309160436
2151.686733013021 1308.1105802719546
2152.311619878423 1340.1477489957717
2152.9363561627342 1139.29061511736
2153.560941901278 1148.125710965505
2154.1853771293663 1221.0054436609576
2154.809661882293 1171.921925902761
2155.433796195348 1151.5098544341374
2156.0577801037944 1130.928130208844
2156.681613642895 1130.14043453034
2157.3052968478896 1032.818543594933
2157.928829754006 1416.625926104163
2158.552212396462 1394.023230785977
2159.1754448104566 1272.339980783516
2159.7985270311783 1115.8644975676743
2160.4214590938027 1088.248642587578
2161.0442410334927 1060.7002180297259
2161.6668728853874 1274.7020198874955
2162.289354684628 1194.4117429080552
2162.911686466332 1357.2325993253285
2163.533868265602 1341.6148636532002
2164.1559001175337 1254.6340244457233
2164.7777820572046 1167.4534696709497
2165.399514119681 1168.3701474139805
2166.021096340013 1015.9702724657434
2166.6425287532384 1083.7403723683904
2167.263811394385 1151.6847228282054
2167.8849442984574 1345.5423080722885
2168.505927500455 1245.2376782091837
2169.126761035366 1317.164085978355
2169.7474449381552 1309.6630007846127
2170.367979243778 926.6173889725433
2170.9883639871823 1019.6273438104945
2171.608599203293 1112.9025551168045
2172.2286849270276 1537.587125037807
2172.8486211932886 1430.4121270436694
2173.4684080369625 1416.451934809309
2174.0880454929265 1171.5304178690583
2174.7075335960417 1006.5512272477874
2175.3268723811543 1056.08092385551
2175.9460618831 1105.750479731309
2176.565102136701 1314.0236276500452
2177.1839931767627 1254.6741784769483
2177.802735038078 1195.185899664073
2178.421327755432 1055.6632251812714
2179.0397713635866 1074.3754655897305
2179.658065897298 1230.5679684732747
2180.276211391305 1197.334782651118
2180.8942078803357 1341.89859856622
2181.5120553991 1321.9929786913003
2182.129753982299 1088.8082483636376
2182.7473036646206 1235.0062561291331
2183.3647044807367 1444.7318744969039
2183.9819564653044 1427.60726309746
2184.599059652968 1410.490982163747
2185.216014078367 1273.3030501117569
2185.832819776113 1319.4146095110625
2186.4494767808137 1365.5601311768696
2187.065985127063 1261.453207742234
2187.682344849436 1197.6552459994368
2188.298555982501 1467.2135732801155
2188.9146185608097 1399.2136244743538
2189.530532618901 1413.9212181604842
2190.1462981912937 1362.0500248485766
2190.761915312507 1345.509081557872
2191.377384017036 1060.7464140680197
2191.9927043393654 1255.2724894378086
2192.6078763139667 1401.7881327583282
2193.2228999753006 1125.283867409195
2193.837775357808 1305.5112780660684
2194.452502495922 1122.1072749222817
2195.0670814240602 1250.6424444340796
2195.6815121766285 1098.3311689692869
2196.2957947880186 1017.7682228088609
2196.9099292926057 937.0461859048477
2197.523915724758 1239.2185722865706
2198.137754118825 1230.8963976548364
2198.7514445091456 1385.2511475482565
2199.3649869300443 1427.5460518315283
2199.9783814158327 1469.9996941988259
2200.5916280008096 1251.857233065377
2201.2047267192593 1416.8467665896146
2201.8176776054515 1085.8163233943208
2202.430480693649 969.1772113563964
2203.0431360180955 1132.3973659930691
2203.6556436130195 1296.0705784635018
2204.268003512645 1102.6605823920952
2204.8802157511727 1247.986153263395
2205.492280362796 1206.4513619798859
2206.1041973816937 1164.8248555718835
2206.715966842032 1197.3815969469897
2207.3275887779655 1273.4981029780815
2207.93906322363 1226.6781830555688
2208.550390213153 1179.565578646965
2209.1615697806465 1279.3907559457646
2209.7726019602105 1197.2869446368984
2210.3834867859277 1140.2575635536216
2210.9942242918787 1277.8564799799192
2211.6048145121167 1168.2583611238083
2212.2152574806914 1210.4341372640872
2212.825553231638 1252.6604136794244
2213.435701798975 1574.3776078522255
2214.045703216707 1261.110120812979
2214.655557518832 930.5970218294067
2215.2652647393297 1101.551970821655
2215.874824912169 987.7434312559278
2216.4842380713 1307.1496477225717
2217.09350425067 1392.6970452375074
2217.7026234842033 1086.8004074753624
2218.311595805819 1186.573181966798
2218.9204212494133 1080.9139522330147
2219.52909984888 1285.1377490198115
2220.137631638092 1146.2652385708693
2220.7460166509154 1299.2582116616545
2221.354254921198 1154.2491693422276
2221.9623464827764 1336.1592531682222
2222.5702913694713 1256.952724912643
2223.178089615096 1364.5233996105023
2223.7857412534486 1175.8210524904891
2224.39324631831 893.1260397758012
2225.000604843457 1102.9962252159953
2225.607816862641 1368.0248688619274
2226.214882409611 1174.1519479994045
2226.8218015180973 1199.5845441091085
2227.4285742218217 1301.6095803396927
2228.0352005544864 1186.617640428081
2228.6416805497847 1093.1568691520984
2229.248014241399 1260.3260561745326
2229.8542016629945 1059.5224815202378
2230.460242848223 1318.2379910697643
2231.0661378307304 1464.1034316334467
2231.671886644139 1054.0962574536456
2232.277489322065 932.7184042949666
2232.8829458981127 918.777646085147
2233.48825640587 1147.7588580005124
2234.0934208789095 1278.0612555356495
2234.6984393507955 1420.210490490421
2235.3033118550793 1150.0783393694703
2235.9080384252975 1174.2583377077865
2236.5126190949723 1170.781445588429
2237.1170538976166 1179.0218415383993
2237.721342866729 1030.841729701982
2238.32548603579 1198.5117235942819
2238.9294834382763 1307.8579451571534
2239.533335107646 1209.2273499255657
2240.1370410773434 1037.0841414060383
2240.740601380803 1001.1940686438145
2241.3440160514474 1392.7915908661764
2241.9472851226783 1451.2657027414484
2242.550408627896 1408.3205173380727
2243.1533866004793 1365.3268608721073
2243.756219073799 1320.8086306374362
2244.3589060812064 1134.590206616944
2244.961447656049 1227.1626089425865
2245.5638438316564 1014.7061185563628
2246.166094641343 1115.5312213966472
2246.7682001184166 1116.6158443113482
2247.3701602961664 1248.169786384451
2247.971975207871 1282.0504493927006
2248.5736448867974 1161.5012973152784
2249.175169366197 1106.0883673625365
2249.7765486793123 1423.994308916951
2250.3777828593684 1311.9654410867297
2250.9788719395783 1132.612770589712
2251.579815953146 1403.3129595376736
2252.1806149332606 1243.0469010817962
2252.781268913097 1219.9181844942423
2253.381777925817 1198.243174398917
2253.9821420045737 1311.0931597995261
2254.5823611825035 1301.4409805804921
2255.1824354927303 1324.734641182701
2255.782364968365 1213.2885850853804
2256.38214964251 1101.7260862971227
2256.9817895482483 1135.545246600947
2257.5812847186553 1328.5842864630415
2258.180635186791 1338.6773373990225
2258.779840985704 1309.735390020665
2259.37890214843 1226.5967948061682
2259.97781870799 1309.0312235635306
2260.5765906973957 1257.4368892357757
2261.175218149645 1426.068273899277
2261.773701097718 1404.6654065216724
2262.3720395745895 1310.627734292332
2262.970233613216 1216.386843446646
2263.568283246548 1176.4555707735203
2264.1661885075137 1063.6848804341764
2264.763949429038 1179.6778668744162
2265.3615660440246 1226.0160524014605
2265.959038385374 1099.3259944953172
2266.5563664859637 1315.8919582573776
2267.153550378669 1173.9647121564774
2267.7505900963424 1232.783986153168
2268.3474856718312 1214.1031117799914
2268.9442371379664 1273.2343105394316
2269.5408445275643 1254.7033893956516
2270.1373078734377 1161.298604626593
2270.7336272083758 1156.4178698710532
2271.32980256516 1281.6750219820376
2271.925833976562 1260.007471582243
2272.5217214753357 1161.545719456997
2273.117465094223 1062.863386520369
2273.7130648659586 1090.0432126917376
2274.308520823257 1301.9429342991675
2274.903832998827 1281.6461490698841
2275.4990014253563 1270.5507523041176
2276.094026135528 1259.4102577819033
2276.6889071620117 1177.144413836253
2277.2836445374614 1023.5548574891081
2277.878238294519 1053.7924952932158
2278.472688465812 1116.5504616151452
2279.066995083962 1179.365759423668
2279.6611581815705 1130.599077792762
2280.255177791232 1117.4784401772854
2280.8490539455233 1483.3861681785268
2281.442786677013 1458.2249345632365
2282.0363760182554 1369.320479602317
2282.6298220017943 1123.0232622328451
2283.223124660155 1414.2277395029132
2283.816284025859 1412.6778664846784
2284.4093001314086 1411.1827079230436
2285.002173009292 1246.9945170795122
2285.5949026919952 1361.2464790946592
2286.1874892119777 1336.158919122039
2286.7799326016993 1332.9369964983614
2287.3722328936 1180.3160318857126
2287.964390120109 1129.5602222870539
2288.556404313642 1465.9868790714295
2289.1482755066027 1374.2481661893776
2289.7400037313873 1346.9649992684772
2290.3315890203703 997.6001797020004
2290.9230314059205 1361.7318761199103
2291.5143309203904 991.3124396851435
2292.1054875961236 1289.6751581595522
2292.6965014654506 1430.2641273129063
2293.287372560684 1444.3734391126259
2293.878100914131 1458.5879975275943
2294.468686558086 1012.1083949174803
2295.059129524827 1205.689705925923
2295.649429846617 1180.736310901872
2296.239587555716 1155.695250772757
2296.8296026843636 1333.9904719671356
2297.419475264791 1300.1342292907236
2298.0092053292137 1175.0109500505557
2298.598792909839 1121.5947855238157
2299.1882380388597 1122.460651363083
2299.777540748455 1257.8502013247187
2300.3667010707904 1324.3960603509922
2300.9557190380256 1225.7035928466878
2301.544594682302 1247.2395559663833
2302.1333280357503 873.691049794786
2302.721919130485 1050.9323497154512
2303.3103679986198 1117.4962228731274
2303.898674672242 1184.25360265013
2304.486839183437 1223.8775938513768
2305.0748615642697 1252.4340910290491
2305.6627418468015 1232.7625077571856
2306.2504800630704 1339.1307978188822
2306.8380762451143 1201.5815635295953
2307.425530424949 1264.4880109039486
2308.012842634582 1327.5289944091269
2308.6000129060103 1471.8402385403117
2309.187041271214 1286.689058062178
2309.773927762164 1073.4840577068705
2310.3606724108213 1270.168573813337
2310.9472752491274 1193.4500122840566
2311.5337363090184 1188.3947545006372
2312.120055622414 1214.3903947447575
2312.706233221221 1276.4563085808024
2313.2922691373424 1028.9838449794045
2313.8781634026564 1104.0707964246983
2314.463916049037 1179.32426134925
2315.049527108342 988.3347075741874
2315.6349966124235 1378.0586677854017
2316.2203245931123 1374.7158480868145
2316.8055110822315 1026.4348604675154
2317.3905561115935 969.762530758273
2317.9754597129977 1230.5058173500006
2318.560221918229 1243.4779174586633
2319.1448427590603 996.253892461692
2319.729322267256 1017.3509094960373
2320.313660474563 1247.0921916470786
2320.8978574127195 1477.4863263207944
2321.481913113452 1549.4533145562168
2322.0658276084705 1251.2961417436177
2322.6496009294806 1162.8471957762058
2323.233233108165 998.8619769500534
2323.8167241762058 1069.8000005492681
2324.4000741652617 1140.8904052472326
2324.983283106987 1265.0091989268208
2325.5663510330232 1291.764326957214
2326.1492779749933 1269.5989072936518
2326.7320639645204 1452.8507110789276
2327.3147090332004 1612.628183859912
2327.897213212629 1177.432524801336
2328.4795765343843 1329.3800125991716
2329.0617990300307 993.8460029539583
2329.643880731124 1412.2158280171325
2330.22582166921 1030.6869986261263
2330.807621875816 1042.4703555018882
2331.3892813824623 1054.3605081157357
2331.9708002206517 1104.526871194866
2332.5521784218818 1210.908206891848
2333.133416017634 1310.7584343306112
2333.7145130393765 1358.0935234207209
2334.295469518571 1405.5582457537982
2334.876285486658 1456.5540386699531
2335.456960975076 1398.406541110163
2336.037496015242 1340.1532895631285
2336.6178906385667 1357.0923755160038
2337.198144876451 1356.9642496420909
2337.778258760278 1118.4097365978319
2338.3582323214214 879.2909004342621
2338.938065591243 1119.2898725205298
2339.517758601087 1136.034302750241
2340.0973113822965 1152.7700894879172
2340.676723966193 1059.1051971664042
2341.255996384094 1253.5791087967505
2341.835128667295 1306.7081057970372
2342.4141208470883 1320.1474279342428
2342.992972954751 1151.761860687909
2343.5716850215467 988.223398324373
2344.1502570787306 824.3289649905907
2344.7286891575386 733.0352897051746
2345.3069812892045 928.3911045665373
2345.885133504944 1124.0036480582096
2346.4631458359618 1182.2766294327264
2347.04101831345 1036.7021127501062
2347.6187509685915 1202.9755719023228
2348.196343832553 1215.9145815637755
2348.7737969364935 1104.937580831894
2349.351110311558 993.8460347378137
2349.9282839888765 884.3887989159317
2350.5053179995757 982.9581206994568
2351.0822123747585 980.2001987997421
2351.658967145526 1052.8177629138613
2352.2355823429643 1125.6189724912515
2352.812057998144 1030.1398475353712
2353.3883941421263 1089.1172790898818
2353.9645908059647 1241.45867007041
2354.540648020693 1138.922406111125
2355.116565817336 1071.437387744727
2355.6923442269126 1087.6153858802559
2356.2679832804224 1103.821943318746
2356.8434830088518 1193.4065950567997
2357.41884344318 1268.9725206726678
2357.994064614377 1233.0243324462049
