#exp_cfg={"servo_angle": 0.0, "laser_lim": 100.0, "servo_angle_to": 18.0, "laser_wup": 0.0, "bt_dev": "EnSpectr-25AE3", "laser_wdn_max": 0.0, "frames": 10.0, "servo_used": 0, "servo_calib_use": 0, "laser_wdn_min": 0.0, "servo_pix_from": 90.0, "cooler_tout": 300.0, "servo_angle_from": 0.0, "servo_calib": "[-1.9174921013161362e-09, 3.9322238269163779e-05, -0.27385609119055809, 653.59552119713567]", "laser_autoctl": 0, "servo_pix_to": 3682.0, "laser_pw": 100.0, "cooler_on": 0, "laser_volt": 4.0, "cooler_autoctl": 0, "cooler_curr": 70.0, "cooler_startup": 10.0, "laser_fixed_pw": 0, "gain": 1.3, "offset": 2.53059635486, "servo_calib_degree": 3.0, "laser_curr": 55.0, "shutter": 8200.0, "servo_calib_step": 1.0, "laser_fixed_curr": 0, "exp": 2000.0, "ccd_volt": 4.7, "bt_addr": "00:06:66:62:5A:E3", "servo_delay": 500.0, "laser_autooff": 1}
#proc_cfg={"flat_auto_wnd": 200.0, "flat_auto_fr": 200.0, "flat_auto_shift": 5.0, "yconv": 1, "flatten": 1, "flatten_strength": 100.0, "xfrom": 300.0, "auto_max_frame": 2000.0, "auto_signal": 48000.0, "flat_auto_tol": 0.1, "autoclip": 1, "xrel_range": 0.0, "flat_auto_to": 4000.0, "intensity_adj": 1.0, "xrel": 7852.0, "rmhot": 1, "flat_auto_slit": 4.999999999999997, "auto_ini_exp": 300.0, "auto_off": 0, "xto": 2860.0, "flat_auto_ref": "", "flat_auto_rank": 1, "autobackg": 0, "xrel_adj": 0.0, "auto_black_lvl": 1, "base_wnd": 100.0, "sub_baseline": 0, "xconv": 2, "auto_max_exp": 1000.0, "auto_total_exp": 10000.0, "auto_exp": 0, "rmripple": 0, "black_lvl": 8229.85625, "shutter_clip_adj": 0.0, "auto_bckg": 0, "flat_auto_thr": 0.9, "subbackg": 1}
316.8218498245369 18105.967173693596
317.89969571804795 17854.55892686244
318.977263876126 17774.00417624991
320.05455438786703 17671.538065731103
321.1315673423287 17589.67093534622
322.2083028285215 17626.282560199208
323.2847609354267 17473.838505170534
324.3609417519747 17396.456702195406
325.43684536705587 17297.53719041826
326.5124718695279 17250.193537879873
327.58782134820103 17147.36002915269
328.66289389184385 17146.482415829945
329.7376895891921 17122.32365527093
330.8122085289342 17038.251799907368
331.88645079971866 16980.889232143018
332.9604164901575 16958.78728400375
334.03410568881554 16840.18476037803
335.1075184842266 16966.190486782205
336.18065496487543 16653.31484067263
337.2535152192122 16637.862979905996
338.32609933564163 16738.040944278924
339.39840740253203 16535.635039196135
340.4704395082099 16619.48450533445
341.5421957409617 16503.160177780846
342.6136761890357 16540.840151756805
343.6848809406365 16414.48457535693
344.75581008392874 16344.620926257368
345.82646370703696 16235.64265649416
346.8968418980512 16228.690039484229
347.96694474501055 16289.737247063933
349.0367723359268 16242.92669127637
350.106324758759 16184.968723854734
351.1756021014353 16103.845239993068
352.2446044518383 16110.172787876912
353.31333189781435 16121.611977215285
354.38178452716966 16105.833562312187
355.449962427665 16076.85519874535
356.51786568702846 15929.200291541685
357.58549439294256 16083.623851988788
358.6528486330535 16034.084908186127
359.71992849496564 15912.99818292883
360.7867340662433 16019.934118281362
361.8532654344144 15976.245666690107
362.9195226869597 16041.528715565448
363.9855059113288 15924.899233493768
365.05121519492604 15925.71297888149
366.11665062511565 16052.339569257634
367.1818122892273 15957.968413301973
368.2467002745434 15912.362731791765
369.31131466831175 16006.733665558688
370.375655557742 15998.853772713768
371.4397230299983 16040.202383647167
372.5035171722102 15928.557884858074
373.5670380714637 15986.085719599283
374.6302858148101 16024.054329449378
375.6932604892554 15954.523990791038
376.7559621817709 15968.532583524484
377.81839097928605 15929.778543474848
378.8805469686886 15819.242644889408
379.94243023683157 15938.246470418802
381.0040408705263 15808.665326481205
382.0653789565458 15753.662781983707
383.1264445816196 15830.659875272893
384.1872378324406 15748.97745013237
385.2477587956637 15705.063969401017
386.3080075579037 15634.838506890703
387.3679842057336 15588.289210078932
388.4276888256918 15645.238798580463
389.48712150426945 15675.63212329497
390.54628232792857 15614.336009531651
391.6051713830857 15626.075161686793
392.66378875611736 15607.072168120543
393.7221345333637 15592.568869707447
394.7802088011249 15646.015051406861
395.838011645661 15566.636222228428
396.89554315319765 15484.24107688321
397.9528034099112 15477.857025179914
399.00979250194723 15431.50315793137
400.06651051541485 15350.371762497098
401.1229575363741 15399.500145813148
402.17913365085224 15417.675906931257
403.23503894483656 15393.275782703358
404.2906735042761 15213.818630498514
405.3460374150818 15206.904708241662
406.401130763119 15231.729565602136
407.455953634224 15218.539031064854
408.5105061141876 15244.523379174852
409.56478828876243 15093.964572258727
410.6188002436629 15028.227599710362
411.6725420645689 15068.721783548022
412.72601383711117 15115.165581787307
413.77921564689314 15206.9236162783
414.8321475794728 15027.115415680644
415.88480972036814 14939.507126106182
416.93720215506437 14954.059954602493
417.9893249690049 14835.76061615847
419.04117824759123 14846.518832996351
420.09276207619223 14786.796659323376
421.144076540133 14820.737545847636
422.1951217247042 14767.156658398051
423.24589771515275 14804.632150323849
424.2964045966928 14729.425529135915
425.34664245449494 14774.069970478764
426.3966113736933 14662.987409077594
427.4463114393875 14677.178473333119
428.49574273662984 14673.206510763635
429.5449053504417 14596.738069357354
430.5937993658026 14695.24293214354
431.6424248676558 14571.930199820834
432.6907819409007 14640.95916767417
433.73887067040596 14627.691898226287
434.7866911409965 14626.86601869828
435.8342434374608 14633.484945273905
436.88152764455117 14613.65343455117
437.9285438469724 14574.397938347083
438.9752921294057 14568.205619001485
440.02177257648145 14536.572764823035
441.06798527279716 14504.32505363952
442.1139303029122 14701.668367181384
443.1596077513459 14639.016072255641
444.2050177025794 14612.241965733774
445.25016024105753 14580.594440397268
446.2950354511886 14589.150077231865
447.33964341733736 14677.75485634639
448.383984223834 14592.506073514212
449.4280579549686 14587.977684380156
450.471864694995 14634.47178000621
451.5154045281306 14596.52863556977
452.5586775385509 14617.647650795645
453.60168381039693 14680.922893021308
454.64442342776783 14778.197215531432
455.6868964747264 14724.797910369167
456.7291030353008 14709.966858065376
457.77104319347563 14874.094060789415
458.8127170332027 14785.612667250462
459.854124638392 14917.420774059337
460.895266092919 15031.083418447073
461.93614148061897 15171.468567633288
462.97675088529104 15143.864129507812
464.01709439069236 15255.414323292314
465.0571720805492 15184.34105657009
466.0969840385442 15274.955258000022
467.1365303483253 15372.267462475342
468.17581109350067 15411.862275844038
469.2148263576437 15347.84390914865
470.2535762242878 15418.625427663355
471.29206077693016 15507.841288340345
472.33028009902773 15504.560568046454
473.3682342740012 15512.41084703081
474.40592338523857 15554.589504219903
475.4433475160804 15505.916188927984
476.4805067498364 15449.700066847508
477.51740116978 15483.94401122962
478.5540308591426 15533.306636303494
479.59039590112116 15650.243306949304
480.6264963788726 15571.013854996927
481.6623323755193 15785.672749472611
482.6979039741436 15724.559858259197
483.7332112577915 15933.6537806116
484.76825430947247 16048.195978308158
485.80303321215797 16113.002770337145
486.837548048783 16254.717574287977
487.8717989022425 16317.573839509616
488.90578585539697 16284.213166304315
489.9395089910686 16559.668306857577
490.97296839203955 16365.109672652903
492.00616414106116 16239.670949282552
493.0390963208429 16293.767267730476
494.0717650140559 16254.889336324888
495.10417030333883 16096.303594595072
496.1363122712901 15988.150804006762
497.16819100046814 15901.03536618081
498.1998065734024 15666.192264131427
499.2311590725767 15588.41236341996
500.26224858044407 15413.239671129098
501.2930751794156 15269.768852043422
502.3236389518679 15163.1851674226
503.35393998014115 14992.367640766854
504.38397834653733 14930.326198747698
505.4137541333221 14872.084661601484
506.4432674227228 14770.590846310759
507.4725182969323 14779.007483420131
508.5015068381035 14594.761717507194
509.53023312835467 14551.679764187933
510.55869724976765 14597.055072614483
511.58689928438434 14488.314019215464
512.6148393142121 14409.528435926448
513.6425174212218 14499.296834093839
514.6699336873462 14524.283633368745
515.6970881944835 14598.713251058816
516.7239810244901 14496.112279019004
517.7506122591931 14479.623725016168
518.7769819803761 14529.52935814756
519.8030902697901 14449.63374823715
520.8289372091476 14550.421565311317
521.8545228801249 14636.68861591263
522.8798473643619 14480.830867517987
523.9049107434621 14687.939679544445
524.9297130989908 14600.55182433903
525.9542545124805 14503.410893325938
526.9785350654201 14544.75982081144
528.0025548392696 14391.193286111355
529.0263139154504 14374.807342892305
530.0498123753423 14403.577269130177
531.073050300296 14319.497952012713
532.0960277716204 14269.787608881157
533.1187448705896 14304.628905918726
534.1412016784416 14233.474296330754
535.1633982763833 14229.324704446664
536.1853347455726 14113.419510083502
537.2070111671401 14026.818153801229
538.2284276221817 14036.99994224439
539.2495841917516 13881.134256493253
540.2704809568677 13866.382906129224
541.2911179985167 13822.150230609928
542.3114953976419 13840.124497007817
543.3316132351592 13759.171092523433
544.3514715919409 13722.468874456874
545.3710705488247 13650.919065214868
546.3904101866156 13751.24959756466
547.4094905860784 13689.330087042024
548.4283118279418 13585.0007217454
549.4468739929034 13679.058837975474
550.4651771616191 13565.724712408168
551.4832214147063 13557.748670365367
552.501006832761 13624.057177106235
553.5185334963226 13488.736465851334
554.5358014859103 13534.873760908173
555.5528108820035 13513.541788709432
556.5695617650363 13611.463836397912
557.5860542154242 13643.363156423113
558.6022883135283 13599.44866843326
559.6182641396881 13562.291279440547
560.6339817741991 13548.944140314556
561.6494412973225 13598.22754912451
562.6646427892883 13589.993227738316
563.6795863302796 13555.115877903863
564.694272000459 13565.256357977903
565.7086998799423 13735.743844138691
566.7228700488104 13552.31657154308
567.7367825871115 13577.472217349501
568.7504375748576 13581.552836972416
569.7638350920224 13595.941946068555
570.7769752185486 13640.187493871645
571.7898580343353 13619.146543883708
572.802483619258 13593.343850860625
573.8148520531431 13764.18668551162
574.8269634157932 13705.741201620718
575.8388177869692 13684.734804870872
576.8504152463938 13813.089493938649
577.8617558737587 13884.897559989797
578.8728397487175 13852.439495786277
579.883666950891 13951.466577666255
580.8942375598654 14086.203758031963
581.9045516551851 14086.28747790675
582.9146093163617 14311.352871851555
583.924410622878 14317.737167190731
584.9339556541727 14340.47675852181
585.9432444896538 14360.796751860826
586.9522772086875 14338.896296559013
587.9610538906127 14482.199518363737
588.9695746147318 14387.19401450725
589.9778394603054 14452.983411170193
590.985848506567 14439.074104032585
591.9936018327098 14329.81198702546
593.0010995178891 14198.24841920885
594.0083416412344 14184.97285274326
595.0153282818283 14195.603754417654
596.0220595187293 14086.421409050163
597.0285354309508 14065.48533925105
598.0347560974806 13934.621182438359
599.0407215972609 14021.311242667507
600.0464320092051 14043.893773040156
601.0518874121954 13902.989100900417
602.0570878850685 14007.2895894374
603.062033506636 14026.117162530292
604.0667243556636 14027.172701227717
605.0711605108936 13920.073035581221
606.0753420510264 14052.431599014662
607.0792690547278 14044.336417406923
608.082941600629 14000.717536934342
609.0863597673306 13951.387919160716
610.0895236333909 14150.442637195583
611.0924332773357 14239.328461148314
612.0950887776617 14349.725432891553
613.0974902128219 14368.927752711581
614.0996376612384 14492.524008359242
615.1015312013005 14556.236007521793
616.1031709113595 14741.500591081869
617.1045568697336 14696.357123930618
618.1056891547069 14923.131346127648
619.1065678445229 15056.460835236701
620.1071930173985 15353.24289478694
621.1075647515099 15414.59940872188
622.1076831250048 15546.53173414352
623.1075482159849 15754.10127092066
624.1071601025305 15993.243199073146
625.1065188626781 16229.431953271307
626.105624574433 16526.473190544366
627.1044773157682 16535.61267116858
628.1030771646128 16723.422881355196
629.1014241988742 16935.394758803977
630.0995184964158 17002.46324395493
631.0973601350688 17218.132849684796
632.0949491926294 17307.613087101017
633.0922857468631 17215.47036583673
634.089369875499 17283.562741522903
635.0862016562278 17257.95705992968
636.0827811667077 17109.853089777927
637.0791084845641 17061.93068297581
638.0751836873878 16938.13603188037
639.0710068527369 16879.331329896035
640.0665780581294 16625.586328909987
641.0618973810506 16385.634735708278
642.0569648989604 16346.371808276843
643.0517806892676 16134.076933894588
644.0463448293649 16019.745977128647
645.040657396592 15790.395452518578
646.0347184682723 15661.976276009013
647.0285281216875 15452.71251131927
648.0220864340772 15389.10001063669
649.0153934826558 15222.638924399198
650.0084493446047 15155.09238536669
651.0012540970674 14938.87891084758
651.9938078171526 14890.829526880847
652.9861105819346 14813.3586475096
653.9781624684565 14768.049633193641
654.9699635537254 14618.000446803268
655.9615139147136 14593.118642673053
656.9528136283589 14516.912463330682
657.9438627715699 14552.692145373516
658.9346614212154 14291.336389982574
659.925209654135 14240.989432093187
660.9155075471263 14255.3425418762
661.9055551769616 14127.004942618532
662.895352620375 14236.30094481
663.8848999540678 14269.522157809406
664.8741972547068 13912.87058364858
665.863244598926 14016.811666305864
666.8520420633213 14067.245685414735
667.8405897244611 13885.75454146782
668.8288876588758 13882.070742833437
669.8169359430613 13920.992321565936
670.8047346534822 13960.463271080827
671.7922838665672 13809.432441882102
672.7795836587156 13776.866043042533
673.766634106285 13934.668114206212
674.7534352856092 13739.629330131156
675.7399872729766 13722.945638307117
676.7262901446538 13707.409240756615
677.712343976862 13660.97373008536
678.6981488457986 13718.45830403635
679.6837048276229 13686.078721678345
680.6690119984596 13764.633455682086
681.6540704344043 13676.801537115436
682.6388802115107 13518.69867239001
683.6234414058108 13684.695766997986
684.6077540932874 13528.585727366095
685.591818349907 13538.813977954405
686.575634251587 13484.378411399917
687.5592018742263 13467.594813488502
688.5425212936734 13308.597780514154
689.5255925857564 13425.32669721989
690.5084158262707 13282.12675610804
691.4909910909646 13280.08239533359
692.4733184555644 13261.003286520752
693.4553979957618 13237.493845113053
694.4372297872123 13321.231503976096
695.4188139055404 13158.66483220575
696.4001504263324 13124.001445010876
697.3812394251509 13157.887628332965
698.3620809775111 13054.889751144336
699.3426751589104 13066.137483076041
700.3230220448004 13009.923364583747
701.3031217106054 13135.076376429653
702.2829742317172 13062.018931220122
703.2625796834873 12979.307638708084
704.2419381412474 12927.303673270926
705.22104968028 13012.256071273729
706.1999143758458 12954.281312044895
707.178532303169 12812.341158353209
708.1569035374378 12984.45317390939
709.1350281538107 13007.41585214487
710.1129062274158 12910.721978170466
711.0905378333373 13010.826742975607
712.0679230466376 13051.786636434666
713.0450619423427 13179.094752421364
714.0219545954424 13127.716670299953
714.9986010808989 13135.158176986693
715.9750014736292 13206.073087341763
716.9511558485392 13408.993452206338
717.9270642804786 13400.627433596464
718.9027268442787 13388.91472932224
719.8781436147328 13450.97798604625
720.8533146666014 13390.578017115948
721.828240074612 13361.110669834361
722.8029199134635 13392.048448822878
723.7773542578125 13236.914367588033
724.751543182294 13297.502680680973
725.7254867615029 13165.527757949545
726.6991850700015 13101.240575751393
727.6726381823228 13073.998357709454
728.6458461729599 13051.444859458605
729.6188091163858 12942.880617367644
730.5915270870246 12984.515006287229
731.5640001592856 12909.44857597343
732.536228407529 13055.227215275558
733.5082119060917 13021.251245535372
734.4799507292755 12934.192025022136
735.4514449513481 12977.514889125101
736.4226946465496 13114.401401190185
737.3936998890786 13040.015101215333
738.3644607531078 12965.596203029021
739.3349773127793 12923.946239164161
740.3052496421951 12943.112717555432
741.27527781543 12854.982432317422
742.2450619065221 12801.537692476402
743.2146019894826 12719.283909516595
744.183898138288 12806.979169936314
745.1529504268801 12615.217036953147
746.1217589291682 12521.88109992287
747.0903237190341 12400.12265450639
748.058644870318 12446.346570853597
749.0267224568397 12331.510993756985
749.994556552374 12350.348696995845
750.9621472306771 12351.083340390214
751.9294945654583 12318.257296783335
752.8965986304011 12408.28149921572
753.8634594991636 12287.707125196735
754.8300772453586 12413.238271483424
755.7964519425768 12371.816990667407
756.762583664371 12337.888492807619
757.7284724842611 12422.35010623129
758.6941184757416 12313.930484236147
759.6595217122667 12393.443195479867
760.6246822672638 12338.727496093241
761.5896002141235 12375.397454861602
762.5542756262093 12365.306567766824
763.5187085768503 12396.093643227692
764.4828991393406 12378.519377991524
765.4468473869474 12313.068475405595
766.4105533929032 12323.89906657959
767.3740172304078 12304.666251896748
768.3372389726283 12240.359377333154
769.3002186926988 12174.88193116278
770.2629564637282 12048.24662131032
771.2254523587872 12039.85099900138
772.1877064509154 12006.384634529955
773.1497188131179 11958.61671324486
774.1114895183728 11874.685491130433
775.0730186396268 11924.260507201016
776.0343062497905 11752.135246486649
776.9953524217381 11774.463807156377
777.9561572283274 11801.318091627234
778.9167207423689 11811.574903764085
779.8770430366476 11698.227907518714
780.8371241839159 11770.263435400077
781.7969642568951 11749.271489100032
782.7565633282757 11818.877666840834
783.7159214707099 11656.008467621348
784.6750387568281 11834.729322705025
785.6339152592227 11683.577994345384
786.5925510504512 11640.136935439921
787.5509462030477 11760.6121030298
788.5091007895098 11758.077099415412
789.4670148823006 11746.685551542989
790.4246885538596 11822.516586793037
791.3821218765861 11720.563501001667
792.3393149228505 11702.037851256882
793.2962677649975 11826.758186962292
794.2529804753303 11796.098178189523
795.20945312613 11719.34417028966
796.1656857896378 11774.0217957466
797.1216785380675 11732.301308699287
798.0774314435985 11965.916070335817
799.0329445783846 11930.790769654755
799.9882180145414 12041.204366884103
800.9432518241574 12014.793186764206
801.89804607929 12209.622442293161
802.852600851962 12229.87491962338
803.8069162141637 12397.247193444035
804.760992237856 12365.908301996435
805.714828994971 12537.782421265365
806.6684265574077 12519.405273463479
807.6217849970271 12403.041147086915
808.574904385674 12405.437960361947
809.527784795142 12555.830021240523
810.4804262972102 12424.525433447627
811.4328289636178 12350.473164456664
812.3849928660748 12202.073096090247
813.3369180762638 12177.961275820762
814.2886046658241 12049.11855768492
815.2400527063783 12076.577275134461
816.1912622695108 11909.17397248762
817.1422334267718 11830.356324952156
818.0929662496856 11806.583645128538
819.0434608097457 11621.47168426905
819.9937171784059 11502.912763791855
820.9437354271013 11500.322079977164
821.8935156272255 11459.275032967425
822.8430578501484 11340.491586752787
823.7923621672016 11232.823115411902
824.7414286496896 11308.053478024944
825.6902573688876 11250.3117122375
826.6388483960363 11253.998938977453
827.5872018023492 11153.758852495104
828.5353176590033 11185.798744194313
829.4831960371503 11081.122301216019
830.4308370079016 11119.63273815086
831.3782406423525 10996.6654032882
832.3254070115545 11050.807365089566
833.2723361865319 10914.18305865957
834.2190282382799 10961.454118811742
835.1654832377644 10990.197282755356
836.1117012559116 11038.725134002718
837.0576823636256 11083.850958511379
838.003426631778 10909.678543491777
838.9489341312074 10880.002133212936
839.8942049327197 10978.243269099758
840.8392391070975 10999.183044762482
841.7840367250865 10935.39063302771
842.7285978573982 10941.272807392548
843.672922574724 10931.333979847615
844.6170109477152 10963.628182318755
845.560863046996 10855.0368189482
846.5044789431595 10863.614638263834
847.4478587067697 10894.630833957843
848.3910024083561 10828.390248950785
849.333910118421 10948.633376244683
850.2765819074339 10752.653597162021
851.2190178458332 10894.667617736584
852.161218004032 10853.107987487956
853.1031824524016 10902.415838404504
854.0449112612987 10771.712962911286
854.9864045010327 10931.385183946377
855.9276622418947 10799.398051556786
856.8686845541379 10843.61626475106
857.8094715079915 10859.669138956142
858.7500231736467 10907.746309418304
859.690339621271 10846.864285308315
860.6304209209939 10846.443756034803
861.5702671429244 10791.953258794123
862.5098783571284 10967.161532299433
863.4492546336569 10879.386376855224
864.3883960425155 10847.158454850409
865.3273026536863 10873.483109285846
866.2659745371238 10948.504127788732
867.2044117627465 10978.258789515328
868.1426144004472 10934.123449239629
869.0805825200823 11005.6192806855
870.0183161914847 11128.85736589085
870.9558154844526 11018.196564074471
871.8930804687552 11129.684892227733
872.8301112141307 11146.896836150494
873.7669077902865 11254.421322283792
874.7034702669062 11373.139396648232
875.6397987136315 11239.561464599525
876.5758932000863 11305.904246998032
877.5117537958522 11389.315765746043
878.4473805704911 11464.866804943718
879.3827735935283 11397.00506828302
880.3179329344603 11503.772568565551
881.2528586627541 11461.18882092327
882.1875508478479 11579.991320909867
883.1220095591489 11413.43242287602
884.0562348660296 11464.681044897827
884.9902268378391 11519.872177301659
885.9239855438955 11442.28156871768
886.8575110534839 11359.303132031524
887.7908034358588 11341.731910093125
888.7238627602474 11339.795646915027
889.6566890958475 11288.142770690018
890.5892825118208 11083.409870282716
891.5216430773125 11025.56827784467
892.4537708614189 11064.682899549993
893.3856659332196 11020.043455779436
894.3173283617652 11009.147862054642
895.2487582160684 10799.46151284226
896.179955565116 10850.29210858413
897.110920477864 10714.783116257213
898.0416530232451 10687.819713210647
898.9721532701478 10685.340172803677
899.9024212874428 10735.637087961615
900.8324571439662 10575.621822514997
901.7622609085302 10672.612321418012
902.6918326499072 10463.908528326643
903.6211724368477 10596.990651786145
904.5502803380696 10580.47821390785
905.4791564222614 10627.31381218653
906.4078007580792 10562.11177863574
907.3362134141571 10585.457600399102
908.2643944590909 10456.782833448106
909.1923439614493 10446.57952314428
910.1200619897754 10450.273885814691
911.0475486125779 10534.212361301517
911.9748038983344 10447.247557597493
912.9018279155007 10340.450603711386
913.8286207324982 10374.36946930607
914.7551824177117 10435.820434513404
915.6815130395116 10365.040578427517
916.6076126662283 10318.225107064489
917.533481366163 10351.928503999003
918.4591192075914 10360.219611782766
919.3845262587565 10347.47009160158
920.3097025878706 10217.140309953491
921.2346482631237 10191.58338352277
922.1593633526682 10242.286752422098
923.0838479246304 10239.484129508179
924.0081020471061 10301.275230900392
924.9321257881656 10158.275479948394
925.8559192158464 10211.858662083947
926.7794823981512 10130.796824944055
927.7028154030686 10137.288940785387
928.6259182985414 10220.30744288414
929.5487911524906 10316.1124896098
930.4714340328119 10171.780091249895
931.3938470073608 10087.078837130586
932.3160301439748 10146.692121428108
933.2379835104548 10247.769906491983
934.1597071745709 10222.046292991512
935.0812012040769 10236.36193000929
936.002465666681 10184.708707367865
936.9235006300696 10229.146623644156
937.8443061619055 10232.302818350927
938.7648823298077 10110.102124947722
939.6852292013809 10099.102341499913
940.6053468441951 10187.576702686749
941.5252353257874 10127.725748074758
942.4448947136698 10131.307764158171
943.364325075323 10081.010093319837
944.2835264782043 10166.340384821699
945.2024989897309 10105.54748838029
946.1212426773054 10146.32068254396
947.0397576082851 10192.295045465782
947.9580438500125 10251.974038155944
948.8761014697939 10148.87673577192
949.7939305349064 10247.391084669516
950.7115311125999 10145.518906937603
951.6289032700952 10234.768259615026
952.5460470745875 10232.852049021034
953.4629625932339 10222.837080389958
954.3796498931715 10223.465226556287
955.2961090415029 10260.425668193011
956.2123401053068 10165.938407981299
957.1283431516276 10127.417763726531
958.0441182474842 10081.857128476406
958.9596654598663 10330.448378073974
959.8749848557309 10190.495754971276
960.7900765020167 10197.353070403424
961.7049404656209 10116.893934981737
962.6195768134185 10260.054766980113
963.5339856122537 10197.638376951407
964.4481669289453 10234.019212870504
965.3621208302793 10095.8564172145
966.2758473830145 10178.574914546867
967.1893466538822 10234.439653940783
968.1026187095813 10243.163896833232
969.0156636167867 10132.641781894969
969.9284814421426 10304.420921436296
970.8410722522622 10143.19269094216
971.753436113735 10262.26375326619
972.6655730931161 10118.180328203545
973.5774832569368 10285.6147430973
974.4891666716958 10180.584349295366
975.4006234038698 10265.313847149371
976.3118535198955 10231.689864464519
977.2228570861935 10246.066865349163
978.1336341691494 10165.588885072746
979.0441848351202 10191.618526951139
979.9545091504333 10301.192554340274
980.864607181391 10339.744327668956
981.7744789942699 10332.720675915712
982.6841246553086 10316.265051358034
983.5935442307236 10327.976148581247
984.5027377867027 10354.183376088095
985.4117053894024 10368.137229419135
986.3204471049557 10299.295587134182
987.2289629994648 10321.843689510335
988.1372531390007 10392.640373919141
989.0453175896091 10359.116586581618
989.9531564173067 10442.93027320247
990.860769688079 10297.00557880518
991.7681574678918 10408.810719827774
992.6753198226706 10426.349319741343
993.582256818323 10362.430653066787
994.4889685207218 10404.43628894899
995.3954549957143 10562.22039823274
996.301716309119 10528.28159186184
997.2077525267232 10513.457659697939
998.1135637142943 10463.531237992214
999.0191499375615 10633.810413141731
999.924511262232 10470.839388481907
1000.8296477539861 10496.57616291198
1001.7345594784656 10400.382472928604
1002.6392465012996 10507.913355757331
1003.5437088880753 10470.95426220565
1004.4479467043584 10452.601501868958
1005.3519600156869 10388.128288686336
1006.2557488875718 10416.080367988534
1007.1593133854858 10374.153113196773
1008.0626535748888 10401.792559375095
1008.9657695212009 10216.996294710993
1009.8686612898182 10424.306909233186
1010.7713289461135 10318.653999386643
1011.6737725554212 10292.790167746221
1012.5759921830577 10317.881745420858
1013.4779878943027 10317.714998938016
1014.379759754418 10243.317195844573
1015.2813078286254 10194.690289131666
1016.18263218213 10138.66501347587
1017.0837328801026 10138.177335475531
1017.9846099876886 10212.500229474059
1018.8852635700023 10021.524464136812
1019.7856936921362 10000.501994940063
1020.6859004191447 10041.989969409142
1021.5858838160675 9977.441487895565
1022.4856439479063 10076.388487030796
1023.3851808796389 10062.722092736214
1024.2844946762143 10004.745500716665
1025.183585402554 9945.205158124645
1026.082453123554 9952.725416141006
1026.9810979040776 9908.77769697968
1027.8795198089647 9870.120696227623
1028.777718903024 9880.767529518353
1029.6756952510368 9927.910277150475
1030.5734489177648 9818.66929854678
1031.4709799679313 9878.016477024372
1032.3682884662358 9984.592532686394
1033.2653744773506 9792.011181937984
1034.1622380659192 9792.977759510726
1035.058879296559 9908.291099731756
1035.9552982338591 9912.065590489883
1036.8514949423825 9950.415459731901
1037.7474694866614 9880.457273285667
1038.6432219312028 9956.125594802983
1039.5387523404825 10032.163253758694
1040.4340607789582 10074.5858348706
1041.3291473110476 10057.976554377627
1042.2240120011465 10173.314168531107
1043.1186549136273 10307.014519906112
1044.0130761128294 10355.469021549976
1044.9072756630649 10346.00055448445
1045.8012536286205 10530.17594635828
1046.6950100737577 10502.219803588956
1047.588545062701 10664.345100001854
1048.481858659663 10675.952206382277
1049.3749509288118 10810.005684498765
1050.2678219343034 10660.677683158403
1051.1604717402515 10674.509282147645
1052.0529004107575 10742.238513508186
1052.9451080098825 10823.299349813566
1053.8370946016694 10713.403778244323
1054.7288602501267 10837.18618525685
1055.6204050192446 10640.048992901502
1056.511728972977 10703.255172799918
1057.402832175254 10506.801678189619
1058.2937146899785 10582.882172371075
1059.1843765810263 10464.101580084214
1060.0748179122456 10566.66282525713
1060.9650387474576 10384.385053371117
1061.855039150456 10411.151245173689
1062.7448191850071 10328.008730275771
1063.6343789148505 10379.247726107978
1064.5237184037014 10356.370368733607
1065.412837715241 10376.039140527175
1066.3017369131267 10130.212210070273
1067.190416060992 10169.09958094823
1068.0788752224398 10061.695938579263
1068.9671144610438 10025.503269112369
1069.8551338403558 10037.590086601858
1070.7429334239023 10078.483562282263
1071.6305132751695 9886.25408491795
1072.517873457633 9954.771600683931
1073.4050140347335 9945.477165094588
1074.2919350698776 9937.877866423583
1075.1786366264623 9898.459923441567
1076.0651187678395 9839.909877873837
1076.95138155735 9722.453849153299
1077.8374250582929 9805.453889539374
1078.7232493339507 9652.905763872697
1079.608854447577 9641.476318382181
1080.4942404623907 9682.589247495664
1081.3794074415982 9733.134645729691
1082.2643554483657 9712.677849562813
1083.149084545841 9674.927925112937
1084.033594797138 9524.761120048977
1084.9178862653516 9659.604500644802
1085.8019590135427 9656.05335201116
1086.6858131047484 9565.836907909492
1087.5694486019802 9544.732188289325
1088.4528655682225 9610.901822192774
1089.3360640664287 9601.976582458057
1090.2190441595321 9651.01830681486
1091.1018059104317 9639.429360315295
1091.98434938201 9719.796233427292
1092.866674637111 9694.396579039956
1093.748781738559 9658.035483359346
1094.6306707491512 9455.961057636956
1095.5123417316554 9607.45489268213
1096.3937947488157 9509.030095644917
1097.2750298633455 9649.388905983405
1098.156047137938 9561.703593565904
1099.0368466352556 9545.398650238627
1099.9174284179317 9577.59567439605
1100.7977925485757 9503.144029380343
1101.6779390897755 9516.524039820748
1102.5578681040806 9583.282806101186
1103.4375796540226 9509.940290838593
1104.3170738021054 9487.310893688347
1105.1963506108077 9440.134299207653
1106.0754101425773 9419.49617701484
1106.9542524598382 9516.71941041337
1107.8328776249855 9568.437010414544
1108.7112857003904 9556.499688342288
1109.5894767483987 9677.792995538766
1110.4674508313292 9529.022757563263
1111.3452080114657 9639.09014405775
1112.2227483510815 9636.089753190212
1113.1000719124077 9773.27610029406
1113.9771787576592 9745.995712635859
1114.854068949022 9834.522195398316
1115.7307425486542 9802.881685018814
1116.6071996186893 9899.329246874338
1117.483440221229 10137.659336164328
1118.3594644183577 10129.625497016297
1119.235272272128 10108.555459195393
1120.1108638445658 10224.29295725276
1120.9862391976712 10407.66460200438
1121.8613983934229 10485.352297125337
1122.7363414937627 10543.968053748064
1123.6110685606182 10627.95945120761
1124.485579655884 10627.40060358712
1125.359874841426 10728.616288301555
1126.2339541790916 10767.072341692303
1127.1078177306936 10954.379091812049
1127.9814655580267 10783.219607213634
1128.854897722851 10982.957539465799
1129.7281142869106 10889.655212937341
1130.6011153119125 11021.650661349482
1131.473900859548 11038.58306391099
1132.3464709914697 10861.201436506024
1133.2188257693178 10833.20245484597
1134.0909652546961 10839.522391919152
1134.96288950919 10718.662878180558
1135.8345985943506 10859.138487951972
1136.7060925717087 10540.862400469536
1137.57737150277 10627.48809449246
1138.4484354490069 10484.347941191985
1139.3192844718778 10387.053402198799
1140.1899186327992 10059.621150759009
1141.060337993178 10346.15853269766
1141.930542614382 10235.089518766345
1142.8005325577597 10023.500072573572
1143.670307884635 9866.515452544263
1144.5398686563003 9922.204151683316
1145.409214934025 9812.32164334804
1146.2783467790541 9687.436211575285
1147.1472642526023 9670.556710006416
1148.0159674158622 9663.706957481898
1148.8844563300026 9415.147478473964
1149.7527310561618 9477.545883903706
1150.6207916554504 9402.772804455559
1151.4886381889592 9350.111764059278
1152.3562707177498 9311.996416464506
1153.2236893028585 9416.583112438931
1154.090894005296 9280.628309819534
1154.9578848860474 9399.308202732465
1155.8246620060709 9248.968901916654
1156.6912254262988 9237.345773455045
1157.5575752076438 9189.561854029886
1158.42371141098 9272.078413175495
1159.2896340971656 9215.727462289744
1160.1553433270346 9192.950353583292
1161.0208391613887 9203.422869875028
1161.8861216610057 9228.98962107102
1162.75119088664 9202.235319372145
1163.6160468990201 9148.234364411011
1164.4806897588442 9137.819429316116
1165.3451195267917 9161.995297643258
1166.2093362635114 9144.862838490597
1167.0733400296285 9168.041823517342
1167.9371308857444 9088.90974796725
1168.8007088924278 9143.3918417333
1169.6640741102328 9076.220292108348
1170.5272265996773 9091.553960401725
1171.390166421259 9066.882889867176
1172.252893635452 9209.275867129803
1173.1154083026995 9260.06667929991
1173.977710483421 9239.151277300403
1174.8398002380145 9095.988197539866
1175.7016776268483 9237.848646469132
1176.563342710264 9134.944888747366
1177.4247955485826 9122.314048386528
1178.2860362020947 9189.110670592308
1179.147064731069 9193.270241992275
1180.0078811957483 9270.532021698378
1180.8684856563486 9229.111800463017
1181.7288781730604 9230.380613121899
1182.589058806052 9464.713139937927
1183.4490276154593 9448.450641649986
1184.3087846614017 9314.732042641666
1185.1683300039676 9469.397353693512
1186.027663703222 9538.163961282287
1186.8867858192025 9454.512930667282
1187.7456964119228 9562.846710999936
1188.6043955413716 9599.376273561804
1189.4628832675116 9810.912197226697
1190.3211596502842 9760.734720330953
1191.179224749596 9816.30005040002
1192.0370786253388 9674.954184011358
1192.8947213373758 9928.476612901217
1193.7521529455407 9855.283339751923
1194.6093735096438 9903.506122988087
1195.466383089477 9897.555790194605
1196.3231817447977 9950.284460893898
1197.1797695353398 10070.12174338629
1198.0361465208189 9987.11458871305
1198.8923127609214 9930.94177549134
1199.7482683153048 10116.068325492099
1200.6040132436028 10268.334341334321
1201.459547605431 10092.467523347736
1202.3148714603722 10000.96693803658
1203.1699848679855 10083.214695338962
1204.0248878878065 10145.657166791803
1204.8795805793507 10003.775967645479
1205.7340630020935 10026.25821760204
1206.5883352155033 10102.481551205323
1207.4423972790064 9931.724359767937
1208.2962492520237 9917.309621672855
1209.1498911939307 9854.691212603773
1210.0033231640937 9864.487082456091
1210.8565452218427 9886.438041426278
1211.7095574264913 9760.472740004734
1212.5623598373222 9739.87347037802
1213.4149525135963 9680.181295848795
1214.2673355145507 9592.412986401052
1215.1195088993936 9559.367177252127
1215.9714727273113 9528.710558406885
1216.8232270574663 9659.912232169601
1217.6747719489904 9504.84902942603
1218.5261074609934 9495.564209437787
1219.3772336525653 9336.185391611009
1220.2281505827668 9433.651973436785
1221.0788583106296 9361.535049042712
1221.9293568951707 9288.190728657068
1222.7796463953746 9253.296369572654
1223.629726870202 9301.65663884651
1224.4795983785934 9098.842356025485
1225.3292609794553 9232.106923200658
1226.1787147316809 9108.173482156199
1227.0279596941327 9068.244959679
1227.8769959256424 9157.049741111667
1228.7258234850306 9127.455257838692
1229.5744424310833 8943.306596576078
1230.422852822563 9114.167929986848
1231.2710547182105 9024.466261268815
1232.119048176739 9070.24525998746
1232.9668332568417 8991.53934779391
1233.8144100171812 8986.013718987853
1234.6617785163999 9085.864272209528
1235.508938813111 8886.923220164039
1236.3558909659114 8930.461435467649
1237.2026350333617 9107.04710413702
1238.049171074008 9129.587172055031
1238.8954991463652 8936.239841463193
1239.741619308932 8990.652474432696
1240.587531620169 7724.621932730096
1241.4332361385277 8989.428912593601
1242.2787329224248 8923.141055369102
1243.1240220302534 8905.234292423247
1243.9691035203869 8882.422745745438
1244.813977451171 8995.450582050007
1245.6586438809263 8830.999907103775
1246.5031028679496 8768.966744108935
1247.3473544705157 8888.579422677545
1248.1913987468706 8917.946851552178
1249.0352357552383 8778.810089740535
1249.8788655538228 8893.633492588568
1250.7222882007918 8934.28771376595
1251.565503754302 8917.896053334078
1252.4085122724755 8833.943492636025
1253.2513138134182 8839.022238540909
1254.0939084352049 8879.057356448753
1254.9362961958905 8819.636269526907
1255.7784771535007 8726.202998645156
1256.6204513660432 8847.868925127103
1257.4622188915 8875.066189983409
1258.3037797878242 8815.748620292678
1259.1451341129468 8791.011495652956
1259.9862819247755 8775.1002925535
1260.8272232811978 8854.981797094064
1261.6679582400666 8775.567815918483
1262.5084868592203 8822.059393079584
1263.34880919647 8796.96292982122
1264.1889253095997 8875.36926987791
1265.0288352563712 8682.45914070276
1265.8685390945266 8781.744502439355
1266.7080368817751 8704.461703811408
1267.5473286758115 8790.165744954435
1268.386414534294 8787.152889857862
1269.2252945148703 8673.282246062483
1270.0639686751547 8679.78489588655
1270.9024370727402 8767.953505576123
1271.7406997651997 8699.902379112027
1272.5787568100714 8644.87364341562
1273.4166082648808 8626.768928160765
1274.2542541871244 8721.084554962577
1275.091694634275 8675.079338595428
1275.9289296637817 8515.576304864999
1276.7659593330663 8689.777018986064
1277.6027836995308 8598.390292069378
1278.4394028205552 8607.00870995253
1279.2758167534867 8673.91840105567
1280.112025555658 8550.199340323128
1280.9480292843746 8683.81519269075
1281.7838279969128 8553.83952463763
1282.6194217505326 8641.906074791441
1283.4548106024686 8477.086078528284
1284.289994609926 8630.560697262936
1285.1249738300921 8678.625817916056
1285.959748320127 8558.556065221672
1286.7943181371702 8570.291375115834
1287.6286833383328 8644.758780064254
1288.4628439807038 8586.299651832636
1289.2968001213521 8649.215280944289
1290.1305518173194 8670.483699741884
1290.9640991256183 8716.69845381378
1291.7974421032523 8662.629741865549
1292.630580807183 8612.75334503876
1293.463515294361 8686.23824490604
1294.29624562171 8783.443679841042
1295.12877184613 8760.96898652649
1295.961094024493 8719.672513158694
1296.79321221365 8694.09055216491
1297.6251264704333 8827.707627654361
1298.4568368516466 8804.141188855596
1299.2883434140658 8860.339881405731
1300.1196462144526 8745.575410658517
1300.9507453095375 8945.375942300565
1301.7816407560313 8853.963809261364
1302.6123326106172 8895.711188158677
1303.4428209299622 8807.138990403346
1304.2731057707024 9128.471385952153
1305.1031871894502 8964.57083611693
1305.933065242798 8923.072534536466
1306.7627399873181 8913.83212679427
1307.5922114795467 9192.496558122093
1308.4214797760123 8973.391619076063
1309.2505449332057 8988.1360479308
1310.0794070076026 9007.192767002149
1310.9080660556538 9159.016073748344
1311.736522133786 9127.501062753949
1312.5647752983987 9107.761647006433
1313.3928256058734 8912.269161317246
1314.2206731125661 9134.663909073344
1315.048317874809 9148.282765926688
1315.8757599489109 9214.377584548727
1316.7029993911547 9153.472385864716
1317.5300362578055 9346.973894171235
1318.356870605101 9051.350040574993
1319.183502489257 9108.311714634196
1320.0099319664623 9180.211721445246
1320.836159092889 9275.78452015673
1321.66218392468 9273.971471634894
1322.4880065179532 9045.716310394278
1323.3136269288134 9109.231469899538
1324.1390452133292 9185.77712661623
1324.9642614275563 9256.989766778526
1325.7892756275214 9206.647807213567
1326.6140878692295 9062.320762606452
1327.4386982086617 9292.373905546647
1328.2631067017755 9105.394896412445
1329.0873134045069 9191.016017599723
1329.911318372764 9084.529675522957
1330.735121662441 9155.483476573767
1331.558723329399 9038.202977857574
1332.3821234294774 9136.118629143679
1333.2053220185007 9060.66594602688
1334.0283191522612 9027.597898583172
1334.851114886529 8946.27048357832
1335.6737092770582 8935.323302943718
1336.4961023795695 8927.11607831245
1337.3182942497697 8939.730288993855
1338.1402849433325 8956.725269175138
1338.962074515921 8847.32384076129
1339.7836630231632 8650.351687025719
1340.6050505206676 8847.278581774755
1341.426237064028 8835.028382458946
1342.2472227088037 8834.671975316833
1343.0680075105338 8639.942318495627
1343.888591524741 8817.90765453917
1344.7089748069138 8706.176212739581
1345.5291574125276 8639.85332714603
1346.3491393970307 8514.807968652818
1347.168920815846 8694.169389614375
1347.9885017243778 8570.42775297756
1348.8078821780036 8658.977934020793
1349.6270622320844 8430.250336029208
1350.4460419419447 8551.385669039562
1351.2648213629054 8403.316986975618
1352.0834005502438 8488.53699433504
1352.90177955923 8451.378716282994
1353.7199584451064 8534.88394164865
1354.5379372630887 8516.319322857318
1355.355716068374 8459.293433618544
1356.1732949161305 8396.70805277686
1356.9906738615155 8510.787711642624
1357.8078529596478 8390.005597136897
1358.6248322656375 8548.407243047737
1359.441611834567 8380.163207609334
1360.2581917214866 8615.497700171873
1361.0745719814367 8362.517128103218
1361.890752669433 8455.611064420427
1362.7067338404577 8380.032326049904
1363.5225155494845 8473.511666636652
1364.3380978514506 8492.950520066945
1365.1534808012839 8414.8801509998
1365.9686644538815 8162.342195085295
1366.783648864117 8480.613187964176
1367.5984340868417 8358.175063791936
1368.413020176893 8345.61528570951
1369.2274071890715 8146.92838780028
1370.0415951781652 8439.538533811568
1370.8555841989346 8221.861729640534
1371.6693743061223 8143.458835666492
1372.48296555444 8067.873576647129
1373.2963579985844 8416.978003559716
1374.1095516932255 8172.838639479201
1374.9225466930166 8220.558994760777
1375.7353430525782 8115.846558648492
1376.5479408265164 8205.372700512908
1377.36034006941 8096.420588840547
1378.1725408358216 8306.94555040998
1378.9845431802805 8110.333758078703
1379.796347157304 8245.718371093419
1380.6079528213813 8129.661659893664
1381.4193602269788 8094.328374634979
1382.230569428546 8077.151226502618
1383.0415804805016 8147.360827396233
1383.852393437246 8092.594844296586
1384.6630083531563 8148.911933338833
1385.4734252825892 8083.283100568777
1386.2836442798798 8204.012264932631
1387.0936653993322 8121.978430514423
1387.9034886952395 8075.755906022961
1388.713114221864 8042.217946230381
1389.5225420334482 8028.434515737163
1390.331772184214 8060.829603421329
1391.1408047283585 8006.8721201602575
1391.9496397200564 8003.966670229971
1392.758277213461 8073.25607809097
1393.5667172627054 7980.512615673519
1394.3749599218918 8020.935894536933
1395.1830052451114 7925.094177113203
1395.9908532864265 7931.757801831023
1396.7985040998774 8006.46578757642
1397.6059577394808 7957.369269230063
1398.4132142592352 7918.031584248815
1399.2202737131156 7937.836448766217
1400.027136155073 7941.7640954356075
1400.8338016390353 7901.80086131098
1401.6402702189134 7830.5216867264535
1402.446541948586 7965.018444831092
1403.2526168819204 7762.376527175283
1404.058495072757 7812.264864091972
1404.8641765749107 7808.936224490748
1405.6696614421799 7891.9021870852985
1406.4749497283356 8024.085241273126
1407.280041487129 7700.887398860845
1408.084936772295 7564.647299056863
1408.8896356375335 7841.122096076697
1409.6941381365323 7838.987545503529
1410.498444322955 7614.009377548646
1411.3025542504402 7774.557852828769
1412.106467972606 7741.945847662956
1412.9101855430508 7550.773005536602
1413.7137070153458 7538.543973912075
1414.5170324430437 7540.611354172355
1415.320161879672 7725.424420477354
1416.1230953787435 7754.909275147758
1416.925832993742 7460.8056779346825
1417.7283747781275 7405.536286840104
1418.5307207853439 7540.10030746761
1419.3328710688093 7487.820055880368
1420.134825681922 7369.679908845862
1420.9365846780584 7353.594652936088
1421.7381481105713 7448.265018172921
1422.539516032788 7444.744070525643
1423.3406884980232 7472.712806238332
1424.1416655595604 7356.306423239851
1424.942447270665 7399.625586685093
1425.7430336845828 7436.300557299748
1426.5434248545298 7371.2915301540315
1427.3436208337116 7349.576216834632
1428.143621675301 7340.5504473798965
1428.9434274324558 7431.69317833769
1429.7430381583108 7309.38986021348
1430.5424539059713 7266.026711596167
1431.3416747285337 7565.985839207344
1432.1407006790632 7353.639962307681
1432.9395318106053 7213.477629141007
1433.7381681761835 7257.841391688559
1434.5366098288014 7383.369614173677
1435.3348568214424 7207.26696014655
1436.1329092070573 7316.689442748832
1436.9307670385879 7323.1617696614485
1437.7284303689503 7421.935393069909
1438.5258992510335 7433.083231431019
1439.3231737377118 7314.504229461234
1440.1202538818306 7332.328390425258
1440.9171397362225 7327.74694661597
1441.7138313536925 7292.075018851248
1442.5103287870243 7254.7646680235075
1443.3066320889775 7201.96948827962
1444.1027413122956 7376.358089543433
1444.8986565096966 7223.127178745453
1445.694377733882 7235.88985565568
1446.4899050375207 7074.0562792257015
1447.2852384732687 7105.451824609205
1448.0803780937622 7119.87984656871
1448.8753239516063 7048.3589845075185
1449.6700760993954 7006.343043795078
1450.464634589689 7235.188297424895
1451.2589994750397 7098.9564950706745
1452.0531708079689 7084.047277337198
1452.8471486409799 6874.579861624217
1453.6409330265524 7100.07399456555
1454.4345240171442 6849.134310689353
1455.2279216651987 6911.775004971352
1456.0211260231263 6892.95647133581
1456.8141371433194 7212.924254361749
1457.6069550781594 7013.0951100976845
1458.3995798799897 6735.360855638928
1459.1920116011424 6840.859058802715
1459.98425029393 6883.207049832435
1460.7762960106338 6773.261592418074
1461.5681488035225 6760.753330952834
1462.3598087248392 6738.751561682843
1463.1512758268036 6842.397359518742
1463.942550161617 6798.629404215074
1464.7336317814625 6765.843647695527
1465.524520738496 6765.114112638652
1466.3152170848552 6744.5377315999085
1467.1057208726506 6715.138097237624
1467.8960321539817 6613.076476021987
1468.6861509809169 6646.984594984737
1469.4760774055085 6526.640381580442
1470.265811479785 6637.185469991993
1471.055353255755 6593.988090062606
1471.844702785409 6595.131496070285
1472.6338601207044 6694.224066558609
1473.4228253135934 6603.477625583553
1474.2115984159936 6678.584478082764
1475.0001794798063 6420.5458245055
1475.7885685569145 6552.964478991021
1476.576765699172 6495.86880750472
1477.3647709584238 6530.657660039548
1478.1525843864802 6549.497841728387
1478.9402060351367 6583.4314096238395
1479.7276359561693 6500.818228492049
1480.514874201328 6606.623872774884
1481.3019208223468 6500.797193868258
1482.0887758709323 6479.775359976898
1482.8754393987747 6584.563915228837
1483.6619114575406 6447.639685465275
1484.4481920988783 6478.770931698093
1485.2342813744108 6510.1318218879505
1486.0201793357446 6602.1499503596815
1486.8058860344572 6454.415705742386
1487.591401522117 6363.614254361156
1488.3767258502594 6471.655453730835
1489.1618590704056 6673.156073039204
1489.9468012340494 6436.372346577028
1490.7315523926754 6453.752652790522
1491.5161125977356 6545.458067653567
1492.3004819006637 6485.895917875875
1493.084660352877 6548.860031895967
1493.8686480057622 6446.646588699187
1494.6524449106964 6473.084912771761
1495.4360511190262 6760.343846734511
1496.219466682087 6647.1933286486355
1497.0026916511779 6494.454819156842
1497.7857260775945 6563.365884726185
1498.5685700125996 6509.694639201893
1499.3512235074395 6540.390214148786
1500.133686613337 6517.861767981177
1500.9159593814966 6546.972909706553
1501.698041863101 6675.261914538618
1502.4799341093094 6541.1828396730525
1503.2616361712662 6417.454877117548
1504.043148100087 6456.832918291966
1504.8244699468742 6519.515733794762
1505.6056017626997 6492.409794079292
1506.3865435986281 6473.451114276136
1507.1672955056893 6647.192624487662
1507.9478575348967 6509.214626779573
1508.7282297372512 6620.629552474058
1509.5084121637192 6465.173568820634
1510.2884048652577 6730.044114446317
1511.0682078927948 6458.184208586761
1511.8478212972423 6492.202560369898
1512.6272451294917 6396.800479713807
1513.4064794404076 6500.460919809083
1514.1855242808433 6502.791893605198
1514.9643797016215 6578.339093394978
1515.743045753552 6534.038454618405
1516.5215224874191 6461.2382959825845
1517.2998099539836 6516.510923431861
1518.077908203999 6487.038409419675
1518.8558172881785 6517.751703832534
1519.633537257234 6605.680032321458
1520.4110681618404 6547.031756291065
1521.1884100526604 6502.615508885828
1521.9655629803365 6569.498634998209
1522.7425269954856 6635.2673452163535
1523.5193021487103 6662.489560364576
1524.2958884905856 6572.000839393045
1525.0722860716687 6625.93240567035
1525.848494942502 6423.36324995664
1526.624515153595 6612.11698395213
1527.4003467554485 6686.171937439853
1528.175989798534 6540.168072802341
1528.9514443333064 6696.620314135971
1529.726710410203 6797.789435576282
1530.5017880796331 6517.055229758915
1531.276677391992 6564.416383229027
1532.0513783976457 6715.966740002621
1532.825891146953 6553.3468294260465
1533.6002156902414 6695.500124886686
1534.3743520778207 6553.486545378468
1535.1483003599806 6672.27127968969
1535.9220605869923 6641.644915221032
1536.6956328091019 6737.565964820709
1537.4690170765407 6705.152324815483
1538.242213439511 6798.953688297974
1539.015221948208 6713.883775500326
1539.78804265279 6702.123968033824
1540.560675603405 6639.369800293581
1541.3331208501804 6748.586076438878
1542.1053784432224 6824.606101596808
1542.8774484326168 6853.64670331277
1543.649330868422 6744.068042275348
1544.4210258006842 6815.1498697250545
1545.1925332794308 6856.535713979448
1545.9638533546604 6862.14074795042
1546.7349860763552 6831.997357776287
1547.5059314944829 6959.994473435817
1548.27668965898 6882.577627826613
1549.0472606197673 6929.33242643196
1549.817644426752 6805.543674976623
1550.5878411298072 6907.543031745574
1551.3578507787988 6875.664073938414
1552.1276734235635 6961.949993675543
1552.8973091139233 6911.700015476158
1553.6667578996767 6976.736748302926
1554.436019830604 6872.131275588489
1555.20509495646 6911.8123016454865
1555.9739833269869 6882.354275246655
1556.7426849919011 6982.102148995109
1557.511200000903 7075.1394172440505
1558.2795284036674 7082.959222813408
1559.0476702498509 7021.410125816835
1559.8156255890954 7127.207509095695
1560.5833944710157 7271.461924835533
1561.3509769452048 7052.467110720891
1562.1183730612447 7160.474187898604
1562.8855828686865 7181.5063908259735
1563.6526064170703 7341.964080099306
1564.4194437559127 7188.276746173391
1565.1860949347047 7140.429100716623
1565.9525600029283 7296.286423688808
1566.7188390100328 7306.484540374922
1567.4849320054564 7143.515116646992
1568.250839038612 7134.850435002132
1569.0165601588997 7196.258837135584
1569.7820954156887 7158.465667967978
1570.5474448583373 7005.879823164636
1571.31260853618 7002.5892396219015
1572.0775864985299 6989.5739462067895
1572.8423787946813 7124.053244808514
1573.6069854739108 7142.475165733866
1574.371406585471 7082.16950822167
1575.1356421785986 7066.979322033866
1575.899692302506 6941.4088670849915
1576.6635570063845 7084.746525989416
1577.4272363394157 6913.6552180666495
1578.190730350747 7023.340269358656
1578.9540390895163 6768.464146947168
1579.7171626048384 6812.437317597027
1580.480100945806 6771.9833771743
1581.2428541614918 6960.730171350753
1582.0054223009538 6930.373325675404
1582.767805413223 6848.132263721274
1583.5300035473156 6883.918826531377
1584.292016752228 7015.943423939488
1585.0538450769309 6881.4767894552115
1585.8154885703807 6744.75275333973
1586.5769472815136 6675.337113376603
1587.3382212592405 6898.278511190566
1588.099310552463 6883.577271201849
1588.8602152100484 6773.821568453155
1589.6209352808564 6816.977023463846
1590.3814708137234 6614.487822488942
1591.14182185746 6656.3233462314065
1591.9019884608679 6718.5659830815275
1592.6619706727215 6604.376584515126
1593.4217685417734 6913.602618591098
1594.1813821167616 6850.67038390176
1594.9408114464022 6736.7978013803495
1595.7000565793933 6609.563872783023
1596.459117564409 6769.4804077227745
1597.2179944501113 6637.56640978209
1597.9766872851324 6533.468220724206
1598.735196118092 6645.237306918953
1599.4935209975883 6648.922231204527
1600.2516619721973 6638.4092457598745
1601.0096190904787 6651.395935974261
1601.7673924009723 6610.109809884006
1602.524981952196 6643.142469671395
1603.2823877926476 6572.26246157475
1604.0396099708087 6470.96751369467
1604.7966485351371 6545.004516736221
1605.5535035340745 6541.499217942837
1606.3101750160404 6700.467794749084
1607.0666630294363 6491.060220882168
1607.822967622642 6480.230060447762
1608.5790888440224 6623.534109470531
1609.3350267419137 6671.76972954988
1610.0907813646445 6530.390247609905
1610.8463527605145 6287.453342241471
1611.601740977805 6535.322120337295
1612.356946064785 6349.282565824295
1613.1119680696902 6370.724513437014
1613.8668070407512 6462.587373848704
1614.6214630261748 6354.22541750307
1615.375936074137 6388.618412054968
1616.1302262328118 6330.399633669396
1616.8843335503425 6492.006682502935
1617.638258074854 6318.620974358549
1618.391999854457 6394.6869571949155
1619.1455589372363 6401.034742355566
1619.8989353712623 6411.736022319439
1620.65212920458 6288.6960687162955
1621.4051404852235 6220.815711900936
1622.1579692611976 6261.386403067236
1622.9106155804966 6139.950874425523
1623.663079491087 6233.923350305034
1624.4153610409248 6201.639873529686
1625.1674602779385 6189.942188867954
1625.9193772500403 6077.898173071199
1626.6711120051277 6354.763887524548
1627.4226645910676 6147.190437587789
1628.174035055721 6025.279870447306
1628.9252234469168 6061.938225541099
1629.676229812474 6233.286879848734
1630.4270542001905 6235.126645974327
1631.1776966578382 6093.930847207117
1631.9281572331747 6064.369226133998
1632.678435973945 6288.765622393517
1633.4285329278573 6145.690862156469
1634.1784481426203 5862.9862815896195
1634.9281816659113 6108.609115109464
1635.677733545388 6128.159312853134
1636.4271038286934 6079.492642065887
1637.176292563452 6175.659031874907
1637.9252997972635 6238.096356422837
1638.674125577716 6075.275470424107
1639.4227699523672 6285.761629515293
1640.171232968767 5934.263678701176
1640.9195146744423 6050.7895681625805
1641.6676151168977 6277.347110886005
1642.4155343436178 6325.264358613037
1643.1632724020765 6142.897955449145
1643.9108293397167 6163.3804254187435
1644.658205203974 6068.127787662192
1645.4054000422566 6334.732473545579
1646.1524139019566 6024.483805718654
1646.8992468304423 6131.749394749226
1647.6458988750728 6080.241975034875
1648.3923700831765 6162.780725660541
1649.1386605020743 6169.059881363988
1649.8847701790564 6243.5722114304335
1650.6306991614038 6266.881266425502
1651.3764474963682 6121.914917661445
1652.1220152311944 6090.130916343305
1652.867402413096 6241.015185473227
1653.6126090892776 6300.142913562793
1654.3576353069184 6189.378465207167
1655.1024811131829 6192.580720811311
1655.8471465552066 6063.7801023006605
1656.5916316801213 6206.721706206009
1657.3359365350298 6191.341839853342
1658.0800611670165 6103.757227548291
1658.824005623148 5987.020422875135
1659.5677699504722 5969.7015939809025
1660.3113541960192 6087.825821644014
1661.054758406799 5985.163821016852
1661.7979826297997 5839.209323560068
1662.5410269119966 5888.32718890626
1663.283891300338 5909.784974714088
1664.0265758417645 5884.413300064807
1664.7690805831826 6021.803701611407
1665.5114055714948 5823.95024424148
1666.2535508535748 6011.759240867332
1666.9955164762814 5706.357418789625
1667.7373024864555 5799.885121700761
1668.478908930916 5944.188577146912
1669.220335856462 5812.728481331404
1669.9615833098778 5611.15730717343
1670.7026513379296 5638.164374309139
1671.44353998736 5680.902109733184
1672.1842493048916 5577.959532315459
1672.9247793372379 5619.185627559918
1673.6651301310812 5557.580733514323
1674.4053017330934 5509.929418962652
1675.1452941899242 5554.02948909356
1675.885107548207 5394.556210854282
1676.6247418545518 5359.328105257171
1677.3641971555535 5320.266478154751
1678.1034734977893 5430.719916359993
1678.8425709278108 5411.001951040493
1679.5814894921605 5255.0365977342535
1680.320229237359 5391.174836931497
1681.0587902098978 5299.830385470703
1681.7971724562685 5260.758455502194
1682.5353760229264 5089.662243971006
1683.2734009563173 5236.991240522566
1684.0112473028657 5012.264306653254
1684.7489151089794 5203.870596198981
1685.4864044210462 5244.8963562169965
1686.2237152854377 5031.053509555504
1686.960847748498 5034.90677764284
1687.6978018565642 4986.909312219168
1688.434577655944 4915.884122734719
1689.1711751929379 4788.336304810044
1689.9075945138156 5006.919433153183
1690.6438356648396 4810.976914708821
1691.3798986922448 4722.191530687918
1692.1157836422499 4816.469311230654
1692.851490561059 4764.880385085325
1693.587019494853 4688.050814882388
1694.3223704897991 4596.909595082785
1695.0575435920364 4605.343659909125
1695.792538847696 4633.996743014815
1696.527356302886 4642.089901353602
1697.2619960036936 4503.948580477408
1697.9964579961907 4460.802182890765
1698.730742326432 4386.982311778843
1699.4648490404488 4441.288233771438
1700.1987781842563 4385.145326862994
1700.9325298038548 4514.452269247553
1701.6661039452174 4527.402643518587
1702.3995006543082 4393.028808752805
1703.1327199770658 4401.83824355127
1703.865761959416 4402.056931056506
1704.598626647261 4440.738977212498
1705.3313140864866 4352.403183914699
1706.0638243229587 4263.340027936254
1706.7961574025303 4486.049996358238
1707.528313371029 4343.852887544143
1708.260292274268 4236.690288334215
1708.9920941580403 4328.632442991089
1709.7237190681226 4248.81112658515
1710.4551670502697 4281.0767576213075
1711.18643815022 4179.885733629554
1711.9175324136959 4300.027261616027
1712.6484498863938 4204.679598608416
1713.379190614005 4122.793170291941
1714.109754642188 4306.09260435237
1714.8401420165883 4199.536763864889
1715.570352782839 4655.942169424366
1716.3003869865497 4191.276974381677
1717.0302446733076 4158.619121488329
1717.7599258886876 4154.179687461985
1718.4894306782444 4269.78485663203
1719.2187590875183 3969.505249531244
1719.9479111620203 4253.1943837753515
1720.6768869472544 4065.283172376905
1721.4056864887025 4232.748175022937
1722.1343098318284 4244.654559553634
1722.8627570220742 4109.585951873334
1723.591028104871 4058.3199027487876
1724.3191231256242 3978.289087027401
1725.0470421297232 3935.497669100912
1725.7747851625427 4125.618312425515
1726.5023522694337 4084.5098858874926
1727.2297434957363 4003.887799089548
1727.9569588867635 3815.9602146752886
1728.6839984878152 4102.148348249075
1729.4108623441734 3934.6162173830335
1730.1375505011038 3934.115408711954
1730.8640630038426 4013.4641281099925
1731.5903998976264 3896.1414821964354
1732.316561227657 4047.083101635925
1733.0425470391274 3815.2472078893043
1733.7683573772065 3980.687147999819
1734.4939922870508 4045.5110174046727
1735.2194518137949 4006.164356085069
1735.9447360025606 3938.3326073628787
1736.669844898439 3928.7566763554255
1737.3947785465189 3732.6781842002965
1738.1195369918605 3773.4159745869088
1738.8441202795093 3946.904373466791
1739.5685284544943 4027.03520625444
1740.292761561821 3992.218024078379
1741.0168196464838 3899.724521986826
1741.7407027534518 3921.9854359684805
1742.464410927687 3941.994318541477
1743.187944214118 3952.932515064709
1743.9113026576688 3918.0275596146503
1744.634486303241 3953.2493853627684
1745.3574951957125 3941.1249670664533
1746.0803293799509 3967.724371899122
1746.8029889008048 3946.81967095076
1747.5254738031017 3983.862277127406
1748.2477841316504 3780.9681054693274
1748.969919931249 3822.634630891154
1749.6918812466665 3734.419778752295
1750.4136681226646 3841.162408853658
1751.1352806039777 3883.840429123312
1751.856718735331 3709.4749671389245
1752.5779825614281 3760.902370291391
1753.2990721269507 3910.5539742344854
1754.0199874765676 3700.14337387204
1754.7407286549314 3819.6451111948313
1755.4612957066693 3833.0947827389064
1756.1816886763954 3778.2841937415674
1756.9019076087097 3797.979559304176
1757.6219525481865 3842.2907918124424
1758.3418235393856 3811.0686006628894
1759.061520626854 3745.7883442501734
1759.7810438551096 3908.1971521581813
1760.5003932686614 3804.9153968945548
1761.2195689119999 3670.182405390915
1761.938570829594 3916.780045053056
1762.657399065898 3820.0128998205028
1763.376053665348 3743.8183920047386
1764.0945346723602 3615.154593215052
1764.812842131334 3702.9166239063647
1765.5309760866512 3739.107969097925
1766.2489365826787 3637.6711169189994
1766.9667236637597 3672.687258169888
1767.684337374223 3602.12630007502
1768.401777758383 3726.0089511282195
1769.1190448605284 3687.2933722056405
1769.836138724937 3640.686896682627
1770.5530593958665 3752.6682188876985
1771.2698069175603 3869.6696643779987
1771.9863813342326 3726.156612248098
1772.702782690094 3746.856445248909
1773.4190110293293 3837.4441455551228
1774.1350663961111 3753.282026369076
1774.8509488345844 3702.948579994417
1775.5666583888924 3661.834140028897
1776.2821951031437 3769.894135528354
1776.9975590214362 3654.9318162835416
1777.7127501878585 3738.2946635225708
1778.4277686464684 3722.618733946549
1779.1426144413108 3711.1449346578693
1779.8572876164162 3818.5928157757653
1780.571788215797 3519.4487174634605
1781.2861162834415 3668.3050906829944
1782.0002718633277 3656.6734591468617
1782.7142549994132 3765.779336755599
1783.4280657356376 3714.577563307582
1784.141704115922 3753.3996587658403
1784.855170184177 3636.205734034643
1785.5684639842839 3585.6458335738716
1786.2815855601148 3463.7116410590233
1786.9945349555237 3741.278704358784
1787.707312214343 3663.9210729378865
1788.4199173803918 3719.5915074021295
1789.132350497468 3540.4585321587483
1789.8446116093583 3611.3743321273278
1790.556700759822 3527.4550318702154
1791.2686179926077 3609.48941411809
1791.9803633514493 3557.3602961931806
1792.6919368800554 3457.7712926640656
1793.4033386221236 3684.458333468676
1794.1145686213295 3724.386002945789
1794.8256269213307 3639.9707599895155
1795.536513565774 3620.857396412694
1796.247228598284 3524.622626421425
1796.9577720624693 3498.7371776109894
1797.6681440019165 3608.3092127914074
1798.3783444602013 3648.9119177557504
1799.0883734808776 3558.555223910622
1799.7982311074884 3546.9284140492264
1800.5079173835475 3599.3850138915454
1801.2174323525633 3661.6038492865714
1801.9267760580187 3604.784733903985
1802.635948543386 3629.5283468407188
1803.3449498521113 3473.0821716233695
1804.0537800276325 3589.4233116915902
1804.7624391133668 3522.088496601095
1805.47092715271 3367.7171228277666
1806.1792441890484 3464.420288107342
1806.8873902657433 3530.6499199731998
1807.5953654261448 3490.798322542903
1808.3031697135812 3580.539443942187
1809.0108031713662 3418.496802217293
1809.71826584279 3424.2005013152725
1810.425557771141 3514.6981367646194
1811.1326789996747 3723.40510847245
1811.839629571632 3407.911377099898
1812.5464095302468 3543.023363749916
1813.2530189187182 3522.9407388258855
1813.959457780249 3459.3412186812757
1814.6657261580076 3514.206887923285
1815.371824095153 3581.6679172941394
1816.0777516348262 3557.3413733130756
1816.78350882015 3365.885046473755
1817.4890956942272 3323.2573684775366
1818.1945123001533 3560.2237242440474
1818.8997586809928 3521.1780079433106
1819.6048348798067 3462.828536010107
1820.3097409396287 3545.1868523910152
1821.0144769034796 3588.0832202515167
1821.7190428143622 3426.9262070225827
1822.423438715261 3555.0458085819146
1823.1276646491478 3510.90949494679
1823.8317206589727 3483.372769998183
1824.5356067876692 3460.729879462924
1825.2393230781581 3401.0136631308706
1825.942869573335 3351.3098950306244
1826.646246316086 3471.4175413584053
1827.3494533492758 3503.306216098967
1828.052490715756 3516.765560966903
1828.7553584583547 3538.7302323899066
1829.458056619891 3561.651072377948
1830.1605852431585 3507.264308245375
1830.8629443709433 3341.8192607942447
1831.5651340460063 3487.311309153283
1832.2671543110919 3195.6293820956053
1832.9690052089318 3632.559561931693
1833.6706867822395 3267.682523376468
1834.3721990737104 3450.7394541717367
1835.0735421260233 3492.529156013194
1835.774715981841 3375.9322143105337
1836.4757206838058 3506.343411361721
1837.1765562745459 3511.633941098331
1837.8772227966747 3315.6866219833946
1838.5777202927839 3417.1882044328063
1839.2780488054523 3487.519327857242
1839.9782083772352 3378.9660287154265
1840.6781990506806 3571.9912335918807
1841.378020868313 3441.299193302025
1842.0776738726418 3349.6682480282643
1842.777158106157 3367.8747430345625
1843.4764736113375 3317.226374037315
1844.1756204306403 3406.862012155964
1844.8745986065078 3358.2308016440425
1845.5734081813607 3270.0519488899195
1846.2720491976124 3358.21621878382
1846.970521697649 3248.9712135189607
1847.6688257238511 3494.6301060152255
1848.3669613185684 3462.2616410039564
1849.0649285241452 3301.3007669701196
1849.7627273829057 3354.6674745819473
1850.460357937156 3384.227473668064
1851.1578202291857 3260.1264252031124
1851.8551143012664 3381.3151500847184
1852.5522401956569 3177.71928737232
1853.2491979545957 3375.1762414327154
1853.9459876203055 3333.058807896194
1854.6426092349902 3294.9145274447064
1855.3390628408451 3473.5759269306195
1856.0353484800362 3426.759879897917
1856.7314661947203 3431.040379005802
1857.4274160270397 3320.515227023397
1858.123198019115 3253.1021656456405
1858.8188122130487 3269.5275432120957
1859.5142586509319 3261.704450310938
1860.209537374838 3337.055939968238
1860.9046484268183 3388.1971641174264
1861.599591848917 3325.65182700418
1862.294367683151 3328.1294622205196
1862.988975971528 3344.46007375302
1863.6834167560355 3262.4634008893745
1864.3776900786452 3393.6255824410537
1865.0717959813119 3357.69295174731
1865.7657345059724 3179.6372832480333
1866.4595056945564 3439.401213442321
1867.1531095889586 3339.0495869485917
1867.846546231076 3262.251191674705
1868.5398156627743 3403.2129281127163
1869.2329179259123 3287.089208777334
1869.9258530623283 3441.495762557685
1870.618621113843 3398.7918677450493
1871.3112221222636 3195.31175965379
1872.0036561293764 3362.924709794612
1872.695923176956 3363.7159492975225
1873.3880233067594 3362.715642264969
1874.0799565605212 3263.13634553348
1874.7717229799673 3427.7425521347454
1875.4633226068036 3306.1338167975437
1876.1547554827175 3379.396719540558
1876.8460216493859 3164.0282915847
1877.5371211484617 3410.5365420896574
1878.2280540215852 3354.0290801755227
1878.9188203103804 3044.2069915015854
1879.6094200564548 3191.8806215287714
1880.299853301396 3269.6983839920217
1880.9901200867826 3336.946176008563
1881.6802204541673 3355.4216677636387
1882.3701544450942 3320.555898384076
1883.059922101087 3188.6638801699987
1883.7495234636517 3376.872231990857
1884.4389585742792 3150.3375119393054
1885.1282274744517 3229.9722093433547
1885.8173302056166 3573.618793562791
1886.506266809225 3288.706793266928
1887.195037326701 3113.2681989245057
1887.8836417994517 3141.351718173438
1888.5720802688702 3316.181462284956
1889.260352776333 3257.810334776002
1889.9484593632042 3380.311285841668
1890.63640007082 3130.270514495326
1891.3241749405151 3150.748529741758
1892.0117840135954 3341.856972402626
1892.6992273313572 3169.458794216534
1893.3865049350788 3067.78313602041
1894.0736168660223 3275.429780439989
1894.7605631654333 3260.850341494416
1895.4473438745408 3156.874885398218
1896.133959034556 3309.605732691297
1896.820408686679 3215.1239926781054
1897.506692872088 3267.593615793197
1898.192811631945 3235.139706523788
1898.8787650073991 3328.3340376261467
1899.5645530395832 3388.282318030468
1900.2501757696118 3235.7845121492646
1900.9356332385796 3014.457130154046
1901.620925487574 3424.883452826126
1902.3060525576602 3435.2310705991667
1902.9910144898859 3230.584413341293
1903.6758113252872 3243.9232038506516
1904.3604431048789 3383.0280389407126
1905.0449098696663 3268.3025134798727
1905.7292116606295 3188.0079874562753
1906.4133485187394 3210.7115926614974
1907.0973204849488 3026.802446444438
1907.7811276001976 2998.0087204234055
1908.4647699053967 3201.7428253962858
1909.1482474414588 2751.006696938038
1909.8315602492694 3099.6609096644997
1910.5147083696957 3207.160804911317
1911.1976918436012 3203.413054133129
1911.880510711815 3151.6472955933796
1912.5631650151681 3187.1540965556005
1913.2456547944657 3222.625482203229
1913.927980090495 3079.194236893788
1914.6101409440362 3260.409980900952
1915.2921373958416 3201.7995352852713
1915.9739694866603 3189.3669179152375
1916.655637257214 3245.409465846138
1917.3371407482136 3172.8993530137373
1918.0184800003572 3215.1144954549873
1918.6996550543154 3327.759513050748
1919.3806659507554 3275.3071394134013
1920.0615127303208 3109.374972152823
1920.7421954336423 3268.1398726605103
1921.4227141013343 3291.290249284404
1922.103068773993 3281.8699047289715
1922.783259492202 3265.039302951265
1923.4632862965227 3137.544337897007
1924.1431492275078 3219.6014112384473
1924.8228483256917 3092.2382544936213
1925.5023836315922 2973.241506110333
1926.1817551857057 2949.3904402726357
1926.8609630285227 3370.264259206996
1927.5400072005123 3237.570778166154
1928.218887742125 3172.190383639438
1928.8976046938005 3267.994448145513
1929.5761580959588 3271.3842768925665
1930.2545479890086 3205.5383596324073
1930.9327744133352 3010.014927690211
1931.6108374093164 3148.1215073438434
1932.2887370173066 3299.744997502152
1932.9664732776473 2991.4193371789233
1933.6440462306673 3167.5719963989077
1934.3214559166754 3162.516407533266
1934.9987023759659 3256.6977998333196
1935.675785648813 3133.168494562943
1936.3527057754836 2966.7092900011967
1937.029462796223 3333.35600145734
1937.70605675126 3116.506409822665
1938.3824876808085 3056.214655179623
1939.058755625072 3165.363095523252
1939.7348606242267 3124.1756658253807
1940.4108027184448 3168.8200475584918
1941.0865819478713 3150.4944883508783
1941.7621983526478 3131.151868304173
1942.4376519728921 3062.8865620371676
1943.1129428487038 3096.0513517682107
1943.7880710201734 3223.289932597625
1944.4630365273733 3280.564905122198
1945.1378394103576 3108.9103544244012
1945.8124797091714 3241.0770814611665
1946.4869574638324 2922.313990074726
1947.161272714353 3063.040116848008
1947.8354255007234 3152.7736696944276
1948.5094158629272 3006.78407016327
1949.1832438409183 3093.6471423435496
1949.8569094746435 3248.435279449336
1950.530412804037 3121.4773433684977
1951.2037538690092 3351.2375874903782
1951.8769327094578 3176.520241013704
1952.5499493652678 2984.8988923957736
1953.222803876306 3203.210039639384
1953.895496282421 3174.52536277092
1954.5680266234522 3176.7954323091117
1955.2403949392155 3105.8396954916684
1955.9126012695142 2914.748659298911
1956.5846456541403 3185.9174345415145
1957.2565281328643 2978.0475205834173
1957.9282487454457 3184.282301163074
1958.5998075316202 3168.0009921798232
1959.27120453112 3003.0883372603557
1959.9424397836501 3142.5822349693967
1960.613513328908 3025.5518858064884
1961.2844252065697 3126.0689127444107
1961.9551754563017 2911.541981409729
1962.6257641177453 3011.9115276275797
1963.29619123054 2937.293561246909
1963.966456834296 2967.6795969438053
1964.6365609686181 3043.2648002795454
1965.306503673086 3105.043282067628
1965.976284987275 3047.58216131664
1966.645904950734 3058.9839293124905
1967.315363603002 2937.1402335488383
1967.9846609836077 3067.6503234462407
1968.6537971320486 2956.277667288457
1969.3227720878222 3028.357396764351
1969.9915858904042 3061.906616428033
1970.660238579252 3109.370241404294
1971.3287301938108 3069.08783442357
1971.997060773514 3107.1901365375893
1972.665230357772 2907.231015041433
1973.3332389859843 2816.2663647750037
1974.0010866975335 2901.8251287682156
1974.6687735317864 2971.7999734974765
1975.3362995280932 3042.8878202291276
1976.003664725793 3077.1985261330656
1976.6708691642052 2871.7044142892205
1977.3379128826364 2979.126582081032
1978.004795920373 3124.326546730163
1978.6715183166925 3113.163502812463
1979.3380801108524 2815.896728203365
1980.0044813420973 3002.099253434096
1980.6707220496555 2843.381943526608
1981.3368022727373 3013.260505615691
1982.0027220505417 2993.729192422242
1982.66848142225 2803.313030582429
1983.3340804270283 2982.258047825721
1983.999519104027 2921.0816263892893
1984.6647974923835 3006.3256036924518
1985.329915631215 2953.0917199066275
1985.99487355963 3052.4901365204305
1986.6596713167146 3110.6823469496935
1987.3243089415428 2760.897634392689
1987.9887864731754 2992.1281352179603
1988.6531039506553 2822.1274004185243
1989.3172614130071 3242.6249714742276
1989.9812588992481 2854.2901636676434
1990.645096448372 2846.711676634069
1991.3087740993633 3021.4290674140043
1991.9722918911848 2930.970113775313
1992.635649862792 3023.9916509204368
1993.2988480531185 3035.0014248229863
1993.9618865010852 3058.3314138133856
1994.6247652455968 2926.172016419539
1995.287484325545 3045.4706990671875
1995.9500437798033 2880.6787401456354
1996.6124436472292 2798.3155741202686
1997.2746839666706 2893.6749086516356
1997.936764776954 2975.9869822250594
1998.598686116895 2866.856381793732
1999.2604480252903 3097.9760577379016
1999.9220505409212 3078.920961016459
2000.5834937025593 2834.490880287287
2001.2447775489582 2988.674331362916
2001.9059021188514 2961.616174315772
2002.5668674509616 2668.2439777609393
2003.2276735839987 2912.7823179024117
2003.8883205566508 3127.5576181926153
2004.5488084075987 2836.2317716937478
2005.2091371755014 2966.389258014947
2005.8693068990033 2796.789871606528
2006.5293176167397 3015.47547500646
2007.1891693673224 2822.2847400167097
2007.848862189354 2551.1710214717546
2008.5083961214223 2720.096273195268
2009.1677712020955 2841.7619283858817
2009.8269874699254 2769.221426797917
2010.4860449634598 3144.9075036590457
2011.1449437212177 2725.3335560672317
2011.8036837817108 2911.01458717519
2012.4622651834325 2946.637154465863
2013.1206879648653 2995.0653712501994
2013.7789521644736 2991.217706841077
2014.4370578207036 2704.511759139607
2015.0950049719922 2864.4822953532253
2015.7527936567585 2877.201850210059
2016.4104239134067 2792.6866396608198
2017.067895780323 2983.9063647819758
2017.725209295886 2719.041025614719
2018.3823644984514 2952.9695529423816
2019.0393614263648 2901.7619384962445
2019.6962001179545 2717.4274717492244
2020.3528806115355 2892.568819319312
2021.0094029454067 2834.6411030125555
2021.6657671578487 2800.098682496977
2022.321973287133 2777.319354810693
2022.9780213715148 2814.5764796851263
2023.6339114492293 3000.1286416495177
2024.2896435585026 3066.108832489487
2024.9452177375442 2827.92272264404
2025.600634024544 2938.312147994202
2026.2558924576842 2741.4128751880357
2026.9109930751292 2848.8875612746233
2027.565935915025 2754.1179085392787
2028.2207210155066 2992.1838945367863
2028.8753484146964 2910.271832603293
2029.529818150695 2717.9833681668892
2030.1841302615903 2777.9371273307524
2030.8382847854573 2704.5743854853063
2031.4922817603601 2716.031858270332
2032.1461212243357 2802.7723381928463
2032.7998032154192 2753.3954488609816
2033.4533277716218 2906.6418383839145
2034.1066949309443 2837.9233281657234
2034.7599047313688 2761.133239059512
2035.4129572108704 2876.6386831950563
2036.0658524074006 2915.152058325042
2036.7185903589016 2963.6739288840936
2037.3711711032956 2908.7196733773944
2038.023594678496 2910.201366716364
2038.675861122394 2743.9951322267743
2039.3279704728757 2917.3715556822403
2039.9799227678031 2596.28744854432
2040.6317180450278 2882.348969993198
2041.2833563423865 2790.553358299441
2041.9348376977014 2885.294774483139
2042.5861621487784 2840.9955503945284
2043.2373297334088 2898.930143965813
2043.8883404893695 2914.3426460067153
2044.5391944544208 2843.5050674412005
2045.1898916663158 2811.3721570301045
2045.8404321627804 2979.173086757531
2046.4908159815368 2574.871518432598
2047.1410431602853 2551.8261245109843
2047.7911137367173 2870.4428141935105
2048.441027748504 2901.0420698836124
2049.090785233302 2678.0040350116515
2049.7403862287592 2837.4655389974814
2050.389830772503 2951.0550957133973
2051.0391189021466 2743.5140794908593
2051.688250655294 2760.717199108277
2052.337226069527 2700.5109192954214
2052.986045182417 2796.8939351694694
2053.634708031521 2507.2908160109623
2054.283214654375 2933.251678077382
2054.931565088511 2557.822788005916
2055.579759371436 2807.37216118603
2056.2277975406523 2828.9012338958937
2056.8756796336384 2941.8256892129834
2057.5234056878617 2497.70274937743
2058.1709757407752 2768.3504993347265
2058.8183898298194 2864.3987605291018
2059.465647992416 2798.1743721505222
2060.1127502659747 2837.085936842589
2060.759696687888 2890.6389402114537
2061.4064872955405 2830.9015808398703
2062.053122126292 2900.4756506492604
2062.699601217497 2454.4108875826014
2063.345924606485 2811.174856041476
2063.992092330587 2697.5450853983702
2064.638104427102 2613.456914733733
2065.283960933324 2902.8814858066535
2065.92966188653 2720.1037897206547
2066.5752073239855 2764.446132845794
2067.2205972829397 2678.118674873695
2067.86583180062 2761.1846819240973
2068.5109109142522 2699.8609078726786
2069.15583466104 2637.3704223858977
2069.8006030781708 2574.824466788895
2070.445216202821 2523.6022569511056
2071.089674072153 2617.0753136039193
2071.7339767233116 2886.254961866566
2072.3781241934303 2845.3749887814756
2073.0221165196253 2794.2426707438854
2073.6659537390024 2765.9975630879194
2074.3096358886505 2781.250490340812
2074.953163005637 2874.380901123557
2075.596535127028 2416.2480071882364
2076.2397522898664 2729.187563707578
2076.882814531182 2672.5226313700623
2077.5257218879924 2707.482367144663
2078.1684743973 2648.4098819847995
2078.8110720960885 2591.518140877638
2079.453515021336 2939.892964891454
2080.095803209997 2857.688465024231
2080.7379366990135 2616.639339862786
2081.37991552532 2890.5970606616065
2082.0217397258275 2621.5890274855633
2082.6634093374414 2563.057838783844
2083.3049243970418 2747.6598833333646
2083.9462849415067 2720.5486136769764
2084.587491007689 2872.4274907965855
2085.2285426324324 2668.0083815894054
2085.869439852564 2707.2176984464377
2086.510182704902 2699.1616041469383
2087.1507712262483 2578.824548156132
2087.791205453381 2539.323650322611
2088.4314854230743 2700.2831799628143
2089.0716111720867 2761.67573665409
2089.7115827371617 2528.2095071203116
2090.351400155023 2777.9746372664076
2090.991063462385 2724.6708760133774
2091.6305726959527 2412.890695085756
2092.2699278924047 2627.525346297668
2092.9091290884153 2653.657527025417
2093.548176320641 2602.8019769995326
2094.187069625721 2762.374043465315
2094.8258090402887 2458.6504085860247
2095.464394600951 2645.375276531255
2096.102826344313 2501.6180874355205
2096.741104306955 2708.7953460535928
2097.379228525453 2614.204072832047
2098.017199036358 2548.8277680684473
2098.6550158762147 2785.0057751433565
2099.2926790815527 2867.1053710596507
2099.9301886888825 2489.85618172088
2100.5675447347076 2753.8282147650652
2101.2047472555114 2727.155130230944
2101.841796287761 2533.352501846718
2102.47869186792 2449.4657484797294
2103.1154340324265 2729.988164295018
2103.752022817709 2694.921153331925
2104.388458260184 2555.067589548199
2105.024740396251 2764.0189489871696
2105.660869262292 2644.2724851880125
2106.296844894685 2644.906134655532
2106.93266732978 2686.2529221106593
2107.5683366039284 2526.677664865748
2108.2038527534532 2544.1413976784706
2108.8392158146726 2748.8820980959877
2109.4744258238843 2591.363020088799
2110.1094828173755 2569.4122219053434
2110.744386831422 2849.7781956186122
2111.3791379022787 2643.664247187932
2112.01373606619 2654.4147363380307
2112.648181359389 2682.1114631800706
2113.28247381809 2763.105090846202
2113.916613478492 2584.7510702853424
2114.550600376786 2745.706282359093
2115.1844345491445 2813.3126367594127
2115.818116031729 2539.0320482534275
2116.451644860679 2640.3415499231014
2117.085021072133 2510.084205500958
2117.718244702204 2618.6188452679994
2118.3513157869984 2438.979996889674
2118.984234362604 2491.1692193301237
2119.617000465092 2660.791988761632
2120.249614130529 2700.842532178764
2120.8820753949585 2647.836759466047
2121.5143842944162 2510.2168377634293
2122.14654086492 2572.5982235286974
2122.7785451424734 2811.043057336782
2123.4103971630702 2398.414202719544
2124.042096962681 2603.2992899297637
2124.6736445772767 2680.695071737621
2125.305040042802 2480.6048701306167
2125.936283395191 2681.814737781574
2126.567374670365 2664.282348461347
2127.198313904233 2486.5543987510355
2127.8291011326855 2929.843608060703
2128.4597363916037 2506.6630420469487
2129.0902197168507 2503.8827885527626
2129.720551144279 2524.5053948910354
2130.3507307097225 2793.9948947488874
2130.980758449008 2723.524471951533
2131.6106343979427 2424.6817490991916
2132.2403585923203 2722.8493681867526
2132.8699310679276 2563.227159709121
2133.499351860526 2603.172473806465
2134.1286210058715 2398.3244480886624
2134.7577385397053 2469.545889381494
2135.3867044977487 2676.0132830226366
2136.0155189157176 2765.267189850807
2136.644181829308 2558.0600361656902
2137.2726932742025 2533.661334018487
2137.901053286074 2614.7043967701015
2138.5292619005777 2520.271376919714
2139.1573191533535 2420.726846061666
2139.7852250800315 2655.525289116588
2140.4129797162295 2485.551354418866
2141.0405830975433 2356.8724996949645
2141.6680352595613 2925.270848287635
2142.2953362378576 2663.0401417323947
2142.9224860679915 2425.5933167278154
2143.549484785508 2516.488977154716
2144.1763324259373 2577.1658531607522
2144.803029024799 2478.238947628571
2145.429574617594 2475.3872668239605
2146.0559692398165 2576.4377148807666
2146.682212926942 2466.5878531337835
2147.308305714432 2619.4875483730143
2147.9342476377333 2733.0020117057657
2148.5600387322847 2718.0557471269817
2149.185679033506 2667.494599859803
2149.8111685768017 2439.9253124635106
2150.4365073975678 2409.8948053088097
2151.061695531187 2604.6915660212735
2151.686733013021 2622.528578502984
2152.311619878423 2545.9450467712495
2152.9363561627342 2398.8307944567277
2153.560941901278 2380.7430949966215
2154.1853771293663 2584.2958572863454
2154.809661882293 2402.808981565827
2155.433796195348 2895.0711015378065
2156.0577801037944 2446.836905578978
2156.681613642895 2447.9143954136625
2157.3052968478896 2232.7626905626767
2157.928829754006 2668.4774129152156
2158.552212396462 2512.508051747279
2159.1754448104566 2602.5501820998857
2159.7985270311783 2412.042260872504
2160.4214590938027 2256.359133872156
2161.0442410334927 2291.65120858536
2161.6668728853874 2466.6678714375616
2162.289354684628 2391.328001781353
2162.911686466332 2397.394832709605
2163.533868265602 2500.5544891750496
2164.1559001175337 2568.8080803976195
2164.7777820572046 2612.4203578615984
2165.399514119681 2495.038222439397
2166.021096340013 2511.262197614134
2166.6425287532384 2690.091297728766
2167.263811394385 2351.4376427744523
2167.8849442984574 2529.486026991413
2168.505927500455 2452.5803616299336
2169.126761035366 2480.207572451438
2169.7474449381552 2471.547784976201
2170.367979243778 2207.8327988839965
2170.9883639871823 2475.5942490347506
2171.608599203293 2430.45515998423
2172.2286849270276 2665.068880667827
2172.8486211932886 2519.9170400466296
2173.4684080369625 2467.8380889785212
2174.0880454929265 2357.4905811721737
2174.7075335960417 2352.499772016544
2175.3268723811543 2631.853517112992
2175.9460618831 2337.2221405039245
2176.565102136701 2539.1252477024304
2177.1839931767627 2875.709897825307
2177.802735038078 2419.5368612568227
2178.421327755432 2511.942656955215
2179.0397713635866 2391.268532011634
2179.658065897298 2622.547882377392
2180.276211391305 2429.330135531046
2180.8942078803357 2557.9523946123654
2181.5120553991 2455.0461047416266
2182.129753982299 2259.3273989867075
2182.7473036646206 2475.298204794689
2183.3647044807367 2572.2107088789935
2183.9819564653044 2250.9874888860572
2184.599059652968 2564.9347415027596
2185.216014078367 2406.2426482613796
2185.832819776113 2198.489785947713
2186.4494767808137 2560.6787534067253
2187.065985127063 2296.7888977608236
2187.682344849436 2265.1637079843704
2188.298555982501 2543.8086530731666
2188.9146185608097 2316.5569409565396
2189.530532618901 2538.4537816194143
2190.1462981912937 2594.878612085209
2190.761915312507 2515.431948921039
2191.377384017036 2219.4484701925453
2191.9927043393654 2450.4902079029207
2192.6078763139667 2231.861579984747
2193.2228999753006 2698.410912328709
2193.837775357808 2479.7024753476117
2194.452502495922 2393.287185529742
2195.0670814240602 2398.4630394866335
2195.6815121766285 2204.8038377085554
2196.2957947880186 2183.00303150852
2196.9099292926057 2161.1658138441444
2197.523915724758 2498.981903089824
2198.137754118825 2322.6457402895476
2198.7514445091456 2711.146695552934
2199.3649869300443 2216.0944781181197
2199.9783814158327 2651.1630997994916
2200.5916280008096 2564.4917889791627
2201.2047267192593 2539.9886774217416
2201.8176776054515 2371.236333951566
2202.430480693649 2118.7734254357465
2203.0431360180955 2506.6196145489616
2203.6556436130195 2566.9958563647083
2204.268003512645 2153.6557313645862
2204.8802157511727 2388.396318902785
2205.492280362796 2647.674943661391
2206.1041973816937 2483.56549547001
2206.715966842032 2431.129804164252
2207.3275887779655 2541.2921419612912
2207.93906322363 2412.4963836526244
2208.550390213153 2356.227990222379
2209.1615697806465 2445.971795594274
2209.7726019602105 2149.105386563714
2210.3834867859277 2257.8475687971195
2210.9942242918787 2298.6414180964744
2211.6048145121167 2391.521631481303
2212.2152574806914 2596.0208499948035
2212.825553231638 2372.3316962508115
2213.435701798975 2531.9294873809463
2214.045703216707 2621.2088937857307
2214.655557518832 2322.8629429016173
2215.2652647393297 2214.356925901221
2215.874824912169 1995.2665666399153
2216.4842380713 2168.0746364909364
2217.09350425067 2106.7387951291325
2217.7026234842033 2505.391863333808
2218.311595805819 2370.2048889482517
2218.9204212494133 2453.0285506133487
2219.52909984888 2444.3884646435645
2220.137631638092 2205.1474295384505
2220.7460166509154 2473.801243551762
2221.354254921198 2220.943879177673
2221.9623464827764 2349.311694396409
2222.5702913694713 2421.878553894182
2223.178089615096 2474.4567840012633
2223.7857412534486 2403.3631197592854
2224.39324631831 2238.4871700550148
2225.000604843457 2210.2278117543074
2225.607816862641 2375.193494295811
2226.214882409611 2304.8869920175885
2226.8218015180973 2586.965493881081
2227.4285742218217 2282.065074641404
2228.0352005544864 2266.059830863229
2228.6416805497847 2186.22324518589
2229.248014241399 2326.4423860204465
2229.8542016629945 2053.730692420085
2230.460242848223 2381.1489455028727
2231.0661378307304 2518.921755055685
2231.671886644139 2202.476778982217
2232.277489322065 2051.3085544614087
2232.8829458981127 1977.0255934698093
2233.48825640587 2311.4285049862983
2234.0934208789095 2491.982905066698
2234.6984393507955 2432.474621500869
2235.3033118550793 2374.40524073087
2235.9080384252975 2098.9867786526684
2236.5126190949723 2210.087200474479
2237.1170538976166 2340.420447682057
2237.721342866729 2115.6929861995204
2238.32548603579 2235.9597151029766
2238.9294834382763 2381.2937040357883
2239.533335107646 2394.911409780611
2240.1370410773434 2233.966519947042
2240.740601380803 2112.398372652726
2241.3440160514474 2371.1799347928054
2241.9472851226783 2448.09188546919
2242.550408627896 2513.3996066678105
2243.1533866004793 2578.858684420987
2243.756219073799 2255.3065338569895
2244.3589060812064 2136.30130987441
2244.961447656049 2061.422749002156
2245.5638438316564 2308.6781326331084
2246.166094641343 2367.0825378425707
2246.7682001184166 2212.4062107571417
2247.3701602961664 2110.8263244653317
2247.971975207871 2377.0424673310404
2248.5736448867974 2180.3213690891903
2249.175169366197 2252.224121009788
2249.7765486793123 2349.4232122628614
2250.3777828593684 2209.8464435103733
2250.9788719395783 2214.4628799975662
2251.579815953146 2318.877731159523
2252.1806149332606 2220.379469842011
2252.781268913097 2284.4535830962786
2253.381777925817 2184.235200464859
2253.9821420045737 2330.572739800426
2254.5823611825035 2134.5688956633057
2255.1824354927303 2320.0631614893928
2255.782364968365 2508.8673450388205
2256.38214964251 2137.404817931025
2256.9817895482483 2173.4928543551646
2257.5812847186553 2223.2206686258314
2258.180635186791 2110.8394968709754
2258.779840985704 2333.671029678755
2259.37890214843 2045.2372783336282
2259.97781870799 2491.4336355841274
2260.5765906973957 2353.4537101816168
2261.175218149645 2397.813077205114
2261.773701097718 2055.5503512775144
2262.3720395745895 2111.72437205651
2262.970233613216 2116.479066920575
2263.568283246548 2177.1809295999346
2264.1661885075137 2139.3968245983333
2264.763949429038 2247.0551013383097
2265.3615660440246 2201.575081721837
2265.959038385374 2265.3669556800514
2266.5563664859637 2333.865825214712
2267.153550378669 2212.493890405654
2267.7505900963424 2049.9789880854105
2268.3474856718312 2172.1896561528
2268.9442371379664 2227.6835335972464
2269.5408445275643 2397.883948635926
2270.1373078734377 2123.858525352862
2270.7336272083758 2110.8259051655905
2271.32980256516 2218.718043205614
2271.925833976562 2121.376630417093
2272.5217214753357 2456.4889038879605
2273.117465094223 1999.6845379882411
2273.7130648659586 2076.982020656903
2274.308520823257 2172.8865860485
2274.903832998827 2402.9902520008445
2275.4990014253563 2098.4710733785014
2276.094026135528 2296.475184360736
2276.6889071620117 2074.5818586039672
2277.2836445374614 1999.0822636779812
2277.878238294519 2054.8760230814014
2278.472688465812 2311.983432437671
2279.066995083962 2000.6405848304744
2279.6611581815705 2206.8200620805737
2280.255177791232 2064.134004212887
2280.8490539455233 2263.03762869173
2281.442786677013 2421.9864701397782
2282.0363760182554 2442.8949664155252
2282.6298220017943 1995.1769902446395
2283.223124660155 2299.776765747605
2283.816284025859 2093.1632338003296
2284.4093001314086 2261.2327568609066
2285.002173009292 2130.901624974879
2285.5949026919952 2313.551175739779
2286.1874892119777 2272.3131031401285
2286.7799326016993 2381.604375884256
2287.3722328936 2123.213301365652
2287.964390120109 1947.527796208189
2288.556404313642 2394.9241878493044
2289.1482755066027 2292.9417331366485
2289.7400037313873 2230.122158844464
2290.3315890203703 2070.868806578787
2290.9230314059205 2288.937796120061
2291.5143309203904 2284.504813903592
2292.1054875961236 2256.437019433296
2292.6965014654506 2226.868185486145
2293.287372560684 2038.8298236650849
2293.878100914131 2439.3455826442514
2294.468686558086 2184.593071015468
2295.059129524827 2191.7744843790256
2295.649429846617 2347.04184254879
2296.239587555716 1973.3496406944826
2296.8296026843636 2187.580816581872
2297.419475264791 2414.891518793911
2298.0092053292137 1990.2247545966857
2298.598792909839 2375.8889541066633
2299.1882380388597 2212.796671031484
2299.777540748455 2150.2628720257194
2300.3667010707904 2180.50347133605
2300.9557190380256 2178.571822789593
2301.544594682302 2433.381228279008
2302.1333280357503 1944.8258375199887
2302.721919130485 2140.330591053706
2303.3103679986198 2445.527930181435
2303.898674672242 2276.6913476899026
2304.486839183437 2028.9595735567357
2305.0748615642697 2151.764780428689
2305.6627418468015 2210.4811360871854
2306.2504800630704 2069.1711174078705
2306.8380762451143 2228.4041664819138
2307.425530424949 1764.6772104796703
2308.012842634582 2120.054889041499
2308.6000129060103 2265.266794914406
2309.187041271214 2266.225780215416
2309.773927762164 1959.8199951260187
2310.3606724108213 2188.4963816272584
2310.9472752491274 2106.3699798432144
2311.5337363090184 2239.5650116795578
2312.120055622414 2091.983587986027
2312.706233221221 2017.6805768728755
2313.2922691373424 1844.8590731791373
2313.8781634026564 2380.2937907688865
2314.463916049037 2314.1980173743164
2315.049527108342 1989.7225045682917
2315.6349966124235 2278.5508572858535
2316.2203245931123 2249.881550237406
2316.8055110822315 2077.519834646017
2317.3905561115935 1874.9912474488374
2317.9754597129977 2012.6998294373207
2318.560221918229 2312.997248095754
2319.1448427590603 1962.5662941869625
2319.729322267256 2223.7954882428166
2320.313660474563 2055.396532718799
2320.8978574127195 2379.1814231343933
2321.481913113452 2374.058206892956
2322.0658276084705 2090.394479461192
2322.6496009294806 2141.8066480393104
2323.233233108165 1751.6684438746174
2323.8167241762058 2050.6943432611906
2324.4000741652617 2061.8867682331193
2324.983283106987 2130.083135676329
2325.5663510330232 2280.6662657337856
2326.1492779749933 2094.5645765803674
2326.7320639645204 2290.4098760867982
2327.3147090332004 1993.7507573859045
2327.897213212629 2471.2367408980017
2328.4795765343843 2224.536709456571
2329.0617990300307 2050.1242962720526
2329.643880731124 2006.5937921593734
2330.22582166921 1963.1075541361122
2330.807621875816 2254.20453091112
2331.3892813824623 1740.775473156115
2331.9708002206517 1784.782235894853
2332.5521784218818 2000.5248049869092
2333.133416017634 2138.589089475698
2333.7145130393765 2137.4443415679343
2334.295469518571 2264.1200742017436
2334.876285486658 2136.9685899602273
2335.456960975076 1866.1427949018175
2336.037496015242 2261.4018399380375
2336.6178906385667 2289.665548760332
2337.198144876451 2121.006225746599
2337.778258760278 1967.4019436643805
2338.3582323214214 1684.6277688373707
2338.938065591243 2047.6256260444213
2339.517758601087 2161.800124409668
2340.0973113822965 2164.136299351616
2340.676723966193 2061.179994363241
2341.255996384094 2374.0949392578955
2341.835128667295 2170.8250153762783
2342.4141208470883 2313.1777220626955
2342.992972954751 2079.990991834414
2343.5716850215467 2184.385470046166
2344.1502570787306 1728.3792180427718
2344.7286891575386 2096.5113269396666
2345.3069812892045 1901.8761122692063
2345.885133504944 2244.4186621781528
2346.4631458359618 2021.4275029190806
2347.04101831345 1745.732307720268
2347.6187509685915 2011.8240927565753
2348.196343832553 1772.3001724640576
2348.7737969364935 1753.302908920751
2349.351110311558 1734.318096867272
2349.9282839888765 1826.3458904490442
2350.5053179995757 1780.4091316539204
2351.0822123747585 1897.2781303330273
2351.658967145526 1747.287716133768
2352.2355823429643 2015.309435658743
2352.812057998144 1842.559550547988
2353.3883941421263 1868.95599213176
2353.9645908059647 2125.8441089918506
2354.540648020693 2029.5306825281993
2355.116565817336 2165.673659048578
2355.6923442269126 1903.437186379852
2356.2679832804224 2075.0748712449104
2356.8434830088518 2137.413311868859
2357.41884344318 2102.45473330068
2357.994064614377 2249.8043652096303
