#exp_cfg={"servo_angle": 0.0, "laser_lim": 100.0, "servo_angle_to": 18.0, "laser_wup": 0.0, "bt_dev": "EnSpectr-25AE3", "laser_wdn_max": 0.0, "frames": 10.0, "servo_used": 0, "servo_calib_use": 0, "laser_wdn_min": 0.0, "servo_pix_from": 90.0, "cooler_tout": 300.0, "servo_angle_from": 0.0, "servo_calib": "[-1.9174921013161362e-09, 3.9322238269163779e-05, -0.27385609119055809, 653.59552119713567]", "laser_autoctl": 0, "servo_pix_to": 3682.0, "laser_pw": 100.0, "cooler_on": 0, "laser_volt": 4.0, "cooler_autoctl": 0, "cooler_curr": 70.0, "cooler_startup": 10.0, "laser_fixed_pw": 0, "gain": 1.3, "offset": 2.53059635486, "servo_calib_degree": 3.0, "laser_curr": 55.0, "shutter": 8200.0, "servo_calib_step": 1.0, "laser_fixed_curr": 0, "exp": 2000.0, "ccd_volt": 4.7, "bt_addr": "00:06:66:62:5A:E3", "servo_delay": 500.0, "laser_autooff": 1}
#proc_cfg={"flat_auto_wnd": 200.0, "flat_auto_fr": 200.0, "flat_auto_shift": 5.0, "yconv": 1, "flatten": 1, "flatten_strength": 100.0, "xfrom": 300.0, "auto_max_frame": 2000.0, "auto_signal": 48000.0, "flat_auto_tol": 0.1, "autoclip": 1, "xrel_range": 0.0, "flat_auto_to": 4000.0, "intensity_adj": 1.0, "xrel": 7852.0, "rmhot": 1, "flat_auto_slit": 4.999999999999997, "auto_ini_exp": 300.0, "auto_off": 0, "xto": 2860.0, "flat_auto_ref": "", "flat_auto_rank": 1, "autobackg": 0, "xrel_adj": 0.0, "auto_black_lvl": 1, "base_wnd": 100.0, "sub_baseline": 0, "xconv": 2, "auto_max_exp": 1000.0, "auto_total_exp": 10000.0, "auto_exp": 0, "rmripple": 0, "black_lvl": 8229.0125, "shutter_clip_adj": 0.0, "auto_bckg": 0, "flat_auto_thr": 0.9, "subbackg": 1}
316.8218498245369 17732.910422066838
317.89969571804795 17527.67999416904
318.977263876126 17569.179904917422
320.05455438786703 17509.812792260123
321.1315673423287 17465.329757442618
322.2083028285215 17392.154781965037
323.2847609354267 17257.290960624494
324.3609417519747 17229.3945207109
325.43684536705587 17203.51440930544
326.5124718695279 17081.098674165263
327.58782134820103 16995.616767966003
328.66289389184385 16964.519194725104
329.7376895891921 16878.595391121205
330.8122085289342 16823.052602432672
331.88645079971866 16791.36087053697
332.9604164901575 16720.998086529937
334.03410568881554 16719.50628073484
335.1075184842266 16819.972042192458
336.18065496487543 16584.643488147594
337.2535152192122 16518.601597527908
338.32609933564163 16528.371631968934
339.39840740253203 16453.637424769182
340.4704395082099 16477.805682614646
341.5421957409617 16407.830122555206
342.6136761890357 16483.501050385923
343.6848809406365 16343.00704962263
344.75581008392874 16339.871463096046
345.82646370703696 16129.94234974737
346.8968418980512 16235.582470039468
347.96694474501055 16259.154121184009
349.0367723359268 16265.123256573259
350.106324758759 16181.086164604203
351.1756021014353 16130.832241506921
352.2446044518383 16205.332117868724
353.31333189781435 16216.877568840715
354.38178452716966 16106.003152295914
355.449962427665 16119.804865186507
356.51786568702846 16032.687507260522
357.58549439294256 16158.637435346482
358.6528486330535 16155.26125108061
359.71992849496564 16074.753203871252
360.7867340662433 16086.536025173915
361.8532654344144 16113.064981797539
362.9195226869597 16190.12062908806
363.9855059113288 16088.023643004282
365.05121519492604 16094.939965523386
366.11665062511565 16146.036801334736
367.1818122892273 16160.003683922938
368.2467002745434 16209.846533298201
369.31131466831175 16248.501299941567
370.375655557742 16232.286235607771
371.4397230299983 16205.373220575895
372.5035171722102 16162.680047698692
373.5670380714637 16224.431413780858
374.6302858148101 16197.459818631327
375.6932604892554 16158.77912918953
376.7559621817709 16292.393318589286
377.81839097928605 16154.855196283625
378.8805469686886 16150.209897692863
379.94243023683157 16319.030120124322
381.0040408705263 16121.213340769968
382.0653789565458 16138.397275039091
383.1264445816196 16174.757394186541
384.1872378324406 16116.93324283588
385.2477587956637 16131.935136685925
386.3080075579037 16073.854587452335
387.3679842057336 15975.557271518765
388.4276888256918 15973.796962400807
389.48712150426945 16003.381581226597
390.54628232792857 15935.502287401187
391.6051713830857 15953.360907830885
392.66378875611736 15906.51516030281
393.7221345333637 15916.634102148058
394.7802088011249 15843.2411990472
395.838011645661 15911.573265257923
396.89554315319765 15870.080047862455
397.9528034099112 15841.180546292753
399.00979250194723 15780.629108825306
400.06651051541485 15720.981859575328
401.1229575363741 15756.588827894386
402.17913365085224 15686.752329767889
403.23503894483656 15770.860411219348
404.2906735042761 15648.687002847171
405.3460374150818 15562.278748698585
406.401130763119 15582.379477069098
407.455953634224 15657.236182189856
408.5105061141876 15594.0935161448
409.56478828876243 15436.946081189308
410.6188002436629 15428.416481694858
411.6725420645689 15411.103059870558
412.72601383711117 15441.179956791912
413.77921564689314 15486.950776459626
414.8321475794728 15326.45621866635
415.88480972036814 15328.728663093812
416.93720215506437 15259.444269597201
417.9893249690049 15262.775634341562
419.04117824759123 15163.87299527416
420.09276207619223 15163.928757255784
421.144076540133 15172.867288084817
422.1951217247042 15143.517002507442
423.24589771515275 15091.8120013677
424.2964045966928 15084.281711355015
425.34664245449494 15093.192739656946
426.3966113736933 15112.48287117834
427.4463114393875 15020.73911407695
428.49574273662984 14974.318025075012
429.5449053504417 14884.110534954772
430.5937993658026 14980.180600071562
431.6424248676558 14893.37884053856
432.6907819409007 14914.40425578162
433.73887067040596 14840.556720698398
434.7866911409965 14901.094910282223
435.8342434374608 14949.513744605356
436.88152764455117 14839.199309498697
437.9285438469724 14810.024993489566
438.9752921294057 14794.489778916588
440.02177257648145 14818.954598954291
441.06798527279716 14686.498347695548
442.1139303029122 14865.190552928727
443.1596077513459 14725.190203117396
444.2050177025794 14700.607694974573
445.25016024105753 14651.890791835762
446.2950354511886 14711.666598041342
447.33964341733736 14753.91253383396
448.383984223834 14638.210491797223
449.4280579549686 14620.597672395856
450.471864694995 14702.449498318241
451.5154045281306 14628.006785523457
452.5586775385509 14645.56540162322
453.60168381039693 14586.806646241841
454.64442342776783 14722.564833971646
455.6868964747264 14627.881555291115
456.7291030353008 14563.778840040297
457.77104319347563 14645.41586062515
458.8127170332027 14570.212741769428
459.854124638392 14604.45117660606
460.895266092919 14687.323248435263
461.93614148061897 14709.214119548114
462.97675088529104 14649.483981906003
464.01709439069236 14697.269739839636
465.0571720805492 14721.625581803319
466.0969840385442 14719.656578487571
467.1365303483253 14827.685428386296
468.17581109350067 14722.486661247589
469.2148263576437 14783.33344156493
470.2535762242878 14736.699266611191
471.29206077693016 14840.682274924588
472.33028009902773 14802.470005506697
473.3682342740012 14955.959428572543
474.40592338523857 14929.983411944067
475.4433475160804 15027.235276988755
476.4805067498364 15059.018310707968
477.51740116978 15094.98938921608
478.5540308591426 15240.816584144424
479.59039590112116 15276.252188396282
480.6264963788726 15328.950300241278
481.6623323755193 15619.33373811259
482.6979039741436 15596.446608904798
483.7332112577915 15794.994575615614
484.76825430947247 16016.399818992146
485.80303321215797 16178.63835898684
486.837548048783 16366.56262674786
487.8717989022425 16488.136927411444
488.90578585539697 16536.77803531486
489.9395089910686 16798.886299856727
490.97296839203955 16753.00425532039
492.00616414106116 16688.95718159634
493.0390963208429 16721.70966058097
494.0717650140559 16712.47447449773
495.10417030333883 16597.573678567125
496.1363122712901 16510.613826556662
497.16819100046814 16290.014530747654
498.1998065734024 16209.819844490343
499.2311590725767 16053.989132697276
500.26224858044407 15895.665470836951
501.2930751794156 15749.844227222993
502.3236389518679 15656.179629040093
503.35393998014115 15488.170672651944
504.38397834653733 15320.062919065458
505.4137541333221 15308.761930148536
506.4432674227228 15231.276258363941
507.4725182969323 14976.569817317368
508.5015068381035 14895.41130605272
509.53023312835467 14904.785480930022
510.55869724976765 14856.72129243945
511.58689928438434 14761.803900552146
512.6148393142121 14622.411646472901
513.6425174212218 14693.959733183417
514.6699336873462 14697.47011097052
515.6970881944835 14701.635943312529
516.7239810244901 14582.435800425348
517.7506122591931 14609.864987337536
518.7769819803761 14627.958042500351
519.8030902697901 14539.407535053086
520.8289372091476 14587.0723832891
521.8545228801249 14694.617029862758
522.8798473643619 14584.842683521394
523.9049107434621 14682.11778341239
524.9297130989908 14665.654605354857
525.9542545124805 14595.669163618653
526.9785350654201 14572.570219076428
528.0025548392696 14597.483954199843
529.0263139154504 14494.99585741539
530.0498123753423 14608.218825210639
531.073050300296 14535.897114199048
532.0960277716204 14394.051028705138
533.1187448705896 14485.257126525874
534.1412016784416 14444.275812289041
535.1633982763833 14434.20203860219
536.1853347455726 14364.207861574172
537.2070111671401 14267.667514802966
538.2284276221817 14211.180503301022
539.2495841917516 14171.560605531346
540.2704809568677 14176.361730516535
541.2911179985167 14126.333882728239
542.3114953976419 14047.749481569801
543.3316132351592 13930.095435827625
544.3514715919409 14011.197757464271
545.3710705488247 13879.471107862206
546.3904101866156 13935.32838351281
547.4094905860784 13878.6269387621
548.4283118279418 13899.00884653299
549.4468739929034 13831.254352308159
550.4651771616191 13822.519956285007
551.4832214147063 13783.451471730548
552.501006832761 13966.468575280776
553.5185334963226 13769.848084555677
554.5358014859103 13840.629500122717
555.5528108820035 13798.130030462058
556.5695617650363 13918.662484559725
557.5860542154242 13953.987146547419
558.6022883135283 13830.244467152621
559.6182641396881 13726.539567087395
560.6339817741991 13711.990731789416
561.6494412973225 13833.465308267429
562.6646427892883 13768.619962523231
563.6795863302796 13739.746078905038
564.694272000459 13609.140073370592
565.7086998799423 13804.58848795027
566.7228700488104 13684.982091099857
567.7367825871115 13688.057570942683
568.7504375748576 13723.839985123195
569.7638350920224 13748.580381775104
570.7769752185486 13734.406652787244
571.7898580343353 13664.696660229267
572.802483619258 13710.3301774666
573.8148520531431 13813.130830831977
574.8269634157932 13817.160157137278
575.8388177869692 13889.671715232986
576.8504152463938 13949.412383150553
577.8617558737587 14063.146163770634
578.8728397487175 14076.52295705406
579.883666950891 14122.876124548056
580.8942375598654 14291.310856121254
581.9045516551851 14425.795219172307
582.9146093163617 14616.02774356808
583.924410622878 14458.31170831594
584.9339556541727 14629.564078953952
585.9432444896538 14605.405144709983
586.9522772086875 14631.55229767541
587.9610538906127 14753.42173039685
588.9695746147318 14665.243144684666
589.9778394603054 14714.247077666427
590.985848506567 14753.11692027489
591.9936018327098 14611.50313918781
593.0010995178891 14523.69351101333
594.0083416412344 14429.472174688073
595.0153282818283 14231.941775002444
596.0220595187293 14189.896773939447
597.0285354309508 14185.411316146137
598.0347560974806 14001.483171402182
599.0407215972609 14124.162102859307
600.0464320092051 14022.1925106191
601.0518874121954 13906.575172864605
602.0570878850685 13978.521394447595
603.062033506636 13973.316181698236
604.0667243556636 13980.613915984472
605.0711605108936 13890.739113422771
606.0753420510264 14047.921659723619
607.0792690547278 14032.501141732897
608.082941600629 13925.297773455433
609.0863597673306 13986.917477938006
610.0895236333909 14072.361299262388
611.0924332773357 14253.141754262248
612.0950887776617 14207.956741623948
613.0974902128219 14316.724920726227
614.0996376612384 14375.836782180695
615.1015312013005 14574.521110074533
616.1031709113595 14588.28731153995
617.1045568697336 14610.508917256113
618.1056891547069 14751.435761599763
619.1065678445229 14901.761110460833
620.1071930173985 15288.565106655846
621.1075647515099 15283.409232042479
622.1076831250048 15461.546671748103
623.1075482159849 15625.666674615946
624.1071601025305 15811.83061574671
625.1065188626781 15987.862734181112
626.105624574433 16367.498753624826
627.1044773157682 16434.283981240507
628.1030771646128 16701.718008798336
629.1014241988742 16908.656303651354
630.0995184964158 17048.11910298349
631.0973601350688 17277.051105409548
632.0949491926294 17422.968164609032
633.0922857468631 17299.130081061743
634.089369875499 17468.063943019464
635.0862016562278 17528.8694259573
636.0827811667077 17349.37532829143
637.0791084845641 17423.119759704183
638.0751836873878 17340.560809392864
639.0710068527369 17275.92479469856
640.0665780581294 17006.213986971725
641.0618973810506 16710.551149775834
642.0569648989604 16697.67109071121
643.0517806892676 16397.79447441752
644.0463448293649 16166.629871374116
645.040657396592 15946.208695458161
646.0347184682723 15695.355171142062
647.0285281216875 15498.967345275081
648.0220864340772 15257.470048644493
649.0153934826558 15085.814952466051
650.0084493446047 14910.544764946095
651.0012540970674 14681.767889310915
651.9938078171526 14557.674059948118
652.9861105819346 14531.823786821395
653.9781624684565 14459.579150021958
654.9699635537254 14256.931105873446
655.9615139147136 14192.04151838744
656.9528136283589 14076.847953694367
657.9438627715699 14087.106561585646
658.9346614212154 13895.985210373497
659.925209654135 13811.755563391931
660.9155075471263 13914.93889718689
661.9055551769616 13862.553752582675
662.895352620375 13781.172395610225
663.8848999540678 13717.67015499378
664.8741972547068 13641.05594655906
665.863244598926 13674.896339921606
666.8520420633213 13661.367664794612
667.8405897244611 13642.979629577614
668.8288876588758 13549.399540636015
669.8169359430613 13630.613179116297
670.8047346534822 13560.63474285716
671.7922838665672 13510.970498384919
672.7795836587156 13567.352751650837
673.766634106285 13713.001702236323
674.7534352856092 13595.863656379097
675.7399872729766 13432.076111935556
676.7262901446538 13636.940906794674
677.712343976862 13582.532371006047
678.6981488457986 13631.215236915048
679.6837048276229 13532.159849772293
680.6690119984596 13521.756099762666
681.6540704344043 13547.99893668888
682.6388802115107 13465.35374884867
683.6234414058108 13428.275690083445
684.6077540932874 13367.422932613941
685.591818349907 13379.765786595404
686.575634251587 13358.269219603177
687.5592018742263 13281.393622979096
688.5425212936734 13209.628231605118
689.5255925857564 13232.0377977397
690.5084158262707 13110.798074672994
691.4909910909646 13149.499853518873
692.4733184555644 13043.386609965764
693.4553979957618 13048.210943634742
694.4372297872123 13110.565074918884
695.4188139055404 12998.211646453396
696.4001504263324 12855.005403750953
697.3812394251509 12931.654820881025
698.3620809775111 12819.397341487263
699.3426751589104 12864.329944847344
700.3230220448004 12827.419881052823
701.3031217106054 12901.160138669327
702.2829742317172 12854.624447049766
703.2625796834873 12784.02072594913
704.2419381412474 12711.070355019041
705.22104968028 12738.352246695436
706.1999143758458 12662.969538134119
707.178532303169 12608.808025035807
708.1569035374378 12737.906423847722
709.1350281538107 12822.027323084487
710.1129062274158 12753.94214121303
711.0905378333373 12795.08143367968
712.0679230466376 12838.704788605226
713.0450619423427 12881.52487423119
714.0219545954424 12907.67262444975
714.9986010808989 12792.4801407101
715.9750014736292 12965.88729745804
716.9511558485392 13033.113809040671
717.9270642804786 12904.278708903275
718.9027268442787 13032.991672618362
719.8781436147328 13122.020284587983
720.8533146666014 13090.867153271476
721.828240074612 13046.565042164384
722.8029199134635 13059.834202244641
723.7773542578125 13022.945633088017
724.751543182294 12941.708884512915
725.7254867615029 12977.46263087964
726.6991850700015 12823.350055936182
727.6726381823228 12926.31201952445
728.6458461729599 12855.357996529132
729.6188091163858 12817.318139217698
730.5915270870246 12787.876082589175
731.5640001592856 12768.150020019766
732.536228407529 12705.113402810859
733.5082119060917 12667.515604374148
734.4799507292755 12728.541662868085
735.4514449513481 12615.979669548826
736.4226946465496 12787.86099465078
737.3936998890786 12777.484597480585
738.3644607531078 12687.000343970267
739.3349773127793 12741.875520325848
740.3052496421951 12663.333152718023
741.27527781543 12715.396530933947
742.2450619065221 12628.81128320318
743.2146019894826 12695.834184836222
744.183898138288 12673.6710243124
745.1529504268801 12585.452677184563
746.1217589291682 12534.38128427424
747.0903237190341 12509.27580073009
748.058644870318 12636.84193007714
749.0267224568397 12373.531424366069
749.994556552374 12476.067302819702
750.9621472306771 12501.830658802266
751.9294945654583 12506.973594629515
752.8965986304011 12457.876226979077
753.8634594991636 12441.896171047458
754.8300772453586 12582.466831876165
755.7964519425768 12510.373144075758
756.762583664371 12528.042245985269
757.7284724842611 12600.238279256515
758.6941184757416 12529.098984730686
759.6595217122667 12585.104317801964
760.6246822672638 12514.354397980824
761.5896002141235 12509.567663945163
762.5542756262093 12551.8567716199
763.5187085768503 12500.384725108963
764.4828991393406 12487.807288184827
765.4468473869474 12481.50985510633
766.4105533929032 12466.689938228541
767.3740172304078 12433.368754977138
768.3372389726283 12428.10457871259
769.3002186926988 12282.312647542687
770.2629564637282 12207.537884707053
771.2254523587872 12262.738771774108
772.1877064509154 12200.922038642717
773.1497188131179 12097.635006061002
774.1114895183728 12065.198514317754
775.0730186396268 12026.726105148015
776.0343062497905 11897.973532895998
776.9953524217381 12050.393932186318
777.9561572283274 11946.55697056458
778.9167207423689 11942.291862976628
779.8770430366476 11900.987137678814
780.8371241839159 11923.562100616915
781.7969642568951 11934.770339827872
782.7565633282757 12124.64535100589
783.7159214707099 12008.299601846611
784.6750387568281 12025.139138350587
785.6339152592227 11957.947154486703
786.5925510504512 11891.973609586528
787.5509462030477 11981.009405403673
788.5091007895098 11980.997957282905
789.4670148823006 11998.178667333956
790.4246885538596 11990.375438078034
791.3821218765861 11987.546639862489
792.3393149228505 11932.741890745285
793.2962677649975 12059.128715690493
794.2529804753303 12124.915229614493
795.20945312613 12107.298667507439
796.1656857896378 12093.250472721262
797.1216785380675 12164.363631070475
798.0774314435985 12227.538627555641
799.0329445783846 12348.63458618222
799.9882180145414 12416.690266133302
800.9432518241574 12335.300707100936
801.89804607929 12607.814913813998
802.852600851962 12598.734591311175
803.8069162141637 12607.965382079747
804.760992237856 12789.186556752242
805.714828994971 12836.297927534652
806.6684265574077 12876.873853089632
807.6217849970271 12806.007797276045
808.574904385674 12873.153433774123
809.527784795142 12860.65435650955
810.4804262972102 12917.633266450426
811.4328289636178 12745.80377022022
812.3849928660748 12565.121356629785
813.3369180762638 12611.05077685104
814.2886046658241 12426.444746466706
815.2400527063783 12354.381179953509
816.1912622695108 12248.077348948002
817.1422334267718 12154.392480152837
818.0929662496856 12095.497834079726
819.0434608097457 11974.624673090226
819.9937171784059 11975.096528716875
820.9437354271013 11851.464251713256
821.8935156272255 11819.685869501584
822.8430578501484 11676.86394450909
823.7923621672016 11554.828426318383
824.7414286496896 11677.223344676819
825.6902573688876 11634.255901789023
826.6388483960363 11527.397089677825
827.5872018023492 11451.639407246057
828.5353176590033 11556.536779881457
829.4831960371503 11417.465205580584
830.4308370079016 11411.490111365598
831.3782406423525 11368.883140373002
832.3254070115545 11380.033141903474
833.2723361865319 11281.219452160965
834.2190282382799 11269.553706389428
835.1654832377644 11277.784444946943
836.1117012559116 11359.9337431877
837.0576823636256 11405.068178827922
838.003426631778 11226.624838168393
838.9489341312074 11258.358258265152
839.8942049327197 11358.538933223552
840.8392391070975 11394.340482029293
841.7840367250865 11285.397029510816
842.7285978573982 11354.830715913824
843.672922574724 11333.287759642635
844.6170109477152 11366.614887041673
845.560863046996 11295.852458687095
846.5044789431595 11321.295514371737
847.4478587067697 11292.37867095506
848.3910024083561 11408.937789415237
849.333910118421 11313.386647636631
850.2765819074339 11265.74763063292
851.2190178458332 11319.001583709087
852.161218004032 11373.197804033747
853.1031824524016 11356.632010145808
854.0449112612987 11309.737762145392
854.9864045010327 11403.732725064317
855.9276622418947 11219.07304693326
856.8686845541379 11383.355725641039
857.8094715079915 11359.254317177045
858.7500231736467 11352.037396527801
859.690339621271 11374.928824514827
860.6304209209939 11405.328213833465
861.5702671429244 11278.754127675742
862.5098783571284 11394.633457217073
863.4492546336569 11380.914245115453
864.3883960425155 11393.515290877589
865.3273026536863 11293.903494484519
866.2659745371238 11394.424292003085
867.2044117627465 11498.885870218968
868.1426144004472 11462.639318243533
869.0805825200823 11508.353266248741
870.0183161914847 11611.798136466376
870.9558154844526 11610.949724236209
871.8930804687552 11529.520630310892
872.8301112141307 11554.510355022041
873.7669077902865 11771.122102252584
874.7034702669062 11928.425082369802
875.6397987136315 11820.033012303928
876.5758932000863 11786.265806538382
877.5117537958522 11875.874325277511
878.4473805704911 11867.401233661969
879.3827735935283 11973.395444555466
880.3179329344603 12011.813061359218
881.2528586627541 12070.055487762591
882.1875508478479 12141.340517283832
883.1220095591489 12020.014860618536
884.0562348660296 12093.320225432251
884.9902268378391 12069.218610409185
885.9239855438955 12061.12267291394
886.8575110534839 12008.271103571646
887.7908034358588 12034.4203329136
888.7238627602474 12000.176585768735
889.6566890958475 11945.291536266966
890.5892825118208 11799.486003472437
891.5216430773125 11839.161118495693
892.4537708614189 11790.751366195555
893.3856659332196 11673.752688963112
894.3173283617652 11578.439362958137
895.2487582160684 11565.347104378565
896.179955565116 11532.738963149162
897.110920477864 11417.370543004308
898.0416530232451 11363.793173566792
898.9721532701478 11332.422866035087
899.9024212874428 11376.271955705422
900.8324571439662 11314.663196337018
901.7622609085302 11173.304334672886
902.6918326499072 11124.995013752232
903.6211724368477 11270.232294909725
904.5502803380696 11232.905301176972
905.4791564222614 11175.271954593485
906.4078007580792 11135.19943873602
907.3362134141571 11095.736033923673
908.2643944590909 11038.942982122984
909.1923439614493 11063.044115142278
910.1200619897754 11084.366670023175
911.0475486125779 11091.942685493907
911.9748038983344 11057.335110397882
912.9018279155007 10925.257684079577
913.8286207324982 10914.213662380736
914.7551824177117 10990.745522023517
915.6815130395116 10971.557580820536
916.6076126662283 10918.931381425988
917.533481366163 10952.11657153074
918.4591192075914 10891.77775363934
919.3845262587565 11006.337648593955
920.3097025878706 10905.940454304404
921.2346482631237 10883.637458034753
922.1593633526682 10942.885817627903
923.0838479246304 10924.834606253298
924.0081020471061 10996.83691976056
924.9321257881656 10900.51313513305
925.8559192158464 10852.670671171392
926.7794823981512 10859.51145093616
927.7028154030686 10878.692871027675
928.6259182985414 10793.211827544039
929.5487911524906 10922.919381499145
930.4714340328119 10847.57280174681
931.3938470073608 10710.244928683902
932.3160301439748 10840.714998332578
933.2379835104548 10859.998826365943
934.1597071745709 10887.56377075956
935.0812012040769 10882.567749128362
936.002465666681 10859.55696451398
936.9235006300696 10903.816026766892
937.8443061619055 10826.381857953831
938.7648823298077 10667.854980474849
939.6852292013809 10761.74770420353
940.6053468441951 10686.573144836995
941.5252353257874 10688.847618772223
942.4448947136698 10767.56212522906
943.364325075323 10651.600936622075
944.2835264782043 10784.434405210337
945.2024989897309 10752.240703255746
946.1212426773054 10679.519743147974
947.0397576082851 10732.608353396243
947.9580438500125 10796.348138412231
948.8761014697939 10693.219896429096
949.7939305349064 10879.524452481259
950.7115311125999 10760.604903559255
951.6289032700952 10710.814945973936
952.5460470745875 10799.982801450424
953.4629625932339 10824.257433840563
954.3796498931715 10750.278111135525
955.2961090415029 10806.03125163039
956.2123401053068 10752.727520591581
957.1283431516276 10705.096857691678
958.0441182474842 10657.95708900209
958.9596654598663 10874.543506013526
959.8749848557309 10711.148225880448
960.7900765020167 10718.719353119373
961.7049404656209 10666.30504704733
962.6195768134185 10849.325270831441
963.5339856122537 10769.6519452548
964.4481669289453 10788.061120673272
965.3621208302793 10576.37704711335
966.2758473830145 10692.41833516008
967.1893466538822 10784.420767446854
968.1026187095813 10748.994858283153
969.0156636167867 10598.08046038439
969.9284814421426 10785.108080807242
970.8410722522622 10657.947152674831
971.753436113735 10659.19923974762
972.6655730931161 10604.330501149612
973.5774832569368 10776.283726127043
974.4891666716958 10672.290128597928
975.4006234038698 10598.677731413782
976.3118535198955 10609.712647434708
977.2228570861935 10747.572865808783
978.1336341691494 10702.48767973075
979.0441848351202 10619.191390043683
979.9545091504333 10784.155164057662
980.864607181391 10761.981582954742
981.7744789942699 10810.782609839183
982.6841246553086 10732.808608496905
983.5935442307236 10733.225079088745
984.5027377867027 10911.507592080849
985.4117053894024 10753.5690214171
986.3204471049557 10764.023905359973
987.2289629994648 10851.878289882525
988.1372531390007 10926.985425996223
989.0453175896091 10981.219930768082
989.9531564173067 11018.858301246077
990.860769688079 10941.787131456986
991.7681574678918 11040.355294219555
992.6753198226706 10996.397380089042
993.582256818323 11009.01859080899
994.4889685207218 11044.184296987474
995.3954549957143 11221.448797916104
996.301716309119 11106.232441803382
997.2077525267232 11165.403217385707
998.1135637142943 11070.066214980016
999.0191499375615 11261.63586970464
999.924511262232 11243.337151721886
1000.8296477539861 11264.80106717312
1001.7345594784656 11212.695823111771
1002.6392465012996 11345.776554437323
1003.5437088880753 11357.414163238323
1004.4479467043584 11431.266192228819
1005.3519600156869 11241.247976659753
1006.2557488875718 11308.336163935668
1007.1593133854858 11234.281333798786
1008.0626535748888 11289.305587272784
1008.9657695212009 11134.522176867524
1009.8686612898182 11339.380443055496
1010.7713289461135 11256.657867851913
1011.6737725554212 11292.628688479212
1012.5759921830577 11133.777306098727
1013.4779878943027 11242.404180970547
1014.379759754418 11114.263387611498
1015.2813078286254 11141.98583104371
1016.18263218213 11031.745546344227
1017.0837328801026 11041.283409701009
1017.9846099876886 10988.293717100922
1018.8852635700023 10929.014136194171
1019.7856936921362 10945.651160295467
1020.6859004191447 10930.360089637867
1021.5858838160675 10901.338786280146
1022.4856439479063 10851.064275800556
1023.3851808796389 10752.395315601865
1024.2844946762143 10827.069187324969
1025.183585402554 10736.774352593002
1026.082453123554 10662.986881680776
1026.9810979040776 10671.585998602397
1027.8795198089647 10627.209826800949
1028.777718903024 10553.916185002723
1029.6756952510368 10576.928242396552
1030.5734489177648 10501.352522157871
1031.4709799679313 10552.95481655188
1032.3682884662358 10589.26431592007
1033.2653744773506 10436.026774098485
1034.1622380659192 10521.45954683945
1035.058879296559 10627.927663844293
1035.9552982338591 10487.446696943456
1036.8514949423825 10624.103868479857
1037.7474694866614 10628.969978167448
1038.6432219312028 10692.055110372208
1039.5387523404825 10863.987720644665
1040.4340607789582 10864.69374875593
1041.3291473110476 10890.741217562481
1042.2240120011465 10975.518636244004
1043.1186549136273 11198.955142294555
1044.0130761128294 11190.095652933738
1044.9072756630649 11238.11249137305
1045.8012536286205 11422.328452939906
1046.6950100737577 11432.15759558353
1047.588545062701 11639.011631237554
1048.481858659663 11701.166032901852
1049.3749509288118 11816.276742510958
1050.2678219343034 11696.571352825384
1051.1604717402515 11842.724651462257
1052.0529004107575 11708.290687842502
1052.9451080098825 11930.247587197086
1053.8370946016694 11893.105950140214
1054.7288602501267 11810.305778961361
1055.6204050192446 11742.427492542272
1056.511728972977 11766.441930439472
1057.402832175254 11545.714975507075
1058.2937146899785 11656.419554915034
1059.1843765810263 11530.592216689907
1060.0748179122456 11580.122234784543
1060.9650387474576 11570.25059889867
1061.855039150456 11556.689647485022
1062.7448191850071 11391.41030526471
1063.6343789148505 11401.413584633712
1064.5237184037014 11356.19603959711
1065.412837715241 11306.621270421409
1066.3017369131267 11082.838620701117
1067.190416060992 11068.181223871323
1068.0788752224398 10992.787720195196
1068.9671144610438 10978.502021348975
1069.8551338403558 10902.00266660289
1070.7429334239023 10931.445917094421
1071.6305132751695 10752.224580455671
1072.517873457633 10806.257948105802
1073.4050140347335 10712.269658400859
1074.2919350698776 10727.50157568756
1075.1786366264623 10710.579997311992
1076.0651187678395 10617.447329858309
1076.95138155735 10466.17190883523
1077.8374250582929 10576.801316982279
1078.7232493339507 10442.590102907654
1079.608854447577 10397.7430890504
1080.4942404623907 10296.302098151607
1081.3794074415982 10383.1363604455
1082.2643554483657 10410.358797433883
1083.149084545841 10238.385620186713
1084.033594797138 10194.173366525352
1084.9178862653516 10221.576961350189
1085.8019590135427 10292.047856362411
1086.6858131047484 10116.131505960117
1087.5694486019802 10146.400374523302
1088.4528655682225 10164.359832511334
1089.3360640664287 10058.46226410039
1090.2190441595321 10058.710634774952
1091.1018059104317 10027.739744493534
1091.98434938201 10218.51336329406
1092.866674637111 10186.754450222039
1093.748781738559 9997.493566967925
1094.6306707491512 9950.973315282183
1095.5123417316554 10007.372047657851
1096.3937947488157 9916.377708698998
1097.2750298633455 9976.087488918138
1098.156047137938 9836.107871645814
1099.0368466352556 9983.609922196321
1099.9174284179317 9944.143888987
1100.7977925485757 9880.822371407197
1101.6779390897755 9887.090999768054
1102.5578681040806 9983.714240981531
1103.4375796540226 9998.838195042434
1104.3170738021054 9845.607517742528
1105.1963506108077 9887.836435575966
1106.0754101425773 9926.432230380307
1106.9542524598382 9943.416917964341
1107.8328776249855 9893.89285980584
1108.7112857003904 9975.717598078572
1109.5894767483987 10050.919736489357
1110.4674508313292 9922.24965699181
1111.3452080114657 10054.881315489753
1112.2227483510815 10007.662049179546
1113.1000719124077 10208.18034807509
1113.9771787576592 10159.631453317465
1114.854068949022 10248.269132059882
1115.7307425486542 10295.252668029467
1116.6071996186893 10320.615016144073
1117.483440221229 10595.595609444006
1118.3594644183577 10523.563135243518
1119.235272272128 10531.881773055535
1120.1108638445658 10703.55788282259
1120.9862391976712 10853.297741219594
1121.8613983934229 10926.258391815423
1122.7363414937627 10921.66365230649
1123.6110685606182 11131.417255569524
1124.485579655884 11149.528357648825
1125.359874841426 11313.354156128891
1126.2339541790916 11417.416731683827
1127.1078177306936 11552.387577739653
1127.9814655580267 11535.464831104415
1128.854897722851 11688.561865710019
1129.7281142869106 11648.347276480934
1130.6011153119125 11843.000347980207
1131.473900859548 11822.640936517724
1132.3464709914697 11791.161959568615
1133.2188257693178 11736.62711350744
1134.0909652546961 11660.414583987815
1134.96288950919 11586.307988789806
1135.8345985943506 11736.287121619587
1136.7060925717087 11467.89124884921
1137.57737150277 11495.156999741384
1138.4484354490069 11402.121094567314
1139.3192844718778 11198.7524605611
1140.1899186327992 11071.868718953217
1141.060337993178 11152.782233507882
1141.930542614382 10942.298135199544
1142.8005325577597 10840.564763114291
1143.670307884635 10587.25761563136
1144.5398686563003 10663.987391544755
1145.409214934025 10563.809541515453
1146.2783467790541 10369.036592655448
1147.1472642526023 10293.884000254764
1148.0159674158622 10356.03821506604
1148.8844563300026 10050.717120541898
1149.7527310561618 10093.410522047903
1150.6207916554504 10018.321459350376
1151.4886381889592 9843.344259721373
1152.3562707177498 9797.536156174978
1153.2236893028585 9899.902071721885
1154.090894005296 9827.466455012658
1154.9578848860474 9850.933945867457
1155.8246620060709 9738.223047471543
1156.6912254262988 9669.059261606326
1157.5575752076438 9558.995215912048
1158.42371141098 9660.862643583605
1159.2896340971656 9615.380491972326
1160.1553433270346 9606.05922405094
1161.0208391613887 9559.68886941755
1161.8861216610057 9555.65686795269
1162.75119088664 9509.098352439709
1163.6160468990201 9515.613385196248
1164.4806897588442 9395.616610375986
1165.3451195267917 9494.531189935098
1166.2093362635114 9506.865908219124
1167.0733400296285 9553.565694014143
1167.9371308857444 9441.745804167436
1168.8007088924278 9515.467740286735
1169.6640741102328 9412.062945341968
1170.5272265996773 9372.141034479948
1171.390166421259 9476.949009405456
1172.252893635452 9431.229637366516
1173.1154083026995 9435.589447927447
1173.977710483421 9491.26039313006
1174.8398002380145 9351.344895134804
1175.7016776268483 9507.292095712926
1176.563342710264 9464.859780113004
1177.4247955485826 9506.765168133772
1178.2860362020947 9503.220077841122
1179.147064731069 9480.329986504843
1180.0078811957483 9533.954539573
1180.8684856563486 9410.077444069828
1181.7288781730604 9440.261624021728
1182.589058806052 9663.43954894591
1183.4490276154593 9649.967254978863
1184.3087846614017 9489.342830319052
1185.1683300039676 9534.42860580871
1186.027663703222 9784.845094906645
1186.8867858192025 9636.592101080154
1187.7456964119228 9751.653972365708
1188.6043955413716 9719.023367495789
1189.4628832675116 9867.87087177622
1190.3211596502842 9883.183525746912
1191.179224749596 9836.409170720883
1192.0370786253388 9768.080115591663
1192.8947213373758 10168.62557894302
1193.7521529455407 10106.134990978328
1194.6093735096438 10010.44930783259
1195.466383089477 10056.145475183821
1196.3231817447977 10084.721311034018
1197.1797695353398 10220.99077741009
1198.0361465208189 10183.159636556848
1198.8923127609214 10156.756156456124
1199.7482683153048 10334.968714107894
1200.6040132436028 10290.36137695743
1201.459547605431 10328.941154611512
1202.3148714603722 10197.24089100368
1203.1699848679855 10158.063908285527
1204.0248878878065 10334.152471776117
1204.8795805793507 10211.457792197438
1205.7340630020935 10155.86251247372
1206.5883352155033 10270.827074946546
1207.4423972790064 10190.903463675008
1208.2962492520237 10038.255474960359
1209.1498911939307 10039.870848552575
1210.0033231640937 10093.959202290771
1210.8565452218427 9974.674203246568
1211.7095574264913 9781.798991776766
1212.5623598373222 9786.255017695154
1213.4149525135963 9737.793598470227
1214.2673355145507 9729.355080507277
1215.1195088993936 9593.32535517667
1215.9714727273113 9658.717245307877
1216.8232270574663 9631.50856781584
1217.6747719489904 9435.072588493273
1218.5261074609934 9478.358789904403
1219.3772336525653 9426.108177287677
1220.2281505827668 9466.428143720856
1221.0788583106296 9370.439873671625
1221.9293568951707 9395.917824572072
1222.7796463953746 9210.287577924226
1223.629726870202 9336.33575642527
1224.4795983785934 9212.216526501488
1225.3292609794553 9294.880556394139
1226.1787147316809 9093.121409142466
1227.0279596941327 9167.783074115641
1227.8769959256424 9153.763816740586
1228.7258234850306 9256.594230106173
1229.5744424310833 9048.029754109684
1230.422852822563 9179.460749718575
1231.2710547182105 9295.783063057937
1232.119048176739 9097.443335575334
1232.9668332568417 9065.27248329843
1233.8144100171812 9182.697545318806
1234.6617785163999 9158.945757788217
1235.508938813111 9077.51180164395
1236.3558909659114 9081.492796976476
1237.2026350333617 9345.416677781694
1238.049171074008 9111.941501909227
1238.8954991463652 9102.962997390225
1239.741619308932 9110.418681864092
1240.587531620169 7942.787244115064
1241.4332361385277 9072.814971973692
1242.2787329224248 8955.523527404299
1243.1240220302534 8980.842389173098
1243.9691035203869 9005.951531408264
1244.813977451171 8953.012493021331
1245.6586438809263 9024.915884290878
1246.5031028679496 8781.419397859308
1247.3473544705157 8993.248539677787
1248.1913987468706 8997.030877296751
1249.0352357552383 8969.30488881185
1249.8788655538228 9011.931280100023
1250.7222882007918 9143.572815393101
1251.565503754302 8975.636504617409
1252.4085122724755 8882.38047945944
1253.2513138134182 9005.697623117843
1254.0939084352049 8982.751134079552
1254.9362961958905 8991.774683536534
1255.7784771535007 8982.877562852445
1256.6204513660432 8923.28247990236
1257.4622188915 9066.578690433082
1258.3037797878242 8960.930584256199
1259.1451341129468 8912.821597271868
1259.9862819247755 8901.762096086797
1260.8272232811978 8935.076546706605
1261.6679582400666 8910.553386247215
1262.5084868592203 8821.468195353147
1263.34880919647 8767.484930964769
1264.1889253095997 8971.026715723749
1265.0288352563712 8747.379603550375
1265.8685390945266 8789.230994662314
1266.7080368817751 8796.194384330938
1267.5473286758115 8790.523108714406
1268.386414534294 8840.939798110481
1269.2252945148703 8840.324696817634
1270.0639686751547 8638.542386800664
1270.9024370727402 8754.907336065773
1271.7406997651997 8636.506817270592
1272.5787568100714 8682.192018751473
1273.4166082648808 8629.0517858258
1274.2542541871244 8710.377453459418
1275.091694634275 8693.267918535345
1275.9289296637817 8552.599632081694
1276.7659593330663 8597.899958844999
1277.6027836995308 8606.004433696722
1278.4394028205552 8623.825003874112
1279.2758167534867 8598.717053434731
1280.112025555658 8545.229686008317
1280.9480292843746 8669.135058171509
1281.7838279969128 8389.538190847621
1282.6194217505326 8547.464659454356
1283.4548106024686 8402.023207171083
1284.289994609926 8535.945181211631
1285.1249738300921 8564.90767964222
1285.959748320127 8545.257999084915
1286.7943181371702 8510.575111059155
1287.6286833383328 8560.535648626936
1288.4628439807038 8558.76838146155
1289.2968001213521 8459.979344073847
1290.1305518173194 8509.01498651029
1290.9640991256183 8633.615365116306
1291.7974421032523 8510.676948631204
1292.630580807183 8535.906182344037
1293.463515294361 8462.620353216224
1294.29624562171 8661.122489523812
1295.12877184613 8555.679289878904
1295.961094024493 8509.75098596688
1296.79321221365 8554.13772788938
1297.6251264704333 8782.0852814332
1298.4568368516466 8591.659974114104
1299.2883434140658 8565.910793649575
1300.1196462144526 8540.139206880347
1300.9507453095375 8623.096075865278
1301.7816407560313 8601.933007119223
1302.6123326106172 8673.28033162418
1303.4428209299622 8538.697520916185
1304.2731057707024 8822.402462473505
1305.1031871894502 8597.86205529164
1305.933065242798 8582.977177027638
1306.7627399873181 8582.416695909089
1307.5922114795467 8787.760261295169
1308.4214797760123 8610.845510672203
1309.2505449332057 8670.86977248518
1310.0794070076026 8664.08787946239
1310.9080660556538 8791.043275853663
1311.736522133786 8763.760808629077
1312.5647752983987 8761.33780910074
1313.3928256058734 8645.061096953918
1314.2206731125661 8747.969523105485
1315.048317874809 8800.599476124547
1315.8757599489109 8816.035856838245
1316.7029993911547 8876.915099389418
1317.5300362578055 8911.704103470704
1318.356870605101 8800.147299722887
1319.183502489257 8831.638708534261
1320.0099319664623 8917.48898354117
1320.836159092889 8822.450399343714
1321.66218392468 8891.207884735257
1322.4880065179532 8801.096113038255
1323.3136269288134 8777.064741017455
1324.1390452133292 8987.46102137068
1324.9642614275563 9048.313845350645
1325.7892756275214 8882.71096524087
1326.6140878692295 8789.04366713515
1327.4386982086617 8973.964403343805
1328.2631067017755 8791.304638470143
1329.0873134045069 8987.539735078364
1329.911318372764 8866.580984354789
1330.735121662441 8822.25095876507
1331.558723329399 8884.467987344395
1332.3821234294774 8833.70650926876
1333.2053220185007 8839.070002555307
1334.0283191522612 8761.754996934096
1334.851114886529 8779.32929547688
1335.6737092770582 8741.573284239746
1336.4961023795695 8808.274156676973
1337.3182942497697 8705.616917724288
1338.1402849433325 8816.623159958548
1338.962074515921 8667.982063322046
1339.7836630231632 8608.993730054844
1340.6050505206676 8760.502317060977
1341.426237064028 8733.21639953618
1342.2472227088037 8802.516193278603
1343.0680075105338 8483.690757944689
1343.888591524741 8690.506943293294
1344.7089748069138 8565.732616222758
1345.5291574125276 8643.869107059163
1346.3491393970307 8480.97159016754
1347.168920815846 8748.011891812721
1347.9885017243778 8614.443417929924
1348.8078821780036 8554.898291988062
1349.6270622320844 8433.241089135961
1350.4460419419447 8504.409864509853
1351.2648213629054 8431.314261994501
1352.0834005502438 8505.086707809232
1352.90177955923 8450.205054052065
1353.7199584451064 8562.94215360595
1354.5379372630887 8599.252145566496
1355.355716068374 8486.349683693043
1356.1732949161305 8483.96152826404
1356.9906738615155 8521.130995364252
1357.8078529596478 8506.242696098774
1358.6248322656375 8568.213516374757
1359.441611834567 8465.110046489337
1360.2581917214866 8559.117466349915
1361.0745719814367 8341.863334487552
1361.890752669433 8456.006114130072
1362.7067338404577 8427.352752549818
1363.5225155494845 8457.547246750504
1364.3380978514506 8493.346697306099
1365.1534808012839 8510.972791941887
1365.9686644538815 8239.468042430457
1366.783648864117 8599.113444447847
1367.5984340868417 8488.43250960443
1368.413020176893 8416.033186319484
1369.2274071890715 8266.237022187963
1370.0415951781652 8390.001801620236
1370.8555841989346 8433.29631408652
1371.6693743061223 8328.429402012895
1372.48296555444 8267.854841589025
1373.2963579985844 8431.755433851262
1374.1095516932255 8385.299209677909
1374.9225466930166 8298.793230955389
1375.7353430525782 8416.02476515637
1376.5479408265164 8406.451582544152
1377.36034006941 8337.669390308709
1378.1725408358216 8451.620357431011
1378.9845431802805 8179.706830853953
1379.796347157304 8518.962887788302
1380.6079528213813 8342.044391011299
1381.4193602269788 8276.306897592887
1382.230569428546 8320.33499453467
1383.0415804805016 8336.526453323675
1383.852393437246 8162.215486939315
1384.6630083531563 8388.768396459669
1385.4734252825892 8161.580661910273
1386.2836442798798 8267.841816515394
1387.0936653993322 8276.195550996481
1387.9034886952395 8270.413213131538
1388.713114221864 8197.135465066418
1389.5225420334482 8235.677261970071
1390.331772184214 8227.214918245405
1391.1408047283585 8155.003382244826
1391.9496397200564 8098.764370017636
1392.758277213461 8206.947512424349
1393.5667172627054 8188.2184406410115
1394.3749599218918 8094.24902608515
1395.1830052451114 8034.092374851285
1395.9908532864265 8165.641885130123
1396.7985040998774 8075.533943503398
1397.6059577394808 8066.484070408765
1398.4132142592352 8056.942639335718
1399.2202737131156 7977.211879191156
1400.027136155073 8073.74836265311
1400.8338016390353 8000.804035251947
1401.6402702189134 7905.190039842794
1402.446541948586 8148.2244125588695
1403.2526168819204 8011.415326865235
1404.058495072757 8005.561936457234
1404.8641765749107 7957.8222529648465
1405.6696614421799 7963.08531759765
1406.4749497283356 8021.769124251072
1407.280041487129 7732.935931673509
1408.084936772295 7714.668680733795
1408.8896356375335 7875.417248720167
1409.6941381365323 7814.234179591496
1410.498444322955 7714.07168645425
1411.3025542504402 7794.698573249359
1412.106467972606 7774.17438396521
1412.9101855430508 7695.051576158041
1413.7137070153458 7595.021474689564
1414.5170324430437 7592.193662698291
1415.320161879672 7714.822361396803
1416.1230953787435 7693.027393172002
1416.925832993742 7497.638092772939
1417.7283747781275 7367.290647477278
1418.5307207853439 7457.601581050197
1419.3328710688093 7462.233555936467
1420.134825681922 7352.376860116186
1420.9365846780584 7313.553977963083
1421.7381481105713 7381.559273215421
1422.539516032788 7395.739690202106
1423.3406884980232 7259.67029354415
1424.1416655595604 7145.811222351695
1424.942447270665 7222.879444235933
1425.7430336845828 7204.699396158874
1426.5434248545298 7185.221651969572
1427.3436208337116 7225.349957930329
1428.143621675301 7269.3491748356
1428.9434274324558 7243.911532694748
1429.7430381583108 7174.11839977755
1430.5424539059713 7149.696753573711
1431.3416747285337 7372.550806542163
1432.1407006790632 7212.872181495794
1432.9395318106053 7024.693072216392
1433.7381681761835 6992.7527328549495
1434.5366098288014 7157.5053674151595
1435.3348568214424 7102.622964173755
1436.1329092070573 7196.110496856227
1436.9307670385879 7143.039079278659
1437.7284303689503 7152.6970431001855
1438.5258992510335 7165.285680821451
1439.3231737377118 7183.238723706383
1440.1202538818306 7080.4630540458775
1440.9171397362225 7081.866339162724
1441.7138313536925 6963.915804515916
1442.5103287870243 6992.936217094786
1443.3066320889775 6887.902017987755
1444.1027413122956 7151.077800069378
1444.8986565096966 7038.214894153131
1445.694377733882 7041.0478406974025
1446.4899050375207 6866.407801373066
1447.2852384732687 7059.981064029196
1448.0803780937622 6927.926964186814
1448.8753239516063 6918.317449170262
1449.6700760993954 6800.264613964088
1450.464634589689 6990.953423151967
1451.2589994750397 7143.173965821251
1452.0531708079689 6946.107427712103
1452.8471486409799 6833.470639260212
1453.6409330265524 6976.36914095174
1454.4345240171442 6844.367509947981
1455.2279216651987 6938.227686899581
1456.0211260231263 6826.271555602689
1456.8141371433194 7182.670005089775
1457.6069550781594 6913.8636187672355
1458.3995798799897 6738.11532281228
1459.1920116011424 6675.90109330072
1459.98425029393 6743.097156342694
1460.7762960106338 6760.329905558477
1461.5681488035225 6674.5276710752105
1462.3598087248392 6711.8324960264745
1463.1512758268036 6860.3072027406015
1463.942550161617 6731.458702371555
1464.7336317814625 6699.794520795091
1465.524520738496 6743.374821800016
1466.3152170848552 6729.207826536824
1467.1057208726506 6710.316916258943
1467.8960321539817 6687.7802684703765
1468.6861509809169 6619.922558990433
1469.4760774055085 6658.221889438752
1470.265811479785 6539.217471328497
1471.055353255755 6539.340666950067
1471.844702785409 6537.528574061969
1472.6338601207044 6658.298063802814
1473.4228253135934 6643.234854230143
1474.2115984159936 6499.949709543887
1475.0001794798063 6472.684785124943
1475.7885685569145 6529.302659744309
1476.576765699172 6636.911495583625
1477.3647709584238 6614.697742386596
1478.1525843864802 6607.086850754384
1478.9402060351367 6544.963485944858
1479.7276359561693 6541.374833573414
1480.514874201328 6534.465892044024
1481.3019208223468 6419.743461971759
1482.0887758709323 6493.80796158509
1482.8754393987747 6696.730897305419
1483.6619114575406 6472.922952458287
1484.4481920988783 6441.344262541391
1485.2342813744108 6457.291464701171
1486.0201793357446 6612.072483498026
1486.8058860344572 6434.114024524943
1487.591401522117 6441.758635201484
1488.3767258502594 6447.766456566952
1489.1618590704056 6492.458402264319
1489.9468012340494 6447.515714809607
1490.7315523926754 6528.537399393458
1491.5161125977356 6579.2299429223685
1492.3004819006637 6591.1464395103
1493.084660352877 6410.475772827272
1493.8686480057622 6527.5804028839
1494.6524449106964 6700.8164028343135
1495.4360511190262 6642.010316497821
1496.219466682087 6646.4467843252005
1497.0026916511779 6536.1359774848315
1497.7857260775945 6562.020557467043
1498.5685700125996 6495.186689404308
1499.3512235074395 6470.2030331760825
1500.133686613337 6464.404452793296
1500.9159593814966 6605.556785888912
1501.698041863101 6658.919994806235
1502.4799341093094 6590.241992273081
1503.2616361712662 6412.50032795083
1504.043148100087 6509.573343206485
1504.8244699468742 6572.3013773399925
1505.6056017626997 6462.756354804659
1506.3865435986281 6598.659874590669
1507.1672955056893 6513.107768697512
1507.9478575348967 6486.7179065260425
1508.7282297372512 6700.886477791268
1509.5084121637192 6417.212508922172
1510.2884048652577 6579.05645177713
1511.0682078927948 6524.724752679552
1511.8478212972423 6576.3893236338245
1512.6272451294917 6436.720005768436
1513.4064794404076 6541.616774360805
1514.1855242808433 6531.203790499553
1514.9643797016215 6473.00602211516
1515.743045753552 6431.097707877193
1516.5215224874191 6476.29777324437
1517.2998099539836 6427.48287235245
1518.077908203999 6342.539405211377
1518.8558172881785 6411.559569994182
1519.633537257234 6554.91138057372
1520.4110681618404 6292.392968517325
1521.1884100526604 6435.280337635441
1521.9655629803365 6356.636595221915
1522.7425269954856 6484.020059878466
1523.5193021487103 6600.504726951088
1524.2958884905856 6334.746979653957
1525.0722860716687 6492.732429716766
1525.848494942502 6531.810688336116
1526.624515153595 6494.689672930886
1527.4003467554485 6518.8937932703975
1528.175989798534 6397.368132978652
1528.9514443333064 6603.559891608456
1529.726710410203 6622.164001911963
1530.5017880796331 6385.6721479675825
1531.276677391992 6379.313303964661
1532.0513783976457 6533.832032240611
1532.825891146953 6487.763595030391
1533.6002156902414 6498.327286756214
1534.3743520778207 6408.110138417061
1535.1483003599806 6589.261585740639
1535.9220605869923 6590.138612628014
1536.6956328091019 6604.924983655206
1537.4690170765407 6459.662908591085
1538.242213439511 6623.956823823586
1539.015221948208 6512.062767016544
1539.78804265279 6590.80422389427
1540.560675603405 6486.312846597467
1541.3331208501804 6604.114867506859
1542.1053784432224 6626.490323610005
1542.8774484326168 6618.016218634225
1543.649330868422 6628.591027565584
1544.4210258006842 6692.737201527608
1545.1925332794308 6584.863055895634
1545.9638533546604 6725.190728073816
1546.7349860763552 6628.674103286385
1547.5059314944829 6880.377045097632
1548.27668965898 6742.764689362468
1549.0472606197673 6702.877252513295
1549.817644426752 6486.630019720277
1550.5878411298072 6673.741658209192
1551.3578507787988 6707.024828460968
1552.1276734235635 6551.52360764662
1552.8973091139233 6724.483455367238
1553.6667578996767 6720.001220452844
1554.436019830604 6576.036692264521
1555.20509495646 6539.66238770961
1555.9739833269869 6599.643895103118
1556.7426849919011 6649.822551166483
1557.511200000903 6643.861170743699
1558.2795284036674 6741.985775669166
1559.0476702498509 6501.4729450120085
1559.8156255890954 6724.290026449463
1560.5833944710157 6850.511987590335
1561.3509769452048 6542.2972537051655
1562.1183730612447 6592.686433342448
1562.8855828686865 6723.9118593536305
1563.6526064170703 6607.540801685789
1564.4194437559127 6611.1905815442005
1565.1860949347047 6684.617144917705
1565.9525600029283 6747.353018742445
1566.7188390100328 6654.65302114104
1567.4849320054564 6697.162951390926
1568.250839038612 6593.886690953227
1569.0165601588997 6620.830692952453
1569.7820954156887 6617.871074942954
1570.5474448583373 6536.174223339833
1571.31260853618 6485.619833843144
1572.0775864985299 6490.246872427558
1572.8423787946813 6614.062907987733
1573.6069854739108 6634.665317487699
1574.371406585471 6488.170438266182
1575.1356421785986 6608.591129089883
1575.899692302506 6362.362526102002
1576.6635570063845 6544.4773483525805
1577.4272363394157 6458.193250996081
1578.190730350747 6523.824197130768
1578.9540390895163 6437.766551683563
1579.7171626048384 6384.422273667611
1580.480100945806 6369.483484924609
1581.2428541614918 6429.384807935125
1582.0054223009538 6348.2720377939795
1582.767805413223 6460.114829624592
1583.5300035473156 6437.457939769822
1584.292016752228 6547.611760554062
1585.0538450769309 6456.697805404984
1585.8154885703807 6438.215857745504
1586.5769472815136 6253.991128458189
1587.3382212592405 6449.150395247517
1588.099310552463 6439.414688591058
1588.8602152100484 6385.810887091451
1589.6209352808564 6438.563897503782
1590.3814708137234 6283.794233673439
1591.14182185746 6382.618742911587
1591.9019884608679 6336.77460381953
1592.6619706727215 6242.091582178161
1593.4217685417734 6489.1586492014085
1594.1813821167616 6474.085607790099
1594.9408114464022 6347.449007043289
1595.7000565793933 6404.127524153553
1596.459117564409 6516.366340806781
1597.2179944501113 6364.468900081094
1597.9766872851324 6328.9654040556825
1598.735196118092 6453.826546692025
1599.4935209975883 6352.069846402586
1600.2516619721973 6481.163596657479
1601.0096190904787 6306.2867004085065
1601.7673924009723 6391.508733400318
1602.524981952196 6379.827309042724
1603.2823877926476 6363.926675592669
1604.0396099708087 6360.310728547497
1604.7966485351371 6309.040482764522
1605.5535035340745 6323.370090966861
1606.3101750160404 6346.133167845377
1607.0666630294363 6388.114254072175
1607.822967622642 6365.870358744029
1608.5790888440224 6455.656228165976
1609.3350267419137 6445.643452604735
1610.0907813646445 6318.204712209434
1610.8463527605145 6320.071772494334
1611.601740977805 6411.328247702154
1612.356946064785 6276.803986507445
1613.1119680696902 6337.738785525453
1613.8668070407512 6300.284664411198
1614.6214630261748 6357.408918157214
1615.375936074137 6381.075917717522
1616.1302262328118 6215.547624397603
1616.8843335503425 6172.502895014174
1617.638258074854 6203.70264128137
1618.391999854457 6332.095535895214
1619.1455589372363 6362.5973979739965
1619.8989353712623 6306.126711531583
1620.65212920458 6285.840605387395
1621.4051404852235 6119.140249274889
1622.1579692611976 6154.2600085584145
1622.9106155804966 6039.4690818685
1623.663079491087 6201.409153592298
1624.4153610409248 6170.442593349051
1625.1674602779385 6144.531863751047
1625.9193772500403 6109.497785456303
1626.6711120051277 6139.452797974054
1627.4226645910676 6130.094102411003
1628.174035055721 5988.523575581659
1628.9252234469168 6158.711624113388
1629.676229812474 5980.121466275079
1630.4270542001905 6250.565272020262
1631.1776966578382 6132.4637702028485
1631.9281572331747 6102.246321325061
1632.678435973945 6238.285189691922
1633.4285329278573 6191.10519886022
1634.1784481426203 6102.484643359073
1634.9281816659113 6114.571268192763
1635.677733545388 6217.9991486668805
1636.4271038286934 6109.347807520846
1637.176292563452 6209.634610809935
1637.9252997972635 6183.930417821141
1638.674125577716 6262.542485874738
1639.4227699523672 6312.294845361666
1640.171232968767 6110.243489078246
1640.9195146744423 6115.112682144876
1641.6676151168977 6367.83355916415
1642.4155343436178 6312.030779001905
1643.1632724020765 6200.522429608924
1643.9108293397167 6117.073842045838
1644.658205203974 6225.051361110972
1645.4054000422566 6584.118158485226
1646.1524139019566 6177.424715017445
1646.8992468304423 6275.0913431717445
1647.6458988750728 6261.601370414898
1648.3923700831765 6333.1646800643375
1649.1386605020743 6258.694945395173
1649.8847701790564 6299.3866633817515
1650.6306991614038 6381.520129116037
1651.3764474963682 6350.147332429651
1652.1220152311944 6119.743626473885
1652.867402413096 6497.36170696693
1653.6126090892776 6390.180271242012
1654.3576353069184 6290.6138190971415
1655.1024811131829 6359.267781073551
1655.8471465552066 6256.384622109474
1656.5916316801213 6412.76624794967
1657.3359365350298 6372.508040798421
1658.0800611670165 6350.77925684952
1658.824005623148 6271.411212484947
1659.5677699504722 6358.781689953798
1660.3113541960192 6302.87119372198
1661.054758406799 6287.54808267758
1661.7979826297997 6222.834274191141
1662.5410269119966 6151.389432301422
1663.283891300338 6064.6484289424825
1664.0265758417645 6218.677291959915
1664.7690805831826 6252.61177023379
1665.5114055714948 6041.572183172574
1666.2535508535748 6125.546761141611
1666.9955164762814 6010.842908120135
1667.7373024864555 6059.956539092537
1668.478908930916 6070.333205087112
1669.220335856462 6026.313263226246
1669.9615833098778 5947.111665597144
1670.7026513379296 5971.486405219007
1671.44353998736 6003.052481048302
1672.1842493048916 5874.695960847404
1672.9247793372379 5819.948764544583
1673.6651301310812 5854.075372404803
1674.4053017330934 5980.871946241906
1675.1452941899242 5818.943034723052
1675.885107548207 5558.890546619297
1676.6247418545518 5621.210619907135
1677.3641971555535 5688.488210205169
1678.1034734977893 5750.503719425402
1678.8425709278108 5858.870907883819
1679.5814894921605 5597.626521136416
1680.320229237359 5623.269832870791
1681.0587902098978 5797.615691747824
1681.7971724562685 5639.333245935356
1682.5353760229264 5492.249155140421
1683.2734009563173 5534.5665066266165
1684.0112473028657 5370.6213434472675
1684.7489151089794 5574.006229667994
1685.4864044210462 5620.334773245621
1686.2237152854377 5285.31916524367
1686.960847748498 5312.516379154411
1687.6978018565642 5306.739041898454
1688.434577655944 5272.948423736539
1689.1711751929379 5191.417658033727
1689.9075945138156 5321.805758298248
1690.6438356648396 5313.623749956825
1691.3798986922448 5059.468198198813
1692.1157836422499 5195.523275972404
1692.851490561059 5179.198014479778
1693.587019494853 5064.0243347269825
1694.3223704897991 5017.616339471157
1695.0575435920364 5000.742968976096
1695.792538847696 5018.645628129592
1696.527356302886 4925.3741419130765
1697.2619960036936 4855.343459127916
1697.9964579961907 4290.229597653741
1698.730742326432 4720.435952446913
1699.4648490404488 4785.899734392287
1700.1987781842563 4850.801790046908
1700.9325298038548 4926.87658597464
1701.6661039452174 4846.208640383587
1702.3995006543082 4874.197793954279
1703.1327199770658 4928.118552739711
1703.865761959416 4754.570508885411
1704.598626647261 4817.790223489796
1705.3313140864866 4695.911072879063
1706.0638243229587 4591.675262629542
1706.7961574025303 4805.089943099519
1707.528313371029 4686.782573732614
1708.260292274268 4658.9238706863125
1708.9920941580403 4765.971623772851
1709.7237190681226 4713.079220835754
1710.4551670502697 4568.026705268566
1711.18643815022 4586.216591381162
1711.9175324136959 4745.852428526843
1712.6484498863938 4567.737519013652
1713.379190614005 4416.354477367279
1714.109754642188 4498.907568137193
1714.8401420165883 4506.9094061502665
1715.570352782839 4892.199018735715
1716.3003869865497 4506.630903272797
1717.0302446733076 4417.651181133913
1717.7599258886876 4438.794885620365
1718.4894306782444 4602.40935661018
1719.2187590875183 4310.632783528285
1719.9479111620203 4623.017061330747
1720.6768869472544 4423.44966192071
1721.4056864887025 4615.93105623611
1722.1343098318284 4507.512789674189
1722.8627570220742 4437.178968672792
1723.591028104871 4465.7706228536545
1724.3191231256242 4305.684730445702
1725.0470421297232 4449.622366090081
1725.7747851625427 4364.708256232681
1726.5023522694337 4413.344954063183
1727.2297434957363 4420.289493549126
1727.9569588867635 4173.781560863562
1728.6839984878152 4380.969447161533
1729.4108623441734 4241.504870683394
1730.1375505011038 4434.4735471705035
1730.8640630038426 4273.186365812866
1731.5903998976264 4189.376572824314
1732.316561227657 4250.53732899355
1733.0425470391274 4115.946080239245
1733.7683573772065 4359.904094868307
1734.4939922870508 4197.266944253877
1735.2194518137949 4276.756701195916
1735.9447360025606 4280.047246713043
1736.669844898439 4267.019562766586
1737.3947785465189 4213.194152873269
1738.1195369918605 4145.912821916948
1738.8441202795093 4370.911287024654
1739.5685284544943 4315.203017165084
1740.292761561821 4305.070529949478
1741.0168196464838 4167.58496834244
1741.7407027534518 4268.937485721868
1742.464410927687 4185.640286755748
1743.187944214118 4225.121921422842
1743.9113026576688 4274.861894413168
1744.634486303241 4202.011297147158
1745.3574951957125 4358.504803576716
1746.0803293799509 4240.773312052366
1746.8029889008048 4252.484283187337
1747.5254738031017 4238.158537173673
1748.2477841316504 4020.079950132336
1748.969919931249 4212.668834869334
1749.6918812466665 4144.956016550067
1750.4136681226646 4139.841519246662
1751.1352806039777 4178.174254472277
1751.856718735331 4035.9301011840157
1752.5779825614281 4079.169540453521
1753.2990721269507 4234.623097933521
1754.0199874765676 4096.981767987526
1754.7407286549314 4018.18969416021
1755.4612957066693 4002.9842610686014
1756.1816886763954 4120.934794334095
1756.9019076087097 4018.9905767114287
1757.6219525481865 4143.25581470816
1758.3418235393856 3993.2492544100955
1759.061520626854 4088.6150794302825
1759.7810438551096 4259.022573462845
1760.5003932686614 4052.426213951728
1761.2195689119999 4219.73682157226
1761.938570829594 4129.2162378535695
1762.657399065898 4120.491468936177
1763.376053665348 3975.3553080980355
1764.0945346723602 4048.876849020095
1764.812842131334 4212.497268037575
1765.5309760866512 3975.118153215341
1766.2489365826787 3953.4892362296027
1766.9667236637597 3977.7626156241504
1767.684337374223 3958.040520679492
1768.401777758383 4018.2681950574524
1769.1190448605284 4063.742588922996
1769.836138724937 3979.5304558163166
1770.5530593958665 4141.064992978702
1771.2698069175603 4155.293692540031
1771.9863813342326 4195.707884782249
1772.702782690094 3924.0964857419494
1773.4190110293293 4069.023921199815
1774.1350663961111 4044.069578055588
1774.8509488345844 4024.2979928216205
1775.5666583888924 4030.537794223561
1776.2821951031437 3991.0327584981314
1776.9975590214362 3977.77121647759
1777.7127501878585 4123.771450006123
1778.4277686464684 3959.439403306955
1779.1426144413108 4087.593619844299
1779.8572876164162 3996.4512642217437
1780.571788215797 3870.0739778263573
1781.2861162834415 4075.5206560009437
1782.0002718633277 3953.2895780575163
1782.7142549994132 4100.533170702736
1783.4280657356376 4051.263573276635
1784.141704115922 3987.1331983045516
1784.855170184177 3936.3341176162044
1785.5684639842839 3849.6445438126393
1786.2815855601148 3772.369719981576
1786.9945349555237 3986.2370602501906
1787.707312214343 4002.180557896475
1788.4199173803918 4123.768310314328
1789.132350497468 3911.7456108616316
1789.8446116093583 3912.3940819858203
1790.556700759822 3832.8606346525667
1791.2686179926077 3988.4667316807254
1791.9803633514493 3914.7713720225825
1792.6919368800554 3893.8728150926645
1793.4033386221236 4018.986964130809
1794.1145686213295 3923.602930590295
1794.8256269213307 3998.9412267459934
1795.536513565774 3998.223067245441
1796.247228598284 3767.102807108894
1796.9577720624693 3742.2899525358057
1797.6681440019165 3957.2734997679754
1798.3783444602013 3936.5443090695962
1799.0883734808776 4034.1474064518598
1799.7982311074884 3868.051624171484
1800.5079173835475 3903.4611258341574
1801.2174323525633 3831.400018827096
1801.9267760580187 3963.823130917632
1802.635948543386 3878.070283130192
1803.3449498521113 3721.783363751997
1804.0537800276325 3854.000222703652
1804.7624391133668 3928.409682492281
1805.47092715271 3705.5296124006127
1806.1792441890484 3870.4325426817572
1806.8873902657433 3823.2850348616457
1807.5953654261448 3910.655038992571
1808.3031697135812 3799.653358781962
1809.0108031713662 3774.9420312487805
1809.71826584279 3796.7002718934004
1810.425557771141 3834.164118907515
1811.1326789996747 3905.621273123152
1811.839629571632 3780.2536806248063
1812.5464095302468 3839.669422124282
1813.2530189187182 3828.0637900729307
1813.959457780249 3792.970290812722
1814.6657261580076 3898.070182810114
1815.371824095153 3782.763794062065
1816.0777516348262 3939.8635535504086
1816.78350882015 3534.5581339536475
1817.4890956942272 3553.0784925171674
1818.1945123001533 3796.8640740446745
1818.8997586809928 3780.5599578439783
1819.6048348798067 3727.3832529021943
1820.3097409396287 3781.3824442296673
1821.0144769034796 4038.277658218411
1821.7190428143622 3789.217596124889
1822.423438715261 3755.466047794166
1823.1276646491478 3717.276131229484
1823.8317206589727 3768.7582860824937
1824.5356067876692 3719.3013242602087
1825.2393230781581 3529.383532209214
1825.942869573335 3682.285304393904
1826.646246316086 3649.447037901436
1827.3494533492758 3777.242634946882
1828.052490715756 3838.712975502538
1828.7553584583547 3774.1021994034613
1829.458056619891 3813.9243890196253
1830.1605852431585 3646.8077025213743
1830.8629443709433 3601.850245851399
1831.5651340460063 3701.953969499519
1832.2671543110919 3522.4892400878753
1832.9690052089318 3830.5525342382252
1833.6706867822395 3590.700517810093
1834.3721990737104 3786.6554141923707
1835.0735421260233 3859.157286622798
1835.774715981841 3676.9363992735753
1836.4757206838058 3791.624632393945
1837.1765562745459 3810.072184918475
1837.8772227966747 3589.1650282955075
1838.5777202927839 3764.4913442143893
1839.2780488054523 3640.127312643908
1839.9782083772352 3711.6898987521536
1840.6781990506806 3818.0358802464298
1841.378020868313 3699.121124584951
1842.0776738726418 3697.699721808121
1842.777158106157 3738.9945804214703
1843.4764736113375 3618.816975538385
1844.1756204306403 3714.791485330902
1844.8745986065078 3480.983996127719
1845.5734081813607 3559.953434253727
1846.2720491976124 3648.8940385364376
1846.970521697649 3542.940945316911
1847.6688257238511 3737.3645377732064
1848.3669613185684 3703.9240157467893
1849.0649285241452 3481.472739742227
1849.7627273829057 3778.750825696373
1850.460357937156 3614.112130248658
1851.1578202291857 3501.0869080249745
1851.8551143012664 3650.610577676575
1852.5522401956569 3614.867564243249
1853.2491979545957 3709.90090575631
1853.9459876203055 3633.426516484201
1854.6426092349902 3529.0692495951334
1855.3390628408451 3587.165087440831
1856.0353484800362 3738.8570331268056
1856.7314661947203 3606.0918076816247
1857.4274160270397 3575.1958881492014
1858.123198019115 3575.4344298697033
1858.8188122130487 3563.556224948178
1859.5142586509319 3560.294803773972
1860.209537374838 3546.6004516615635
1860.9046484268183 3616.119091918845
1861.599591848917 3604.964260406864
1862.294367683151 3439.9811090461053
1862.988975971528 3553.7639064136865
1863.6834167560355 3504.9772222525075
1864.3776900786452 3703.348942795961
1865.0717959813119 3597.936554930891
1865.7657345059724 3394.7699801043555
1866.4595056945564 3633.75402098792
1867.1531095889586 3649.6893112006123
1867.846546231076 3409.7234942769064
1868.5398156627743 3605.9133302883156
1869.2329179259123 3524.1049788870796
1869.9258530623283 3506.112450702195
1870.618621113843 3491.5235591136634
1871.3112221222636 3419.75971640434
1872.0036561293764 3528.70230187433
1872.695923176956 3526.9823307270644
1873.3880233067594 3665.0835208998105
1874.0799565605212 3502.351951919809
1874.7717229799673 3558.784673636322
1875.4633226068036 3580.106671963753
1876.1547554827175 3541.5309964616777
1876.8460216493859 3385.46115054885
1877.5371211484617 3482.7873526601397
1878.2280540215852 3619.162726703877
1878.9188203103804 3228.1108869589625
1879.6094200564548 3554.882501153776
1880.299853301396 3412.218156961796
1880.9901200867826 3658.8013584855667
1881.6802204541673 3561.198813192539
1882.3701544450942 3503.3805712860244
1883.059922101087 3358.281347050676
1883.7495234636517 3582.201902777765
1884.4389585742792 3409.234293354001
1885.1282274744517 3424.887686036086
1885.8173302056166 3777.5803820425235
1886.506266809225 3431.240656151035
1887.195037326701 3405.0028181996095
1887.8836417994517 3387.723485671104
1888.5720802688702 3584.1895894965674
1889.260352776333 3580.5994730873417
1889.9484593632042 3632.6075701605178
1890.63640007082 3419.50981767592
1891.3241749405151 3269.811811489076
1892.0117840135954 3543.6015234587444
1892.6992273313572 3500.7395865682543
1893.3865049350788 3393.9433697853615
1894.0736168660223 3567.658924813453
1894.7605631654333 3485.7637438351726
1895.4473438745408 3437.826442633508
1896.133959034556 3674.615469316731
1896.820408686679 3389.057762099743
1897.506692872088 3601.4465047805124
1898.192811631945 3439.089870062734
1898.8787650073991 3522.4600200960326
1899.5645530395832 3581.6238634991287
1900.2501757696118 3532.4409918379083
1900.9356332385796 3335.7908892532323
1901.620925487574 3641.321899561213
1902.3060525576602 3493.0756548667878
1902.9910144898859 3435.6215924628823
1903.6758113252872 3394.6209868242163
1904.3604431048789 3552.0912686111706
1905.0449098696663 3386.5265558904284
1905.7292116606295 3300.890117236197
1906.4133485187394 3490.831981903034
1907.0973204849488 3213.981395279775
1907.7811276001976 3244.873275175813
1908.4647699053967 3311.446848241102
1909.1482474414588 2964.443413107068
1909.8315602492694 3233.4435389206233
1910.5147083696957 3364.9493268322963
1911.1976918436012 3373.2871008837087
1911.880510711815 3266.442967083815
1912.5631650151681 3436.4859529218097
1913.2456547944657 3422.372853515284
1913.927980090495 3387.9033010197845
1914.6101409440362 3372.768298922341
1915.2921373958416 3325.3208528297628
1915.9739694866603 3418.338220326104
1916.655637257214 3443.106424918397
1917.3371407482136 3473.487991193754
1918.0184800003572 3466.8353530445843
1918.6996550543154 3410.027980616897
1919.3806659507554 3326.093386941964
1920.0615127303208 3296.6370929033837
1920.7421954336423 3482.4441266054614
1921.4227141013343 3390.4860239447726
1922.103068773993 3371.8207645621924
1922.783259492202 3284.3415171748065
1923.4632862965227 3219.2188025379155
1924.1431492275078 3341.3747682978183
1924.8228483256917 3307.291725881917
1925.5023836315922 3196.845215747034
1926.1817551857057 3091.9626872717126
1926.8609630285227 3467.1797176628943
1927.5400072005123 3457.9782533090556
1928.218887742125 3230.9097395489125
1928.8976046938005 3224.6733100549827
1929.5761580959588 3417.422462192824
1930.2545479890086 3309.497326181367
1930.9327744133352 3111.2748206661495
1931.6108374093164 3281.4910707818904
1932.2887370173066 3521.820008306978
1932.9664732776473 3033.6225695373023
1933.6440462306673 3507.230790550663
1934.3214559166754 3289.8795414576466
1934.9987023759659 3534.6386336517826
1935.675785648813 3229.5427139433823
1936.3527057754836 3093.5246602467387
1937.029462796223 3494.474239252683
1937.70605675126 3203.6847365746926
1938.3824876808085 3195.80638413408
1939.058755625072 3174.647954273259
1939.7348606242267 3201.161322407296
1940.4108027184448 3340.388157966787
1941.0865819478713 3360.483656727623
1941.7621983526478 3294.5048750490123
1942.4376519728921 3107.662279753739
1943.1129428487038 3308.6752837131926
1943.7880710201734 3373.7545249060518
1944.4630365273733 3317.8010554833245
1945.1378394103576 3140.413690769055
1945.8124797091714 3330.386493565676
1946.4869574638324 3081.1072468172583
1947.161272714353 3190.146724582719
1947.8354255007234 3298.344796463756
1948.5094158629272 3217.2438531958933
1949.1832438409183 3200.7853903595123
1949.8569094746435 3476.7014146993015
1950.530412804037 3310.213608080562
1951.2037538690092 3316.075630856857
1951.8769327094578 3151.035751677765
1952.5499493652678 3142.06595580283
1953.222803876306 3338.1383414058755
1953.895496282421 3420.50226620342
1954.5680266234522 3291.4719588073654
1955.2403949392155 3319.9977306223527
1955.9126012695142 3095.888132260381
1956.5846456541403 3228.6085695972974
1957.2565281328643 3061.7763100717357
1957.9282487454457 3310.0829175525405
1958.5998075316202 3226.424359693161
1959.27120453112 3211.273431858125
1959.9424397836501 3364.6434380247106
1960.613513328908 3224.2700797599664
1961.2844252065697 3377.9151423448116
1961.9551754563017 3133.1517092961885
1962.6257641177453 3163.934622977817
1963.29619123054 3084.5053790298193
1963.966456834296 3148.4294884939036
1964.6365609686181 3053.8455757974866
1965.306503673086 3312.591916220938
1965.976284987275 3087.73459668711
1966.645904950734 3249.9894317772664
1967.315363603002 3101.605785275249
1967.9846609836077 3213.4381803231263
1968.6537971320486 3042.894955730891
1969.3227720878222 3237.44371781421
1969.9915858904042 3236.4881989449887
1970.660238579252 3368.983605485716
1971.3287301938108 3023.3718377756213
1971.997060773514 3159.3567629273116
1972.665230357772 3052.447225889121
1973.3332389859843 3072.498761543756
1974.0010866975335 3037.3555444137182
1974.6687735317864 3109.4320991084996
1975.3362995280932 3254.1072606757098
1976.003664725793 3061.052098880445
1976.6708691642052 2985.809404975372
1977.3379128826364 3047.5364779182264
1978.004795920373 3205.721952213921
1978.6715183166925 3293.232481194703
1979.3380801108524 2990.087468088243
1980.0044813420973 3103.584283949487
1980.6707220496555 3059.709271261735
1981.3368022727373 3194.7889916700597
1982.0027220505417 3116.4296689329635
1982.66848142225 2815.068798906791
1983.3340804270283 3029.0758751763124
1983.999519104027 3142.3728411203656
1984.6647974923835 3216.8028901426833
1985.329915631215 3099.4938519847387
1985.99487355963 3086.424149360802
1986.6596713167146 3156.724597034967
1987.3243089415428 3023.546475589503
1987.9887864731754 3311.459855252594
1988.6531039506553 2946.991923062235
1989.3172614130071 3444.3462251741134
1989.9812588992481 2987.4562585487133
1990.645096448372 3042.718299861433
1991.3087740993633 3069.779020443858
1991.9722918911848 3046.255402769955
1992.635649862792 3145.4712190756636
1993.2988480531185 3026.6242801838666
1993.9618865010852 3249.163467634199
1994.6247652455968 3011.3848926990604
1995.287484325545 3045.2160557260586
1995.9500437798033 2845.7529243178556
1996.6124436472292 3042.063504644483
1997.2746839666706 3132.6051251955614
1997.936764776954 2908.1866469109714
1998.598686116895 3098.1670626756086
1999.2604480252903 3159.2700644681204
1999.9220505409212 3183.4195397171234
2000.5834937025593 2978.172084710727
2001.2447775489582 3030.6134154523766
2001.9059021188514 3039.6500186008807
2002.5668674509616 2839.137378128559
2003.2276735839987 3013.6433789691064
2003.8883205566508 3124.201800431725
2004.5488084075987 3077.756096613136
2005.2091371755014 3030.236775321414
2005.8693068990033 2881.3784246174037
2006.5293176167397 3117.736668166302
2007.1891693673224 3057.3077858261668
2007.848862189354 2800.951434117186
2008.5083961214223 2918.2141603582863
2009.1677712020955 2931.9662771086296
2009.8269874699254 2892.8502881648674
2010.4860449634598 3369.8090118654436
2011.1449437212177 2854.50555944277
2011.8036837817108 3067.5439291907596
2012.4622651834325 3043.726555589941
2013.1206879648653 3124.798464708566
2013.7789521644736 3218.792526561693
2014.4370578207036 2752.620009429763
2015.0950049719922 3028.5092693190845
2015.7527936567585 2975.0268449568166
2016.4104239134067 3018.4623129615316
2017.067895780323 3225.871520317636
2017.725209295886 2762.2056612140664
2018.3823644984514 3011.0438031809717
2019.0393614263648 2997.091035146529
2019.6962001179545 3001.1423485668
2020.3528806115355 3152.17112964828
2021.0094029454067 3023.141703556198
2021.6657671578487 2966.431926443068
2022.321973287133 2921.4290159252714
2022.9780213715148 3098.1293126564724
2023.6339114492293 2847.5445030069327
2024.2896435585026 3069.0632767579223
2024.9452177375442 2976.1554546036914
2025.600634024544 3056.6126439675554
2026.2558924576842 3056.429375726592
2026.9109930751292 3232.587957492139
2027.565935915025 2972.7083687877307
2028.2207210155066 3083.0801884017924
2028.8753484146964 3200.273004220833
2029.529818150695 2778.6930505108203
2030.1841302615903 3063.4270708722897
2030.8382847854573 2942.4321958861847
2031.4922817603601 3032.9831431632583
2032.1461212243357 2929.551869989079
2032.7998032154192 2816.7218308086494
2033.4533277716218 2955.7639276581817
2034.1066949309443 2800.2921915278157
2034.7599047313688 2838.932936050561
2035.4129572108704 3186.7046082564657
2036.0658524074006 3007.388457894251
2036.7185903589016 3129.8264872010045
2037.3711711032956 3069.4917403659956
2038.023594678496 3026.9544363662535
2038.675861122394 2861.9688953058726
2039.3279704728757 3035.4742462348527
2039.9799227678031 2844.1265298388475
2040.6317180450278 2883.180756724312
2041.2833563423865 2916.869848266486
2041.9348376977014 3121.8501686964055
2042.5861621487784 3026.6333287602947
2043.2373297334088 3107.076323712776
2043.8883404893695 2965.389493817893
2044.5391944544208 3037.5628577317743
2045.1898916663158 3090.560087632065
2045.8404321627804 3015.812293870469
2046.4908159815368 2955.235158047794
2047.1410431602853 2633.323246604182
2047.7911137367173 2805.152937370366
2048.441027748504 2965.804044046413
2049.090785233302 2995.232969954248
2049.7403862287592 2796.7769832920267
2050.389830772503 3010.2909627379677
2051.0391189021466 2858.9535908082808
2051.688250655294 2864.9773931145546
2052.337226069527 2812.7070777542394
2052.986045182417 2981.2009376127908
2053.634708031521 2784.1030436834344
2054.283214654375 3027.6658705931445
2054.931565088511 2501.124888263512
2055.579759371436 2925.6664601715183
2056.2277975406523 2889.6512291801964
2056.8756796336384 2983.392275906657
2057.5234056878617 2558.534341925491
2058.1709757407752 2986.597206560072
2058.8183898298194 2963.7887182629047
2059.465647992416 2916.8448913368443
2060.1127502659747 2959.172055084274
2060.759696687888 2893.755150265829
2061.4064872955405 2951.880886268712
2062.053122126292 3117.8182805540528
2062.699601217497 2544.824245143599
2063.345924606485 2911.819494510046
2063.992092330587 2926.4113701426586
2064.638104427102 2794.747002775078
2065.283960933324 3051.32146694394
2065.92966188653 2829.9897644717594
2066.5752073239855 2982.3237174418564
2067.2205972829397 2925.646608638384
2067.86583180062 2848.4690227844667
2068.5109109142522 2916.890841521042
2069.15583466104 2896.6182932060597
2069.8006030781708 2876.3298279863457
2070.445216202821 2719.286644267386
2071.089674072153 2916.576732370515
2071.7339767233116 3078.6957174423096
2072.3781241934303 2871.330844128604
2073.0221165196253 2922.9432037952292
2073.6659537390024 2954.151922363803
2074.3096358886505 2897.5198018544306
2074.953163005637 2916.4000436504857
2075.596535127028 2628.762850707619
2076.2397522898664 2807.894176194229
2076.882814531182 2809.703582469937
2077.5257218879924 2914.6755879057537
2078.1684743973 2854.5876915992944
2078.8110720960885 2709.448105269999
2079.453515021336 3117.611536660082
2080.095803209997 2930.9422720239227
2080.7379366990135 2868.1356378037376
2081.37991552532 3038.6963952292913
2082.0217397258275 2766.309776060232
2082.6634093374414 2763.122440547682
2083.3049243970418 2749.67603880739
2083.9462849415067 2807.873620159576
2084.587491007689 2922.898116152584
2085.2285426324324 2872.068630490956
2085.869439852564 2918.3816899703625
2086.510182704902 2628.326953153071
2087.1507712262483 2718.591962722229
2087.791205453381 2644.456037202609
2088.4314854230743 2829.851554108039
2089.0716111720867 2914.5582297045066
2089.7115827371617 2617.343935495717
2090.351400155023 3052.0016863986775
2090.991063462385 2745.3216867413485
2091.6305726959527 2708.397202341892
2092.2699278924047 2820.7482400774816
2092.9091290884153 2779.400472263353
2093.548176320641 2611.855963173627
2094.187069625721 2979.615599845906
2094.8258090402887 2656.2264109427097
2095.464394600951 2868.9549432248773
2096.102826344313 2872.1195262008528
2096.741104306955 3076.184203938189
2097.379228525453 2747.9755861043027
2098.017199036358 2668.620244941782
2098.6550158762147 3053.436516662715
2099.2926790815527 2826.693484351127
2099.9301886888825 2884.075412912196
2100.5675447347076 2828.0263074474615
2101.2047472555114 2840.4937532272766
2101.841796287761 2687.0999744059536
2102.47869186792 2698.2749452440976
2103.1154340324265 2741.5662887990015
2103.752022817709 2796.860218214928
2104.388458260184 2680.9205301180673
2105.024740396251 2635.0477800535837
2105.660869262292 2757.286414525923
2106.296844894685 2835.6671629063158
2106.93266732978 2898.756143453117
2107.5683366039284 2677.1935926735905
2108.2038527534532 2911.752490203743
2108.8392158146726 2821.775656937873
2109.4744258238843 2810.920421228716
2110.1094828173755 2714.6676546111553
2110.744386831422 2849.4770699342253
2111.3791379022787 2852.015533984072
2112.01373606619 2924.6341112090786
2112.648181359389 2741.0639511694876
2113.28247381809 2794.284716094172
2113.916613478492 2886.334408790096
2114.550600376786 2969.969435370988
2115.1844345491445 2782.626648874999
2115.818116031729 2696.8898701867065
2116.451644860679 2777.660319377401
2117.085021072133 2471.9868220583303
2117.718244702204 2635.3975301655955
2118.3513157869984 2645.0845316961627
2118.984234362604 2615.548140698831
2119.617000465092 2719.2087558932703
2120.249614130529 2809.5037135272223
2120.8820753949585 2920.77646187348
2121.5143842944162 2746.591566097294
2122.14654086492 2751.4948705323927
2122.7785451424734 2913.9413471947673
2123.4103971630702 2575.226044966249
2124.042096962681 2723.677733280447
2124.6736445772767 2766.7042055115676
2125.305040042802 2682.8008306738834
2125.936283395191 2597.4260194097483
2126.567374670365 2703.5915591441144
2127.198313904233 2767.6330514592064
2127.8291011326855 2914.6417722650735
2128.4597363916037 2687.7123254753715
2129.0902197168507 2634.1160863094715
2129.720551144279 2750.64782437516
2130.3507307097225 2816.0959601224963
2130.980758449008 2867.740835698616
2131.6106343979427 2588.9296081917423
2132.2403585923203 2952.0467553791555
2132.8699310679276 2781.307771294999
2133.499351860526 2857.5668580688553
2134.1286210058715 2506.6897703305017
2134.7577385397053 2517.97601594852
2135.3867044977487 2972.0715299366752
2136.0155189157176 2962.65779442626
2136.644181829308 2805.672296526943
2137.2726932742025 2698.755398873081
2137.901053286074 2791.217910410386
2138.5292619005777 2590.2462288577217
2139.1573191533535 2696.789107770752
2139.7852250800315 2768.375879959458
2140.4129797162295 2538.095685086033
2141.0405830975433 2514.0235773429067
2141.6680352595613 3006.915844080248
2142.2953362378576 2579.423252895748
2142.9224860679915 2538.9808619871387
2143.549484785508 2608.489139515597
2144.1763324259373 2555.3301578277556
2144.803029024799 2609.6937056750144
2145.429574617594 2579.0601093524015
2146.0559692398165 2634.504539822813
2146.682212926942 2593.2871616079724
2147.308305714432 2692.888806741374
2147.9342476377333 2932.355443499328
2148.5600387322847 3024.418607051872
2149.185679033506 2783.047037551752
2149.8111685768017 2739.0329685101487
2150.4365073975678 2438.9037576264263
2151.061695531187 2765.1766197905217
2151.686733013021 2891.7515324017286
2152.311619878423 2723.373959150222
2152.9363561627342 2517.560237773733
2153.560941901278 2576.475463690797
2154.1853771293663 2627.582552374116
2154.809661882293 2664.341393836021
2155.433796195348 3033.470640651335
2156.0577801037944 2531.335228944014
2156.681613642895 2616.0211779106385
2157.3052968478896 2328.9061353120183
2157.928829754006 2704.1825622788765
2158.552212396462 2582.981525325794
2159.1754448104566 2586.774711690373
2159.7985270311783 2601.1336177062867
2160.4214590938027 2288.2716384977984
2161.0442410334927 2279.715105158627
2161.6668728853874 2596.7856308131086
2162.289354684628 2565.513047622111
2162.911686466332 2622.1986116731664
2163.533868265602 2801.964585232272
2164.1559001175337 2742.1627299530073
2164.7777820572046 2909.148114736298
2165.399514119681 2486.924540860133
2166.021096340013 2401.8050423005293
2166.6425287532384 2730.0733210644926
2167.263811394385 2571.0385433137285
2167.8849442984574 2745.3849984947838
2168.505927500455 2490.067883356126
2169.126761035366 2475.964972570933
2169.7474449381552 2616.3034509810873
2170.367979243778 2411.675536641728
2170.9883639871823 2589.2866295945964
2171.608599203293 2458.9995356608697
2172.2286849270276 2892.092962591144
2172.8486211932886 2722.24074246886
2173.4684080369625 2789.010330010865
2174.0880454929265 2357.1607584193953
2174.7075335960417 2371.9835392106447
2175.3268723811543 2706.909988532904
2175.9460618831 2343.512337843714
2176.565102136701 2540.119715634557
2177.1839931767627 2884.6718562429996
2177.802735038078 2609.3174921545387
2178.421327755432 2486.3165320059848
2179.0397713635866 2504.237912543557
2179.658065897298 2544.803214087188
2180.276211391305 2533.22832677114
2180.8942078803357 2680.7033382000527
2181.5120553991 2502.929842318338
2182.129753982299 2212.060784756636
2182.7473036646206 2458.8538280147086
2183.3647044807367 2741.2107397794452
2183.9819564653044 2371.7488007267707
2184.599059652968 2665.635984021136
2185.216014078367 2587.9985656369718
2185.832819776113 2339.9520995058333
2186.4494767808137 2705.008994993984
2187.065985127063 2513.009015718787
2187.682344849436 2470.756675835518
2188.298555982501 2654.6632830321773
2188.9146185608097 2556.4318275965416
2189.530532618901 2722.8339981086415
2190.1462981912937 2651.6306964539
2190.761915312507 2687.8720662996643
2191.377384017036 2367.5308482797045
2191.9927043393654 2496.4896069458373
2192.6078763139667 2264.2630088441247
2193.2228999753006 2745.866755038017
2193.837775357808 2494.3980211478315
2194.452502495922 2269.7869641129905
2195.0670814240602 2425.516914927568
2195.6815121766285 2264.7938360136823
2196.2957947880186 2327.467098198517
2196.9099292926057 2390.274980265894
2197.523915724758 2494.511913789123
2198.137754118825 2568.7561777401093
2198.7514445091456 2787.9902293597156
2199.3649869300443 2451.718923115929
2199.9783814158327 2735.0940033921406
2200.5916280008096 2795.1516714251866
2201.2047267192593 2611.6620109222426
2201.8176776054515 2429.132670479935
2202.430480693649 2340.587264281283
2203.0431360180955 2680.0592356755856
2203.6556436130195 2680.8022685982114
2204.268003512645 2327.5582694852105
2204.8802157511727 2584.8773603701484
2205.492280362796 2886.378964586148
2206.1041973816937 2638.618804069272
2206.715966842032 2590.6171070362893
2207.3275887779655 2585.8715959519795
2207.93906322363 2749.5692712028513
2208.550390213153 2607.835803090094
2209.1615697806465 2569.6133581870504
2209.7726019602105 2447.7220067366984
2210.3834867859277 2416.9614800479494
2210.9942242918787 2309.584387952656
2211.6048145121167 2591.7642223994403
2212.2152574806914 2722.8585193695285
2212.825553231638 2407.3241852333913
2213.435701798975 2797.5084594153177
2214.045703216707 2678.8859279306566
2214.655557518832 2271.517216811334
2215.2652647393297 2327.4184055318865
2215.874824912169 2048.8402944127765
2216.4842380713 2156.352914106468
2217.09350425067 2264.2885374785237
2217.7026234842033 2613.2884961860473
2218.311595805819 2645.099096669526
2218.9204212494133 2366.9980808352257
2219.52909984888 2585.553484349578
2220.137631638092 2299.238490007907
2220.7460166509154 2628.1508271311923
2221.354254921198 2434.229051773519
2221.9623464827764 2660.3885130045855
2222.5702913694713 2328.145793550696
2223.178089615096 2820.6201227328
2223.7857412534486 2493.672509041756
2224.39324631831 2167.5412709276634
2225.000604843457 2387.211846584717
2225.607816862641 2586.9631667699546
2226.214882409611 2548.599342847723
2226.8218015180973 2528.7928699047056
2227.4285742218217 2518.885706619876
2228.0352005544864 2398.8307680696635
2228.6416805497847 2195.996501963077
2229.248014241399 2601.32384482403
2229.8542016629945 2338.903125031722
2230.460242848223 2549.010383859666
2231.0661378307304 2727.509335132304
2231.671886644139 2265.9984198411667
2232.277489322065 2386.549632017582
2232.8829458981127 2031.9051126782183
2233.48825640587 2456.5349005319904
2234.0934208789095 2856.9873012233766
2234.6984393507955 2509.311650601761
2235.3033118550793 2601.4327456190763
2235.9080384252975 2520.188138917418
2236.5126190949723 2317.749459342492
2237.1170538976166 2268.4665124952335
2237.721342866729 2200.134276824044
2238.32548603579 2439.0042836606162
2238.9294834382763 2483.447222148567
2239.533335107646 2338.847232647698
2240.1370410773434 2296.675638822725
2240.740601380803 2183.9646642163416
2241.3440160514474 2572.0915909646933
2241.9472851226783 2772.6784142231663
2242.550408627896 2710.9618109025405
2243.1533866004793 2649.187009778747
2243.756219073799 2371.3932299091075
2244.3589060812064 2327.735743305552
2244.961447656049 2235.307703518389
2245.5638438316564 2578.798370311441
2246.166094641343 2488.030385785775
2246.7682001184166 2411.960567548858
2247.3701602961664 2359.4967302444193
2247.971975207871 2643.7653472828206
2248.5736448867974 2294.317819944622
2249.175169366197 2406.4669544961635
2249.7765486793123 2438.329857986778
2250.3777828593684 2551.984990717724
2250.9788719395783 2379.511385711791
2251.579815953146 2482.5478664509787
2252.1806149332606 2094.657139210389
2252.781268913097 2530.4529966769724
2253.381777925817 2258.565123066288
2253.9821420045737 2506.6060574359954
2254.5823611825035 2403.45856952462
2255.1824354927303 2689.4171419547392
2255.782364968365 2445.58161328591
2256.38214964251 2083.067987144262
2256.9817895482483 2240.620529104692
2257.5812847186553 2545.608776555705
2258.180635186791 2253.1960375203103
2258.779840985704 2357.35453414813
2259.37890214843 2214.929043504666
2259.97781870799 2512.14615494431
2260.5765906973957 2552.0955688828317
2261.175218149645 2365.7454043793364
2261.773701097718 2219.8055802659355
2262.3720395745895 2105.2997263001753
2262.970233613216 2125.178350937762
2263.568283246548 2364.5507840184973
2264.1661885075137 2292.055302808794
2264.763949429038 2392.2403915095506
2265.3615660440246 2346.8610186246087
2265.959038385374 2216.398359930778
2266.5563664859637 2491.5145442322673
2267.153550378669 2216.675759522792
2267.7505900963424 2311.374851816036
2268.3474856718312 2339.3763770033065
2268.9442371379664 2318.7922162975233
2269.5408445275643 2402.081557298746
2270.1373078734377 2410.745121430024
2270.7336272083758 2219.0488738076233
2271.32980256516 2397.4940991391895
2271.925833976562 2462.820260946223
2272.5217214753357 2546.6352856820145
2273.117465094223 2357.17218713942
2273.7130648659586 2056.6109733111125
2274.308520823257 2297.1559618696083
2274.903832998827 2468.844065549808
2275.4990014253563 2158.220881208337
2276.094026135528 2501.360860488858
2276.6889071620117 2288.92409931234
2277.2836445374614 2225.980564790559
2277.878238294519 2117.933356683749
2278.472688465812 2052.2034880050214
2279.066995083962 1986.3053242855744
2279.6611581815705 2392.539183569851
2280.255177791232 2296.553999235871
2280.8490539455233 2694.4622446200924
2281.442786677013 2578.613508686949
2282.0363760182554 2456.5103689115713
2282.6298220017943 2233.0990475346075
2283.223124660155 2413.2112398918575
2283.816284025859 2306.6258837912465
2284.4093001314086 2434.309705811601
2285.002173009292 2211.8702150110953
2285.5949026919952 2433.776339457288
2286.1874892119777 2376.994567754443
2286.7799326016993 2191.2408766788067
2287.3722328936 2100.8171582839327
2287.964390120109 1868.4743126846174
2288.556404313642 2485.8594641826826
2289.1482755066027 2295.699685305033
2289.7400037313873 2305.435482866794
2290.3315890203703 2144.662807213389
2290.9230314059205 2362.790423972272
2291.5143309203904 2110.19509065752
2292.1054875961236 2189.5796262649023
2292.6965014654506 2562.259579681614
2293.287372560684 2588.595454853123
2293.878100914131 2615.1221013887357
2294.468686558086 2163.540580854312
2295.059129524827 2253.41099639041
2295.649429846617 2515.434108061768
2296.239587555716 2108.44643035378
2296.8296026843636 2324.4105809014677
2297.419475264791 2620.5331428985555
2298.0092053292137 2212.038046187862
2298.598792909839 2373.8889634049447
2299.1882380388597 2101.911649480994
2299.777540748455 2520.0067369374124
2300.3667010707904 2351.664826593276
2300.9557190380256 2138.062639910825
2301.544594682302 2465.083906825129
2302.1333280357503 2060.0599052089146
2302.721919130485 2212.240717429496
2303.3103679986198 2459.5971272319957
2303.898674672242 2482.246235921634
2304.486839183437 2258.8392137176356
2305.0748615642697 2223.8966022736695
2305.6627418468015 2174.579348393995
2306.2504800630704 2133.381550717039
2306.8380762451143 2426.915790873916
2307.425530424949 2400.5641071282307
2308.012842634582 2374.1332405355533
2308.6000129060103 2323.2803434566513
2309.187041271214 2416.9081162447937
2309.773927762164 2235.916841786233
2310.3606724108213 2373.7292986417037
2310.9472752491274 2048.8985140877326
2311.5337363090184 2312.6153760530515
2312.120055622414 2318.76241338419
2312.706233221221 2380.5705594726105
2313.2922691373424 2059.0941651075723
2313.8781634026564 2429.099297743084
2314.463916049037 2249.729386095823
2315.049527108342 2022.2010577706048
2315.6349966124235 2421.378323749872
2316.2203245931123 2218.1509985879197
2316.8055110822315 2027.6007759174922
2317.3905561115935 1934.0525940836044
2317.9754597129977 2022.2097870310874
2318.560221918229 2299.3372043953095
2319.1448427590603 1892.5301428450216
2319.729322267256 1957.8403769104511
2320.313660474563 2141.3885659203124
2320.8978574127195 2353.8079248501676
2321.481913113452 2498.5975996489533
2322.0658276084705 2235.127733189537
2322.6496009294806 2226.5975893979917
2323.233233108165 1880.0816042279116
2323.8167241762058 2185.990114669731
2324.4000741652617 2061.4673232311898
2324.983283106987 2353.097705606655
2325.5663510330232 2355.9350855662533
2326.1492779749933 2257.4739854406603
2326.7320639645204 2439.992823428161
2327.3147090332004 2506.9747374480157
2327.897213212629 2573.787315638763
2328.4795765343843 2269.722116492185
2329.0617990300307 1980.4029567791088
2329.643880731124 1991.7951233029064
2330.22582166921 2003.3026546572462
2330.807621875816 2382.5020604468928
2331.3892813824623 1923.4239373835594
2331.9708002206517 2135.567075556203
2332.5521784218818 2023.87682159948
2333.133416017634 2277.57028533371
2333.7145130393765 2067.2421387595323
2334.295469518571 2427.250016057412
2334.876285486658 2313.9211444239368
2335.456960975076 1959.626016056618
2336.037496015242 2478.0656530147294
2336.6178906385667 2361.1139808886965
2337.198144876451 2343.3119219474333
2337.778258760278 2376.942318837283
2338.3582323214214 2374.5791736214815
2338.938065591243 2372.150915504099
2339.517758601087 2352.4301229393486
2340.0973113822965 2068.933687327389
2340.676723966193 2100.422084323397
2341.255996384094 2382.296730947681
2341.835128667295 2303.4835433126837
2342.4141208470883 2409.6367248246015
2342.992972954751 2219.8477892036603
2343.5716850215467 2088.597149419111
2344.1502570787306 1969.1700472900234
2344.7286891575386 2014.4356931989805
2345.3069812892045 2191.7810124311354
2345.885133504944 2217.8845203315773
2346.4631458359618 2120.240755820859
2347.04101831345 2055.436174176287
2347.6187509685915 2262.444003569559
2348.196343832553 2181.8209013336364
2348.7737969364935 2193.6196621037607
2349.351110311558 2088.452162848101
2349.9282839888765 2046.132237215207
2350.5053179995757 1725.751762842785
2351.0822123747585 2022.866280804244
2351.658967145526 2376.613475412977
2352.2355823429643 1910.5497259915276
2352.812057998144 2408.960974384515
2353.3883941421263 1914.1894920294446
2353.9645908059647 2257.287502175651
2354.540648020693 2092.461866482562
2355.116565817336 1962.5763581644005
2355.6923442269126 2351.0972093597625
2356.2679832804224 2279.502695147542
2356.8434830088518 1940.7222249057936
2357.41884344318 2112.631291172183
2357.994064614377 2183.8127612101744
