#exp_cfg={"servo_angle": 0.0, "laser_lim": 100.0, "servo_angle_to": 18.0, "laser_wup": 0.0, "bt_dev": "EnSpectr-25AE3", "laser_wdn_max": 0.0, "frames": 10.0, "servo_used": 0, "servo_calib_use": 0, "laser_wdn_min": 0.0, "servo_pix_from": 90.0, "cooler_tout": 300.0, "servo_angle_from": 0.0, "servo_calib": "[-1.9174921013161362e-09, 3.9322238269163779e-05, -0.27385609119055809, 653.59552119713567]", "laser_autoctl": 0, "servo_pix_to": 3682.0, "laser_pw": 100.0, "cooler_on": 0, "laser_volt": 4.0, "cooler_autoctl": 0, "cooler_curr": 70.0, "cooler_startup": 10.0, "laser_fixed_pw": 0, "gain": 1.3, "offset": 2.53059635486, "servo_calib_degree": 3.0, "laser_curr": 55.0, "shutter": 8200.0, "servo_calib_step": 1.0, "laser_fixed_curr": 0, "exp": 2000.0, "ccd_volt": 4.7, "bt_addr": "00:06:66:62:5A:E3", "servo_delay": 500.0, "laser_autooff": 1}
#proc_cfg={"flat_auto_wnd": 200.0, "flat_auto_fr": 200.0, "flat_auto_shift": 5.0, "yconv": 1, "flatten": 1, "flatten_strength": 100.0, "xfrom": 300.0, "auto_max_frame": 2000.0, "auto_signal": 48000.0, "flat_auto_tol": 0.1, "autoclip": 1, "xrel_range": 0.0, "flat_auto_to": 4000.0, "intensity_adj": 1.0, "xrel": 7852.0, "rmhot": 1, "flat_auto_slit": 4.999999999999997, "auto_ini_exp": 300.0, "auto_off": 0, "xto": 2860.0, "flat_auto_ref": "", "flat_auto_rank": 1, "autobackg": 0, "xrel_adj": 0.0, "auto_black_lvl": 1, "base_wnd": 100.0, "sub_baseline": 0, "xconv": 2, "auto_max_exp": 1000.0, "auto_total_exp": 10000.0, "auto_exp": 0, "rmripple": 0, "black_lvl": 8228.1125, "shutter_clip_adj": 0.0, "auto_bckg": 0, "flat_auto_thr": 0.9, "subbackg": 1}
316.8218498245369 18824.43818882916
317.89969571804795 18656.841891818287
318.977263876126 18518.258597337983
320.05455438786703 18413.64041078694
321.1315673423287 18213.040389937923
322.2083028285215 18230.12268450682
323.2847609354267 18035.489791491527
324.3609417519747 17977.089922845505
325.43684536705587 17907.51617221647
326.5124718695279 17689.479763310937
327.58782134820103 17632.985248327666
328.66289389184385 17573.46283049661
329.7376895891921 17429.187178806333
330.8122085289342 17332.04967994245
331.88645079971866 17356.7062721301
332.9604164901575 17110.392383275022
334.03410568881554 17034.775356901086
335.1075184842266 17094.401121041097
336.18065496487543 16813.303598116618
337.2535152192122 16822.39130319769
338.32609933564163 16784.5802117627
339.39840740253203 16612.205932695368
340.4704395082099 16490.492301400758
341.5421957409617 16471.063499817395
342.6136761890357 16547.93092012361
343.6848809406365 16304.185434845396
344.75581008392874 16287.808965442364
345.82646370703696 16100.635554798388
346.8968418980512 16128.903895490375
347.96694474501055 16221.68277750269
349.0367723359268 16199.278129012178
350.106324758759 16160.618325076945
351.1756021014353 16034.84246315781
352.2446044518383 16027.55000862054
353.31333189781435 16126.539021002673
354.38178452716966 16063.054488916396
355.449962427665 16060.062954323197
356.51786568702846 15914.657137389626
357.58549439294256 15998.53191304392
358.6528486330535 16123.718509833017
359.71992849496564 16061.813370355396
360.7867340662433 16087.687766091572
361.8532654344144 16075.045382270702
362.9195226869597 16073.860423638214
363.9855059113288 16073.203228394155
365.05121519492604 16015.680852896894
366.11665062511565 16066.474188312586
367.1818122892273 16100.969447031637
368.2467002745434 16172.296003396787
369.31131466831175 16171.039958444278
370.375655557742 16244.915442179228
371.4397230299983 16304.7539716248
372.5035171722102 16174.632962729718
373.5670380714637 16243.049479629659
374.6302858148101 16371.166857604005
375.6932604892554 16319.899374436776
376.7559621817709 16335.16764903684
377.81839097928605 16284.79887559679
378.8805469686886 16303.659658299779
379.94243023683157 16441.00572569739
381.0040408705263 16183.84091884946
382.0653789565458 16163.742084341447
383.1264445816196 16241.11494500968
384.1872378324406 16195.988720609073
385.2477587956637 16162.609117891192
386.3080075579037 16028.900839741511
387.3679842057336 15967.728285764413
388.4276888256918 16013.042211029218
389.48712150426945 15999.933257558447
390.54628232792857 15969.001610200718
391.6051713830857 15944.365891956182
392.66378875611736 15833.272086149023
393.7221345333637 15950.864106412899
394.7802088011249 15817.814579749387
395.838011645661 15791.961732350956
396.89554315319765 15663.372331559003
397.9528034099112 15605.193958057589
399.00979250194723 15522.289228370815
400.06651051541485 15431.230830198178
401.1229575363741 15475.524262452052
402.17913365085224 15355.68508414474
403.23503894483656 15392.071713079615
404.2906735042761 15324.77072990465
405.3460374150818 15218.011961916674
406.401130763119 15168.470229875598
407.455953634224 15185.245829354657
408.5105061141876 15038.378188187626
409.56478828876243 14963.593780717387
410.6188002436629 14873.580063388572
411.6725420645689 14820.817123234034
412.72601383711117 14885.07634795363
413.77921564689314 14853.100000132054
414.8321475794728 14745.174416727386
415.88480972036814 14599.456406506859
416.93720215506437 14688.535683400618
417.9893249690049 14639.487486994278
419.04117824759123 14524.38065766927
420.09276207619223 14525.764903233878
421.144076540133 14502.270281466239
422.1951217247042 14468.605808657343
423.24589771515275 14387.939529613268
424.2964045966928 14290.791204542435
425.34664245449494 14405.92037085976
426.3966113736933 14307.771840176338
427.4463114393875 14193.617607477267
428.49574273662984 14157.77912652735
429.5449053504417 14041.873417962042
430.5937993658026 14124.261700764077
431.6424248676558 14019.51596012954
432.6907819409007 14055.172003380929
433.73887067040596 14018.888462375751
434.7866911409965 13958.835808185835
435.8342434374608 13964.5928089386
436.88152764455117 13838.313596918311
437.9285438469724 13850.240021640973
438.9752921294057 13715.640495676413
440.02177257648145 13789.754925416593
441.06798527279716 13693.013233554619
442.1139303029122 13691.169517162474
443.1596077513459 13697.767101549069
444.2050177025794 13727.470445065355
445.25016024105753 13685.985780427072
446.2950354511886 13721.31480434405
447.33964341733736 13741.19108012853
448.383984223834 13645.956844933953
449.4280579549686 13629.01265278328
450.471864694995 13678.561227087655
451.5154045281306 13597.784279140667
452.5586775385509 13662.77986807361
453.60168381039693 13619.213249003544
454.64442342776783 13681.314088582865
455.6868964747264 13579.737468391782
456.7291030353008 13459.31546668238
457.77104319347563 13571.261702633818
458.8127170332027 13588.941407606291
459.854124638392 13525.998831260702
460.895266092919 13705.338295774616
461.93614148061897 13702.951155787869
462.97675088529104 13702.313680228544
464.01709439069236 13727.752038016886
465.0571720805492 13771.472026221312
466.0969840385442 13755.551925906844
467.1365303483253 13856.600738896599
468.17581109350067 13824.94089515987
469.2148263576437 13919.246363691776
470.2535762242878 13950.207258955992
471.29206077693016 14099.180694544732
472.33028009902773 14116.465607060716
473.3682342740012 14057.301615105933
474.40592338523857 14139.782311198313
475.4433475160804 14370.940472022945
476.4805067498364 14434.185928505496
477.51740116978 14494.871893066214
478.5540308591426 14740.707292567758
479.59039590112116 14959.340238686093
480.6264963788726 15064.785422936522
481.6623323755193 15411.623307199392
482.6979039741436 15630.853034867778
483.7332112577915 16056.589531983424
484.76825430947247 16519.05071566489
485.80303321215797 16802.893863406993
486.837548048783 17177.286546742762
487.8717989022425 17482.808177666604
488.90578585539697 17596.453041586465
489.9395089910686 17943.6737612401
490.97296839203955 17846.149199068244
492.00616414106116 17860.948999687796
493.0390963208429 17893.528874208256
494.0717650140559 17794.71204466204
495.10417030333883 17638.02335469664
496.1363122712901 17415.290916425296
497.16819100046814 16979.938309416037
498.1998065734024 16786.21439752094
499.2311590725767 16515.707106270962
500.26224858044407 16146.52504043245
501.2930751794156 15902.843233097252
502.3236389518679 15643.868634702289
503.35393998014115 15304.14874251298
504.38397834653733 15069.758136258057
505.4137541333221 14869.815125521849
506.4432674227228 14580.955922335148
507.4725182969323 14405.478635692514
508.5015068381035 14223.466591253939
509.53023312835467 14096.676145757554
510.55869724976765 14062.930146688439
511.58689928438434 13865.27356465143
512.6148393142121 13689.985045689027
513.6425174212218 13701.722265328019
514.6699336873462 13726.10027916157
515.6970881944835 13647.17585921528
516.7239810244901 13488.314729449752
517.7506122591931 13453.841425228948
518.7769819803761 13468.273028866251
519.8030902697901 13494.828075011848
520.8289372091476 13455.220823499098
521.8545228801249 13582.307120252433
522.8798473643619 13371.241195381841
523.9049107434621 13451.897919830666
524.9297130989908 13418.002728654323
525.9542545124805 13304.947111914695
526.9785350654201 13382.82819804138
528.0025548392696 13220.134008469515
529.0263139154504 13175.013389763984
530.0498123753423 13189.151436748964
531.073050300296 13072.08435356698
532.0960277716204 13002.518234945655
533.1187448705896 12989.522338855888
534.1412016784416 12947.02632079826
535.1633982763833 12844.223152788825
536.1853347455726 12771.61964537425
537.2070111671401 12653.416901989698
538.2284276221817 12665.54171327043
539.2495841917516 12547.267441237847
540.2704809568677 12445.773486219954
541.2911179985167 12465.180672936858
542.3114953976419 12334.65270238195
543.3316132351592 12207.255025345728
544.3514715919409 12195.946218305242
545.3710705488247 12105.867115355752
546.3904101866156 12119.933449734062
547.4094905860784 12143.007043251466
548.4283118279418 12033.233085349719
549.4468739929034 12092.294463356533
550.4651771616191 12074.615877488332
551.4832214147063 11987.816617510685
552.501006832761 11971.482577111556
553.5185334963226 11936.46625050867
554.5358014859103 11999.585199494368
555.5528108820035 11881.351107612005
556.5695617650363 12035.414426785492
557.5860542154242 12035.062784550362
558.6022883135283 11894.727354980969
559.6182641396881 11773.007090085976
560.6339817741991 11967.542875241965
561.6494412973225 11955.428267845202
562.6646427892883 11983.52399013576
563.6795863302796 11864.304606735286
564.694272000459 11807.289497171856
565.7086998799423 11888.267936923336
566.7228700488104 11897.518390072099
567.7367825871115 11901.981881109843
568.7504375748576 11938.67041573578
569.7638350920224 11953.244010887161
570.7769752185486 11972.144513500347
571.7898580343353 12000.941614997852
572.802483619258 12041.985917804119
573.8148520531431 12136.020033130362
574.8269634157932 12194.730488004936
575.8388177869692 12187.19464012006
576.8504152463938 12405.770382677267
577.8617558737587 12555.511203394153
578.8728397487175 12624.1008281979
579.883666950891 12752.909083075074
580.8942375598654 13051.758301403914
581.9045516551851 13126.791495766165
582.9146093163617 13551.914991857499
583.924410622878 13435.77923028092
584.9339556541727 13733.882430935677
585.9432444896538 13796.496529019743
586.9522772086875 13752.109671064787
587.9610538906127 13871.106632191348
588.9695746147318 13806.530531839682
589.9778394603054 13884.60355861075
590.985848506567 13756.295439229687
591.9936018327098 13578.240646671573
593.0010995178891 13435.732062872097
594.0083416412344 13374.561234941735
595.0153282818283 13248.81630305387
596.0220595187293 13133.176560312892
597.0285354309508 12977.708576222887
598.0347560974806 12935.093041187747
599.0407215972609 12871.9903336306
600.0464320092051 12781.652552265787
601.0518874121954 12679.242043121616
602.0570878850685 12613.581439985219
603.062033506636 12592.544426150926
604.0667243556636 12602.281238259258
605.0711605108936 12484.556469641197
606.0753420510264 12608.15622177801
607.0792690547278 12526.75655939861
608.082941600629 12497.76779667929
609.0863597673306 12487.494850772808
610.0895236333909 12635.105087461456
611.0924332773357 12799.03079064412
612.0950887776617 12763.438548926231
613.0974902128219 12838.556211143436
614.0996376612384 12958.833887187408
615.1015312013005 13137.420187132278
616.1031709113595 13316.96783633368
617.1045568697336 13421.898194783163
618.1056891547069 13647.141854501106
619.1065678445229 13946.931699723398
620.1071930173985 14317.561084893847
621.1075647515099 14564.737356565014
622.1076831250048 14789.569849114569
623.1075482159849 15196.910167059545
624.1071601025305 15530.746392741738
625.1065188626781 15811.953069121355
626.105624574433 16378.319951827905
627.1044773157682 16672.95359068234
628.1030771646128 17027.10967344448
629.1014241988742 17319.058579805605
630.0995184964158 17593.363043169367
631.0973601350688 18044.922614993968
632.0949491926294 18354.826070565574
633.0922857468631 18242.38840230717
634.089369875499 18435.73396182799
635.0862016562278 18483.283141615593
636.0827811667077 18391.94783320454
637.0791084845641 18327.73724078897
638.0751836873878 18089.961404204492
639.0710068527369 17935.8878665811
640.0665780581294 17616.30051448879
641.0618973810506 17277.88853349821
642.0569648989604 17160.573092783572
643.0517806892676 16704.31355198432
644.0463448293649 16329.8954277677
645.040657396592 15995.689928013298
646.0347184682723 15583.796749582656
647.0285281216875 15230.157143454484
648.0220864340772 14906.205614447757
649.0153934826558 14577.68584846787
650.0084493446047 14442.801315654666
651.0012540970674 14052.47036617531
651.9938078171526 13866.24372810685
652.9861105819346 13696.048703075852
653.9781624684565 13610.611951984896
654.9699635537254 13311.44100932158
655.9615139147136 13263.205592755268
656.9528136283589 13106.386527215049
657.9438627715699 13014.972245311183
658.9346614212154 12895.482933045423
659.925209654135 12732.223245211764
660.9155075471263 12704.81240806876
661.9055551769616 12512.72396965612
662.895352620375 12640.68836117748
663.8848999540678 12582.619407782982
664.8741972547068 12266.034626630882
665.863244598926 12255.85255120405
666.8520420633213 12294.531753862197
667.8405897244611 12124.376588505063
668.8288876588758 12064.698393152294
669.8169359430613 12057.385096740723
670.8047346534822 12113.159216935606
671.7922838665672 12042.519291717581
672.7795836587156 12120.668601343812
673.766634106285 12151.983877429853
674.7534352856092 11998.514800286905
675.7399872729766 11991.779073226204
676.7262901446538 12096.105243956797
677.712343976862 12065.240134718852
678.6981488457986 12086.214534310315
679.6837048276229 11907.287339992594
680.6690119984596 11976.027951312772
681.6540704344043 11907.961670016237
682.6388802115107 11847.31022015963
683.6234414058108 11824.242062682117
684.6077540932874 11716.088458581493
685.591818349907 11694.821074527477
686.575634251587 11582.988227881873
687.5592018742263 11457.809375778534
688.5425212936734 11358.907997856802
689.5255925857564 11562.259441240905
690.5084158262707 11274.944031581623
691.4909910909646 11217.19900001735
692.4733184555644 11057.315223864534
693.4553979957618 11092.558098271596
694.4372297872123 10982.22266295723
695.4188139055404 10942.271262576378
696.4001504263324 10776.64957994848
697.3812394251509 10878.206272544507
698.3620809775111 10770.679157473438
699.3426751589104 10701.757455502191
700.3230220448004 10632.959317924036
701.3031217106054 10691.144074072054
702.2829742317172 10708.951921167174
703.2625796834873 10432.542060025527
704.2419381412474 10484.155441808025
705.22104968028 10485.422050914232
706.1999143758458 10478.809269085132
707.178532303169 10344.841138768581
708.1569035374378 10484.538058327144
709.1350281538107 10428.505354927307
710.1129062274158 10491.979955959327
711.0905378333373 10545.990642664296
712.0679230466376 10477.443142583696
713.0450619423427 10607.692243064203
714.0219545954424 10630.24470087453
714.9986010808989 10487.933638737553
715.9750014736292 10614.001056186933
716.9511558485392 10689.78182056415
717.9270642804786 10823.344561958274
718.9027268442787 10842.368333024397
719.8781436147328 10806.35520241501
720.8533146666014 10751.890294024231
721.828240074612 10696.86985891938
722.8029199134635 10783.498669195895
723.7773542578125 10773.93440738106
724.751543182294 10586.854585958497
725.7254867615029 10571.035803075374
726.6991850700015 10475.012984305675
727.6726381823228 10512.825832379032
728.6458461729599 10474.653765771329
729.6188091163858 10488.953823304659
730.5915270870246 10474.611117477853
731.5640001592856 10412.861584393035
732.536228407529 10381.989664461298
733.5082119060917 10411.786707786305
734.4799507292755 10452.156617400871
735.4514449513481 10459.695523715216
736.4226946465496 10605.643479942666
737.3936998890786 10542.051915591514
738.3644607531078 10477.009027673725
739.3349773127793 10514.104131088188
740.3052496421951 10501.657212878728
741.27527781543 10494.85248040692
742.2450619065221 10426.193428043265
743.2146019894826 10367.130408769308
744.183898138288 10324.783638196666
745.1529504268801 10283.122347195404
746.1217589291682 10164.935625659598
747.0903237190341 10046.878752382032
748.058644870318 10207.561128202653
749.0267224568397 10109.457021987171
749.994556552374 10033.920704474742
750.9621472306771 10075.268349693763
751.9294945654583 10071.970287823118
752.8965986304011 10067.873280759384
753.8634594991636 10071.984682546095
754.8300772453586 10110.238770469903
755.7964519425768 10176.722974909657
756.762583664371 10104.337327857998
757.7284724842611 10122.924099531385
758.6941184757416 10061.486543881738
759.6595217122667 10157.751162465976
760.6246822672638 10150.369416649435
761.5896002141235 10015.853020748327
762.5542756262093 10019.760949112022
763.5187085768503 10085.879949835904
764.4828991393406 9947.369673590489
765.4468473869474 10002.46462019192
766.4105533929032 9911.975782921243
767.3740172304078 9817.57195187717
768.3372389726283 9838.733937460971
769.3002186926988 9679.296897366065
770.2629564637282 9642.0288568987
771.2254523587872 9519.41088682842
772.1877064509154 9486.593569109444
773.1497188131179 9327.784822910024
774.1114895183728 9317.334544582514
775.0730186396268 9160.336816606068
776.0343062497905 9132.693212734983
776.9953524217381 9071.742500951214
777.9561572283274 9033.00866274418
778.9167207423689 9016.830920084034
779.8770430366476 8967.12418726505
780.8371241839159 8960.149055651968
781.7969642568951 8998.863192562116
782.7565633282757 9008.55621108673
783.7159214707099 8928.366924451653
784.6750387568281 8998.356549131526
785.6339152592227 9034.11548940718
786.5925510504512 8903.914120611755
787.5509462030477 8987.230125194585
788.5091007895098 9060.198674038116
789.4670148823006 9029.113390140401
790.4246885538596 9101.17807926564
791.3821218765861 8950.937623839254
792.3393149228505 8963.790026731194
793.2962677649975 9083.082689063645
794.2529804753303 9125.397361874919
795.20945312613 9227.875709928678
796.1656857896378 9216.863206494487
797.1216785380675 9279.995829402495
798.0774314435985 9446.951347699282
799.0329445783846 9581.621823826183
799.9882180145414 9661.205167980726
800.9432518241574 9655.63450511527
801.89804607929 9885.742923052796
802.852600851962 9958.463093242943
803.8069162141637 10053.016701807288
804.760992237856 10202.047094762886
805.714828994971 10170.28764379513
806.6684265574077 10256.80613649789
807.6217849970271 10200.510667113023
808.574904385674 10222.259078107923
809.527784795142 10176.95732790888
810.4804262972102 10201.689540954929
811.4328289636178 10008.65237558034
812.3849928660748 9857.508632917688
813.3369180762638 9807.087868768867
814.2886046658241 9602.126974109882
815.2400527063783 9557.825638785196
816.1912622695108 9363.15764460186
817.1422334267718 9222.016165530893
818.0929662496856 9135.259802042428
819.0434608097457 8861.458322918868
819.9937171784059 8836.79784554967
820.9437354271013 8731.967263940838
821.8935156272255 8695.185731046968
822.8430578501484 8558.00021346268
823.7923621672016 8416.753733562344
824.7414286496896 8486.511151374165
825.6902573688876 8473.844671747169
826.6388483960363 8383.527028539856
827.5872018023492 8272.848412100708
828.5353176590033 8269.988545605704
829.4831960371503 8235.192138403949
830.4308370079016 8164.015570172375
831.3782406423525 8068.525880515345
832.3254070115545 8149.538556367641
833.2723361865319 8127.365212242175
834.2190282382799 8094.963513518803
835.1654832377644 8270.939530656418
836.1117012559116 8114.361328720412
837.0576823636256 8190.311689325017
838.003426631778 8072.051085535464
838.9489341312074 7983.53675589294
839.8942049327197 8136.76024970662
840.8392391070975 8122.373079573947
841.7840367250865 8015.5082630706875
842.7285978573982 7996.7628448722635
843.672922574724 8043.935140733821
844.6170109477152 7999.737798315487
845.560863046996 7996.904308565032
846.5044789431595 8031.274139580695
847.4478587067697 7994.228045369411
848.3910024083561 7996.854333596806
849.333910118421 7951.683415220228
850.2765819074339 7906.372652364624
851.2190178458332 8002.137381037052
852.161218004032 7923.2907506139845
853.1031824524016 7982.964194988648
854.0449112612987 7961.596561371314
854.9864045010327 7965.230877350335
855.9276622418947 8018.709102081481
856.8686845541379 8015.463683514087
857.8094715079915 8050.0216882173945
858.7500231736467 8141.989180493823
859.690339621271 8120.631937370779
860.6304209209939 8118.88392802972
861.5702671429244 8027.765970204839
862.5098783571284 8091.855145200131
863.4492546336569 8144.3232850648765
864.3883960425155 8183.500982142478
865.3273026536863 8126.097195079024
866.2659745371238 8150.17889909019
867.2044117627465 8267.79905060767
868.1426144004472 8247.91118651701
869.0805825200823 8375.165209470904
870.0183161914847 8404.728564512787
870.9558154844526 8455.9905673536
871.8930804687552 8460.651782581595
872.8301112141307 8467.298879288395
873.7669077902865 8651.921657720854
874.7034702669062 8721.976156757279
875.6397987136315 8753.024211067666
876.5758932000863 8871.58490587953
877.5117537958522 8935.210468138888
878.4473805704911 8912.987152175596
879.3827735935283 8955.459617627348
880.3179329344603 9070.842303918307
881.2528586627541 9207.830979220016
882.1875508478479 9257.550948607119
883.1220095591489 9131.777458853905
884.0562348660296 9101.679188702316
884.9902268378391 9124.541760898515
885.9239855438955 9123.525218135514
886.8575110534839 8979.935720749489
887.7908034358588 8977.458652291356
888.7238627602474 8985.889107335013
889.6566890958475 8882.55659326409
890.5892825118208 8728.549414525965
891.5216430773125 8691.74444551318
892.4537708614189 8616.136737517885
893.3856659332196 8472.275971531799
894.3173283617652 8376.671452031918
895.2487582160684 8323.964951682896
896.179955565116 8263.963023109782
897.110920477864 8152.889146787735
898.0416530232451 8101.849478510657
898.9721532701478 8027.679111317528
899.9024212874428 8017.8199276141995
900.8324571439662 7882.158306923693
901.7622609085302 7846.129747975012
902.6918326499072 7807.764748038991
903.6211724368477 7737.263225290987
904.5502803380696 7798.686610262419
905.4791564222614 7783.193862115632
906.4078007580792 7654.376095950897
907.3362134141571 7658.917196308306
908.2643944590909 7734.576954925714
909.1923439614493 7566.029064815224
910.1200619897754 7628.348185806963
911.0475486125779 7683.183545441092
911.9748038983344 7575.5883033442615
912.9018279155007 7510.0376107773145
913.8286207324982 7475.566883866576
914.7551824177117 7606.239935989921
915.6815130395116 7501.7786594886875
916.6076126662283 7402.630527779957
917.533481366163 7446.8875133411175
918.4591192075914 7486.336815337815
919.3845262587565 7520.84260861394
920.3097025878706 7358.99069840762
921.2346482631237 7416.373931448975
922.1593633526682 7375.0790903940915
923.0838479246304 7388.245116512129
924.0081020471061 7507.05243710329
924.9321257881656 7339.648066124193
925.8559192158464 7330.2561148167415
926.7794823981512 7299.84048032147
927.7028154030686 7384.888100505661
928.6259182985414 7331.031161649293
929.5487911524906 7426.081270417027
930.4714340328119 7335.90442376057
931.3938470073608 7252.031789307975
932.3160301439748 7256.301033403183
933.2379835104548 7287.472109607215
934.1597071745709 7316.5071373642
935.0812012040769 7360.511386207654
936.002465666681 7280.524446204841
936.9235006300696 7299.551625792276
937.8443061619055 7400.712509916569
938.7648823298077 7124.465321567176
939.6852292013809 7166.50243071561
940.6053468441951 7256.848444689858
941.5252353257874 7102.557072459946
942.4448947136698 7170.237170546866
943.364325075323 7123.871156756541
944.2835264782043 7187.686180007266
945.2024989897309 7179.016535718527
946.1212426773054 7197.889726587926
947.0397576082851 7180.3697154577985
947.9580438500125 7182.891388617269
948.8761014697939 7221.869576669926
949.7939305349064 7230.105489634325
950.7115311125999 7142.815508258149
951.6289032700952 7118.606385493278
952.5460470745875 7183.39899528364
953.4629625932339 7009.246514034067
954.3796498931715 7233.516402305332
955.2961090415029 7200.565819821268
956.2123401053068 7159.515994520545
957.1283431516276 7158.204962800417
958.0441182474842 7100.460046491059
958.9596654598663 7305.273424106075
959.8749848557309 7191.085720240955
960.7900765020167 7135.655293354806
961.7049404656209 7141.652394359167
962.6195768134185 7207.244865306662
963.5339856122537 7201.237602961708
964.4481669289453 7201.504509948948
965.3621208302793 7127.823887773828
966.2758473830145 7133.47317371319
967.1893466538822 7127.167982211143
968.1026187095813 7115.100537143412
969.0156636167867 7137.625213635465
969.9284814421426 7195.163525684495
970.8410722522622 7103.890241218508
971.753436113735 7074.165940082547
972.6655730931161 7099.187754208472
973.5774832569368 7183.243822519193
974.4891666716958 7087.252027265812
975.4006234038698 7075.440910294523
976.3118535198955 7156.374400994052
977.2228570861935 7219.288698642177
978.1336341691494 7146.770107785732
979.0441848351202 7008.9875009794005
979.9545091504333 7153.0559898999945
980.864607181391 7141.172053801424
981.7744789942699 7171.807314811858
982.6841246553086 7204.647762819547
983.5935442307236 7160.160124675468
984.5027377867027 7206.833295005337
985.4117053894024 7269.463843819938
986.3204471049557 7237.012814442703
987.2289629994648 7228.217817194833
988.1372531390007 7301.479415119723
989.0453175896091 7315.613626230249
989.9531564173067 7374.550088469297
990.860769688079 7289.6702270763535
991.7681574678918 7368.610787645366
992.6753198226706 7419.139583616612
993.582256818323 7397.452524576895
994.4889685207218 7360.167977465123
995.3954549957143 7623.512554049848
996.301716309119 7541.853465197724
997.2077525267232 7671.03295909007
998.1135637142943 7581.285769871218
999.0191499375615 7719.904685982969
999.924511262232 7703.258674113618
1000.8296477539861 7739.237427846581
1001.7345594784656 7639.291694860032
1002.6392465012996 7695.666360316255
1003.5437088880753 7761.347215287094
1004.4479467043584 7825.275309839312
1005.3519600156869 7635.9922319239795
1006.2557488875718 7763.822781423152
1007.1593133854858 7740.4329306382115
1008.0626535748888 7725.198554065848
1008.9657695212009 7606.836193465347
1009.8686612898182 7785.13622867809
1010.7713289461135 7751.055240267286
1011.6737725554212 7720.69809001827
1012.5759921830577 7745.603642329717
1013.4779878943027 7623.342436194022
1014.379759754418 7629.772792562391
1015.2813078286254 7590.311549698065
1016.18263218213 7481.364574296256
1017.0837328801026 7486.6807649944485
1017.9846099876886 7478.151013123768
1018.8852635700023 7383.0865153747945
1019.7856936921362 7255.082918788295
1020.6859004191447 7300.01292190434
1021.5858838160675 7329.9290895563945
1022.4856439479063 7205.250380152989
1023.3851808796389 7227.852960405997
1024.2844946762143 7190.777152484067
1025.183585402554 7189.693241578677
1026.082453123554 7059.678102512876
1026.9810979040776 7127.127351314877
1027.8795198089647 6993.428381750576
1028.777718903024 7087.563668275832
1029.6756952510368 6966.387146995044
1030.5734489177648 6982.967442276504
1031.4709799679313 6958.415247071153
1032.3682884662358 7086.813177255346
1033.2653744773506 6842.3026760988505
1034.1622380659192 6895.487642927821
1035.058879296559 7061.979640440901
1035.9552982338591 7059.443792613517
1036.8514949423825 7051.0836989389445
1037.7474694866614 7096.775388481741
1038.6432219312028 7062.18544619945
1039.5387523404825 7376.001861557481
1040.4340607789582 7272.267964546329
1041.3291473110476 7313.677230299106
1042.2240120011465 7550.399684934886
1043.1186549136273 7702.260118474158
1044.0130761128294 7748.175855011432
1044.9072756630649 7848.206079454627
1045.8012536286205 7971.083103269235
1046.6950100737577 8091.459748509224
1047.588545062701 8264.771440930506
1048.481858659663 8357.856360303744
1049.3749509288118 8411.401325143252
1050.2678219343034 8367.039559069639
1051.1604717402515 8484.141375885585
1052.0529004107575 8398.10749707295
1052.9451080098825 8523.95230372758
1053.8370946016694 8379.46667634197
1054.7288602501267 8452.505067742644
1055.6204050192446 8390.790061254196
1056.511728972977 8427.249213287976
1057.402832175254 8211.045996365958
1058.2937146899785 8126.3666898935335
1059.1843765810263 8082.434826345934
1060.0748179122456 8106.034905852561
1060.9650387474576 7963.34346590811
1061.855039150456 8043.304338077214
1062.7448191850071 7839.095260286094
1063.6343789148505 7770.336413326014
1064.5237184037014 7837.530403967738
1065.412837715241 7784.079975143392
1066.3017369131267 7678.620057719325
1067.190416060992 7575.704732069532
1068.0788752224398 7538.539900784909
1068.9671144610438 7555.676431687784
1069.8551338403558 7559.902957486329
1070.7429334239023 7568.477764741352
1071.6305132751695 7399.2917349657455
1072.517873457633 7482.197436970651
1073.4050140347335 7352.883148200561
1074.2919350698776 7333.745464467103
1075.1786366264623 7267.129705619198
1076.0651187678395 7211.579713663801
1076.95138155735 7094.726182460482
1077.8374250582929 7198.49701704534
1078.7232493339507 7043.71183146856
1079.608854447577 6992.960371136969
1080.4942404623907 6891.725431203095
1081.3794074415982 6941.573734220909
1082.2643554483657 6997.590634059107
1083.149084545841 6810.212734203933
1084.033594797138 6681.322434944991
1084.9178862653516 6667.2991627414885
1085.8019590135427 6788.279855875245
1086.6858131047484 6536.058227318158
1087.5694486019802 6701.264413381379
1088.4528655682225 6658.267578680867
1089.3360640664287 6595.045232843828
1090.2190441595321 6522.979031912672
1091.1018059104317 6566.288301020599
1091.98434938201 6604.48606905989
1092.866674637111 6578.582173677542
1093.748781738559 6527.896138138057
1094.6306707491512 6425.304436832803
1095.5123417316554 6542.171263949301
1096.3937947488157 6481.929996819563
1097.2750298633455 6491.985901891713
1098.156047137938 6402.86537295575
1099.0368466352556 6484.675544888303
1099.9174284179317 6523.4483684068455
1100.7977925485757 6393.1508787067505
1101.6779390897755 6454.976492612021
1102.5578681040806 6459.306078567761
1103.4375796540226 6448.454845205398
1104.3170738021054 6497.67688601178
1105.1963506108077 6401.232573815271
1106.0754101425773 6431.545156264512
1106.9542524598382 6502.26201862825
1107.8328776249855 6453.756457308105
1108.7112857003904 6508.150093321691
1109.5894767483987 6557.459172301589
1110.4674508313292 6586.826778448181
1111.3452080114657 6554.417394788911
1112.2227483510815 6639.275126738709
1113.1000719124077 6845.48357011349
1113.9771787576592 6859.8546025359665
1114.854068949022 6839.70668554451
1115.7307425486542 6954.3987025069555
1116.6071996186893 7015.182964841432
1117.483440221229 7272.109160106213
1118.3594644183577 7207.159673129952
1119.235272272128 7421.88750173195
1120.1108638445658 7444.541116005562
1120.9862391976712 7718.904278911713
1121.8613983934229 7911.911335208533
1122.7363414937627 7835.931499293738
1123.6110685606182 8108.034926559584
1124.485579655884 8236.70622820597
1125.359874841426 8380.96916261454
1126.2339541790916 8464.338554874665
1127.1078177306936 8546.225142913467
1127.9814655580267 8516.214815371164
1128.854897722851 8707.056393851368
1129.7281142869106 8646.613846691313
1130.6011153119125 8742.237500529258
1131.473900859548 8891.879732793088
1132.3464709914697 8829.298201556207
1133.2188257693178 8768.509093915714
1134.0909652546961 8658.687540498573
1134.96288950919 8589.44808854723
1135.8345985943506 8603.446620913768
1136.7060925717087 8452.138513944683
1137.57737150277 8443.833883023526
1138.4484354490069 8365.32269475299
1139.3192844718778 8207.990105640518
1140.1899186327992 8069.906043456131
1141.060337993178 8027.050081323641
1141.930542614382 7861.954169281606
1142.8005325577597 7667.459098166903
1143.670307884635 7386.689329417891
1144.5398686563003 7484.312476602814
1145.409214934025 7354.739612860785
1146.2783467790541 7153.803907000278
1147.1472642526023 7111.832432289154
1148.0159674158622 7126.802899760332
1148.8844563300026 6888.839986521013
1149.7527310561618 6755.275158226592
1150.6207916554504 6688.736380418331
1151.4886381889592 6523.394108221192
1152.3562707177498 6599.759564753204
1153.2236893028585 6496.447138824304
1154.090894005296 6476.239690045662
1154.9578848860474 6465.094157484264
1155.8246620060709 6395.986417263797
1156.6912254262988 6228.9785419376385
1157.5575752076438 6280.7923990320605
1158.42371141098 6359.148466891375
1159.2896340971656 6384.9760063083295
1160.1553433270346 6283.7490807431095
1161.0208391613887 6261.5641050316535
1161.8861216610057 6183.0015141902895
1162.75119088664 6267.370587371946
1163.6160468990201 6240.7429529668025
1164.4806897588442 6075.822986049335
1165.3451195267917 6178.831541004254
1166.2093362635114 6081.2016120155195
1167.0733400296285 6200.8753167556315
1167.9371308857444 6029.986448751328
1168.8007088924278 6067.426528215668
1169.6640741102328 6089.150993931273
1170.5272265996773 6046.8828473099
1171.390166421259 6139.143284235421
1172.252893635452 6110.250392582601
1173.1154083026995 6179.329234306447
1173.977710483421 6179.642503002318
1174.8398002380145 6044.162273881703
1175.7016776268483 6204.771007214657
1176.563342710264 6090.161763913025
1177.4247955485826 6186.660689047894
1178.2860362020947 6204.827175246259
1179.147064731069 6042.156884971097
1180.0078811957483 6195.049664073257
1180.8684856563486 6159.905103818869
1181.7288781730604 6151.89887838868
1182.589058806052 6265.822963998815
1183.4490276154593 6350.664597744459
1184.3087846614017 6333.053553064381
1185.1683300039676 6398.965911913343
1186.027663703222 6536.338986780033
1186.8867858192025 6524.083901017308
1187.7456964119228 6615.048140956232
1188.6043955413716 6695.302228930894
1189.4628832675116 6749.328566707528
1190.3211596502842 6729.632598282066
1191.179224749596 6876.110404797636
1192.0370786253388 6856.6853260242715
1192.8947213373758 7035.605645077213
1193.7521529455407 7124.561135994535
1194.6093735096438 7032.367966535855
1195.466383089477 7142.707487029824
1196.3231817447977 7090.303143854358
1197.1797695353398 7293.254115138802
1198.0361465208189 7283.266811247096
1198.8923127609214 7202.517135001623
1199.7482683153048 7421.928840692842
1200.6040132436028 7430.637831230296
1201.459547605431 7244.510913381625
1202.3148714603722 7374.292804335295
1203.1699848679855 7306.502948536452
1204.0248878878065 7377.721769365437
1204.8795805793507 7068.841065175018
1205.7340630020935 7303.485213064535
1206.5883352155033 7368.422458616644
1207.4423972790064 7200.420244495018
1208.2962492520237 7067.488183044069
1209.1498911939307 7125.128902859925
1210.0033231640937 7042.085884406906
1210.8565452218427 7064.135802267369
1211.7095574264913 6774.267127020328
1212.5623598373222 6794.617275048773
1213.4149525135963 6662.778896757067
1214.2673355145507 6710.162611204985
1215.1195088993936 6582.619077221358
1215.9714727273113 6503.587316507769
1216.8232270574663 6704.0506596238265
1217.6747719489904 6450.331955920761
1218.5261074609934 6534.348449845025
1219.3772336525653 6499.988093561855
1220.2281505827668 6528.540062459191
1221.0788583106296 6463.662768301164
1221.9293568951707 6312.807820619269
1222.7796463953746 6318.228549486269
1223.629726870202 6357.80056900734
1224.4795983785934 6318.547114095696
1225.3292609794553 6271.821142723775
1226.1787147316809 6215.827113782844
1227.0279596941327 6271.580650562744
1227.8769959256424 6216.855602349466
1228.7258234850306 6247.990645078234
1229.5744424310833 6224.730868652574
1230.422852822563 6228.0265805670515
1231.2710547182105 6270.975815461933
1232.119048176739 6211.061788747149
1232.9668332568417 6132.386019526528
1233.8144100171812 6177.789899712634
1234.6617785163999 6280.08991331977
1235.508938813111 6062.0463123150075
1236.3558909659114 6066.866622799055
1237.2026350333617 6225.808115892833
1238.049171074008 6216.696456662412
1238.8954991463652 6089.727913684047
1239.741619308932 6118.491031821288
1240.587531620169 4967.982149164132
1241.4332361385277 6187.848676251427
1242.2787329224248 6125.394127804842
1243.1240220302534 6010.901762348136
1243.9691035203869 6038.035911810733
1244.813977451171 6214.2151899057
1245.6586438809263 6208.4520806556675
1246.5031028679496 6016.261080612379
1247.3473544705157 6134.727968698191
1248.1913987468706 6224.576712617298
1249.0352357552383 6032.335303925016
1249.8788655538228 6073.9795036055075
1250.7222882007918 6274.938654301734
1251.565503754302 6210.656257936102
1252.4085122724755 5928.103609031532
1253.2513138134182 6152.505874274683
1254.0939084352049 6176.61864839151
1254.9362961958905 6128.993496773776
1255.7784771535007 6071.975964138762
1256.6204513660432 6108.967072439866
1257.4622188915 6222.218829753893
1258.3037797878242 6047.9161943573445
1259.1451341129468 5964.92886990463
1259.9862819247755 6092.37383748487
1260.8272232811978 6006.870301206856
1261.6679582400666 6144.736841447286
1262.5084868592203 5883.48153394401
1263.34880919647 6049.856126751972
1264.1889253095997 6000.104400582965
1265.0288352563712 5919.8679458431225
1265.8685390945266 5928.707674534782
1266.7080368817751 5923.123261094295
1267.5473286758115 5968.808640294232
1268.386414534294 5972.493521913305
1269.2252945148703 5755.02436307897
1270.0639686751547 5746.575809471611
1270.9024370727402 5764.13282063238
1271.7406997651997 5745.507412786119
1272.5787568100714 5655.473787633509
1273.4166082648808 5676.2655089063555
1274.2542541871244 5708.569364341864
1275.091694634275 5825.5251101606245
1275.9289296637817 5587.8692722658725
1276.7659593330663 5802.7426301709565
1277.6027836995308 5612.589254479977
1278.4394028205552 5665.155363063475
1279.2758167534867 5761.198249703829
1280.112025555658 5723.466026612198
1280.9480292843746 5629.285632713008
1281.7838279969128 5577.623475468481
1282.6194217505326 5698.937761788843
1283.4548106024686 5543.58161934132
1284.289994609926 5627.126914088634
1285.1249738300921 5785.486462426788
1285.959748320127 5618.737944296246
1286.7943181371702 5680.372234348413
1287.6286833383328 5689.400880242514
1288.4628439807038 5714.145755819576
1289.2968001213521 5570.395581185008
1290.1305518173194 5576.862079548628
1290.9640991256183 5656.8906551108
1291.7974421032523 5653.45465078759
1292.630580807183 5545.16830459084
1293.463515294361 5656.658863917998
1294.29624562171 5754.516017793934
1295.12877184613 5657.241532300974
1295.961094024493 5602.226764769164
1296.79321221365 5717.066695449567
1297.6251264704333 5814.314568408176
1298.4568368516466 5919.1549110660035
1299.2883434140658 5796.301708687139
1300.1196462144526 5677.2053151515875
1300.9507453095375 5888.029581345794
1301.7816407560313 5823.041879557147
1302.6123326106172 5839.524895950586
1303.4428209299622 5767.944731720648
1304.2731057707024 6009.140740613142
1305.1031871894502 5921.579976257695
1305.933065242798 5973.572145484437
1306.7627399873181 5948.113735996176
1307.5922114795467 6243.0917630105405
1308.4214797760123 6102.963779265135
1309.2505449332057 6026.556195446478
1310.0794070076026 6011.0421857577585
1310.9080660556538 6176.498061081858
1311.736522133786 6229.538387437191
1312.5647752983987 6141.766693141944
1313.3928256058734 5980.305097908479
1314.2206731125661 6138.663270637848
1315.048317874809 6209.565629639059
1315.8757599489109 6092.070276085997
1316.7029993911547 6231.6818564417645
1317.5300362578055 6379.119197025177
1318.356870605101 6212.626458147835
1319.183502489257 6199.674564736389
1320.0099319664623 6337.601028987935
1320.836159092889 6377.693290265021
1321.66218392468 6367.356524210922
1322.4880065179532 6278.07781778366
1323.3136269288134 6378.692762693568
1324.1390452133292 6370.889000479562
1324.9642614275563 6536.0960910856675
1325.7892756275214 6322.8143909601795
1326.6140878692295 6329.709060280064
1327.4386982086617 6626.1565730742095
1328.2631067017755 6380.205641931558
1329.0873134045069 6458.998856407796
1329.911318372764 6396.442555638715
1330.735121662441 6284.854830118667
1331.558723329399 6364.321393276245
1332.3821234294774 6315.5588287474
1333.2053220185007 6399.367873614299
1334.0283191522612 6258.529247071799
1334.851114886529 6338.760761739471
1335.6737092770582 6275.369227406613
1336.4961023795695 6214.597396140127
1337.3182942497697 6128.216402145229
1338.1402849433325 6127.312355976635
1338.962074515921 6065.305439296638
1339.7836630231632 6024.991096040477
1340.6050505206676 6333.893687273276
1341.426237064028 6157.624858164004
1342.2472227088037 6096.813758260577
1343.0680075105338 5987.316828489111
1343.888591524741 6103.205443207296
1344.7089748069138 6160.231522425959
1345.5291574125276 6052.55757682077
1346.3491393970307 5819.727458170801
1347.168920815846 6148.035305236118
1347.9885017243778 6046.765582585651
1348.8078821780036 5960.34614192682
1349.6270622320844 5941.84622665368
1350.4460419419447 5901.384241625687
1351.2648213629054 5983.21300136086
1352.0834005502438 5903.556452924064
1352.90177955923 5889.567481720765
1353.7199584451064 6062.531332448336
1354.5379372630887 6077.604574443456
1355.355716068374 5927.671483713002
1356.1732949161305 5984.908181430166
1356.9906738615155 5880.615042492602
1357.8078529596478 5942.507019869454
1358.6248322656375 6005.760508769931
1359.441611834567 5805.138301513787
1360.2581917214866 6022.171222432445
1361.0745719814367 5907.642738208151
1361.890752669433 5865.566405564076
1362.7067338404577 5898.708652639713
1363.5225155494845 5996.6846962424725
1364.3380978514506 6041.306719868492
1365.1534808012839 5796.620039223203
1365.9686644538815 5705.328333541765
1366.783648864117 6045.366715964143
1367.5984340868417 5943.74133460779
1368.413020176893 5821.610958337592
1369.2274071890715 5816.926311286438
1370.0415951781652 5917.713806202575
1370.8555841989346 5977.977317494497
1371.6693743061223 5781.693209327984
1372.48296555444 5757.943606361008
1373.2963579985844 5939.062547172582
1374.1095516932255 5882.160701821134
1374.9225466930166 5745.751544439332
1375.7353430525782 5906.349597707851
1376.5479408265164 5844.630570414491
1377.36034006941 5829.356070007952
1378.1725408358216 5830.675255814332
1378.9845431802805 5762.509711779928
1379.796347157304 6038.7974416498955
1380.6079528213813 5859.863041870092
1381.4193602269788 5803.896335956324
1382.230569428546 5796.080783084608
1383.0415804805016 5884.780404029136
1383.852393437246 5870.535999949468
1384.6630083531563 5841.786706439956
1385.4734252825892 5713.573159779149
1386.2836442798798 5792.095077624985
1387.0936653993322 5779.175666678554
1387.9034886952395 5826.939362410468
1388.713114221864 5919.841208484285
1389.5225420334482 5848.446856167306
1390.331772184214 5863.634054322438
1391.1408047283585 5681.959375045442
1391.9496397200564 5883.525518400557
1392.758277213461 5864.480667917578
1393.5667172627054 5789.175673801563
1394.3749599218918 5773.645385628692
1395.1830052451114 5672.633589593272
1395.9908532864265 5737.388693893504
1396.7985040998774 5895.663196436203
1397.6059577394808 5716.020098921457
1398.4132142592352 5633.134090753896
1399.2202737131156 5698.071307988224
1400.027136155073 5788.762275920124
1400.8338016390353 5678.394081837136
1401.6402702189134 5661.10789734134
1402.446541948586 5719.796086447021
1403.2526168819204 5629.905464598545
1404.058495072757 5566.493835879189
1404.8641765749107 5596.890949844165
1405.6696614421799 5646.060808879374
1406.4749497283356 5827.759154021435
1407.280041487129 5454.38753124464
1408.084936772295 5413.191892992513
1408.8896356375335 5567.4286245555395
1409.6941381365323 5507.41877703536
1410.498444322955 5338.89224930951
1411.3025542504402 5414.565512253598
1412.106467972606 5367.628435463566
1412.9101855430508 5383.334107440272
1413.7137070153458 5194.143678560375
1414.5170324430437 5299.4976015432085
1415.320161879672 5346.053869097837
1416.1230953787435 5353.402987938283
1416.925832993742 5068.112691920259
1417.7283747781275 5114.560357101709
1418.5307207853439 5088.526972978943
1419.3328710688093 5072.350732122193
1420.134825681922 4941.058595246091
1420.9365846780584 4997.048526821493
1421.7381481105713 5040.65220783837
1422.539516032788 4979.150450607069
1423.3406884980232 4890.527765310467
1424.1416655595604 4849.737083780712
1424.942447270665 4820.615237437267
1425.7430336845828 4954.256987655897
1426.5434248545298 4820.647594223754
1427.3436208337116 4826.3788034822455
1428.143621675301 4854.416033604562
1428.9434274324558 4933.434122033194
1429.7430381583108 4716.5583723188865
1430.5424539059713 4804.60968966326
1431.3416747285337 5026.0799082988615
1432.1407006790632 4818.870674406523
1432.9395318106053 4820.130085415307
1433.7381681761835 4702.399404200451
1434.5366098288014 4748.510107211071
1435.3348568214424 4708.697378840645
1436.1329092070573 4733.677797310268
1436.9307670385879 4881.42395562909
1437.7284303689503 4889.487404526441
1438.5258992510335 4879.472681011491
1439.3231737377118 4856.539895619776
1440.1202538818306 4771.804012588693
1440.9171397362225 4650.115664033373
1441.7138313536925 4734.4618970592055
1442.5103287870243 4691.9601394243755
1443.3066320889775 4701.879697222738
1444.1027413122956 4789.456097144376
1444.8986565096966 4731.780943778942
1445.694377733882 4803.764740576755
1446.4899050375207 4566.116942593878
1447.2852384732687 4787.913304101192
1448.0803780937622 4653.816516386793
1448.8753239516063 4575.019274699372
1449.6700760993954 4503.381737723261
1450.464634589689 4589.226538562665
1451.2589994750397 4708.512496114256
1452.0531708079689 4575.365357000364
1452.8471486409799 4442.53663013684
1453.6409330265524 4654.160554340806
1454.4345240171442 4521.093830431156
1455.2279216651987 4473.394249360272
1456.0211260231263 4599.234047146687
1456.8141371433194 4813.899806409079
1457.6069550781594 4616.36486748533
1458.3995798799897 4395.404748887298
1459.1920116011424 4511.89777409546
1459.98425029393 4444.460051413971
1460.7762960106338 4502.987724334125
1461.5681488035225 4541.169618276681
1462.3598087248392 4607.234464203228
1463.1512758268036 4602.2472740919175
1463.942550161617 4436.326158415687
1464.7336317814625 4460.867632491871
1465.524520738496 4662.859032966204
1466.3152170848552 4540.42588149398
1467.1057208726506 4426.57462039548
1467.8960321539817 4430.621991650373
1468.6861509809169 4533.98813861326
1469.4760774055085 4493.823176611465
1470.265811479785 4456.884961619599
1471.055353255755 4422.0460370127275
1471.844702785409 4428.682667891159
1472.6338601207044 4335.608667267703
1473.4228253135934 4511.931981645286
1474.2115984159936 4378.680181005103
1475.0001794798063 4302.565778441148
1475.7885685569145 4357.74287257291
1476.576765699172 4440.859193474991
1477.3647709584238 4477.0845269961865
1478.1525843864802 4561.60920343777
1478.9402060351367 4399.639807437832
1479.7276359561693 4482.021036464632
1480.514874201328 4462.137381023519
1481.3019208223468 4373.505828724939
1482.0887758709323 4270.489948362797
1482.8754393987747 4517.861408515416
1483.6619114575406 4468.041200361751
1484.4481920988783 4425.370781908026
1485.2342813744108 4490.5422876462
1486.0201793357446 4597.983378301068
1486.8058860344572 4338.780469821581
1487.591401522117 4505.831689933706
1488.3767258502594 4512.349644415342
1489.1618590704056 4596.728997140219
1489.9468012340494 4394.20153971377
1490.7315523926754 4542.244122199451
1491.5161125977356 4513.678078326692
1492.3004819006637 4567.158066792845
1493.084660352877 4419.805544485746
1493.8686480057622 4483.852545338343
1494.6524449106964 4642.7694938685645
1495.4360511190262 4692.6034367631855
1496.219466682087 4637.981263771979
1497.0026916511779 4627.504943403088
1497.7857260775945 4602.065591907238
1498.5685700125996 4605.900144500928
1499.3512235074395 4479.259091031943
1500.133686613337 4533.9889259771535
1500.9159593814966 4510.958466041553
1501.698041863101 4718.317026585695
1502.4799341093094 4419.674545701029
1503.2616361712662 4332.82831522118
1504.043148100087 4478.728904350617
1504.8244699468742 4471.139510664554
1505.6056017626997 4435.522310180656
1506.3865435986281 4380.197197477444
1507.1672955056893 4467.936651374134
1507.9478575348967 4363.306836287158
1508.7282297372512 4601.850480476617
1509.5084121637192 4530.882841574977
1510.2884048652577 4368.04127820195
1511.0682078927948 4350.599628918819
1511.8478212972423 4337.514406363991
1512.6272451294917 4325.1212734852725
1513.4064794404076 4445.28789145184
1514.1855242808433 4568.237988890764
1514.9643797016215 4509.2586228836535
1515.743045753552 4463.553353896997
1516.5215224874191 4480.574775210962
1517.2998099539836 4324.93706602701
1518.077908203999 4519.666956706962
1518.8558172881785 4490.083753730412
1519.633537257234 4496.15107715476
1520.4110681618404 4496.991174134803
1521.1884100526604 4487.637229524063
1521.9655629803365 4469.797218590373
1522.7425269954856 4584.062060670586
1523.5193021487103 4737.630909418653
1524.2958884905856 4437.97971978054
1525.0722860716687 4505.653962204369
1525.848494942502 4442.663589511691
1526.624515153595 4516.423231605336
1527.4003467554485 4739.547418134562
1528.175989798534 4681.962720225782
1528.9514443333064 4580.57243379648
1529.726710410203 4734.498434777184
1530.5017880796331 4602.720554713185
1531.276677391992 4633.4336985217615
1532.0513783976457 4615.981319241946
1532.825891146953 4639.126530909578
1533.6002156902414 4717.1710083978705
1534.3743520778207 4626.553941841924
1535.1483003599806 4770.197664010752
1535.9220605869923 4742.137330929072
1536.6956328091019 4750.775865665213
1537.4690170765407 4652.5278069177675
1538.242213439511 4770.795829634341
1539.015221948208 4782.739056543777
1539.78804265279 4839.53660331109
1540.560675603405 4653.3975556726455
1541.3331208501804 4899.735607988334
1542.1053784432224 4959.430869682178
1542.8774484326168 4860.715834304068
1543.649330868422 4891.332065715703
1544.4210258006842 4795.301859541004
1545.1925332794308 4905.244116521918
1545.9638533546604 4923.798263089169
1546.7349860763552 4856.472047097399
1547.5059314944829 5042.176429236581
1548.27668965898 5006.179963483776
1549.0472606197673 4970.886962993851
1549.817644426752 4883.473193204765
1550.5878411298072 5078.467309796657
1551.3578507787988 4950.575576229317
1552.1276734235635 4892.238474171508
1552.8973091139233 4985.56597369954
1553.6667578996767 5074.663757670221
1554.436019830604 5086.296030961515
1555.20509495646 4966.472440752214
1555.9739833269869 4904.369283261405
1556.7426849919011 5062.005277344519
1557.511200000903 5173.281483800716
1558.2795284036674 5109.533824995197
1559.0476702498509 5051.837057871701
1559.8156255890954 5194.480052738254
1560.5833944710157 5265.1269384121515
1561.3509769452048 5001.506481835776
1562.1183730612447 5088.16012122405
1562.8855828686865 5044.991638432819
1563.6526064170703 5241.581962975977
1564.4194437559127 5181.981950543532
1565.1860949347047 5094.340763253493
1565.9525600029283 5261.423671558933
1566.7188390100328 5259.898246572345
1567.4849320054564 4962.367008997794
1568.250839038612 5022.136316161448
1569.0165601588997 5032.31071648814
1569.7820954156887 5139.740400470331
1570.5474448583373 4959.288218594666
1571.31260853618 5037.438595880225
1572.0775864985299 4806.244204199645
1572.8423787946813 5043.416587449194
1573.6069854739108 5044.115647707469
1574.371406585471 5085.824872772217
1575.1356421785986 5149.404849632951
1575.899692302506 4895.808547150735
1576.6635570063845 5045.153568719437
1577.4272363394157 4859.1784904922915
1578.190730350747 4855.892852741788
1578.9540390895163 4904.617108742638
1579.7171626048384 4708.165483223573
1580.480100945806 4751.712233817105
1581.2428541614918 4789.603482858757
1582.0054223009538 4802.784148009052
1582.767805413223 4803.613392159467
1583.5300035473156 4784.302960331384
1584.292016752228 4954.180705836685
1585.0538450769309 4712.478748352377
1585.8154885703807 4706.724282111225
1586.5769472815136 4818.868363075853
1587.3382212592405 4870.9345139142615
1588.099310552463 4973.669968068791
1588.8602152100484 4793.777631588855
1589.6209352808564 4930.2058940159
1590.3814708137234 4688.357839645138
1591.14182185746 4820.981922859063
1591.9019884608679 4792.542798275876
1592.6619706727215 4599.422907906319
1593.4217685417734 4837.541259194633
1594.1813821167616 4929.552401871296
1594.9408114464022 4782.839086047336
1595.7000565793933 4780.479081240444
1596.459117564409 4873.890503126692
1597.2179944501113 4705.7691281388215
1597.9766872851324 4807.3867468908375
1598.735196118092 4853.759977785541
1599.4935209975883 4958.080517380759
1600.2516619721973 4815.627291741767
1601.0096190904787 4659.886790082734
1601.7673924009723 4906.324388596286
1602.524981952196 4707.277650734011
1603.2823877926476 4769.775492791641
1604.0396099708087 4790.856392740213
1604.7966485351371 4704.460073207137
1605.5535035340745 4827.6691654858705
1606.3101750160404 5000.870491985436
1607.0666630294363 4790.4078656105885
1607.822967622642 4729.149299506096
1608.5790888440224 4730.481314093224
1609.3350267419137 4869.987866891801
1610.0907813646445 4848.832420077444
1610.8463527605145 4799.258371204715
1611.601740977805 4797.609071959714
1612.356946064785 4820.578766156949
1613.1119680696902 4675.43391103815
1613.8668070407512 4818.330281102943
1614.6214630261748 4588.764863948228
1615.375936074137 4796.188343688709
1616.1302262328118 4693.8423351297415
1616.8843335503425 4783.835449103377
1617.638258074854 4568.381208795132
1618.391999854457 4691.671710773075
1619.1455589372363 4934.582914732535
1619.8989353712623 4815.885312127279
1620.65212920458 4652.557573364476
1621.4051404852235 4640.938678377294
1622.1579692611976 4637.378851775139
1622.9106155804966 4574.530385104374
1623.663079491087 4595.620580967361
1624.4153610409248 4772.172063955639
1625.1674602779385 4591.507185333692
1625.9193772500403 4571.8048827753
1626.6711120051277 4685.595533242198
1627.4226645910676 4663.575549065658
1628.174035055721 4516.959056139164
1628.9252234469168 4639.530273058484
1629.676229812474 4680.59270654628
1630.4270542001905 4790.894075946561
1631.1776966578382 4748.715950685425
1631.9281572331747 4611.663728845407
1632.678435973945 4768.446260751765
1633.4285329278573 4744.012228480659
1634.1784481426203 4580.767884561299
1634.9281816659113 4685.059892856352
1635.677733545388 4817.426793663491
1636.4271038286934 4800.540004211838
1637.176292563452 4944.215027032572
1637.9252997972635 4860.068743369141
1638.674125577716 4914.262729656545
1639.4227699523672 5176.373638570876
1640.171232968767 4766.19126157567
1640.9195146744423 4893.187926861199
1641.6676151168977 5128.194972909615
1642.4155343436178 5189.453718936811
1643.1632724020765 4962.75732532467
1643.9108293397167 5130.390722166108
1644.658205203974 5023.449146527737
1645.4054000422566 5318.447029407454
1646.1524139019566 5029.8075142672415
1646.8992468304423 5013.173341761342
1647.6458988750728 5177.974669046962
1648.3923700831765 5186.266608058029
1649.1386605020743 5257.726886900493
1649.8847701790564 5291.6593254031195
1650.6306991614038 5335.807939317112
1651.3764474963682 5240.001680383313
1652.1220152311944 5028.099641177723
1652.867402413096 5413.782014101304
1653.6126090892776 5184.174103136985
1654.3576353069184 5395.3407902493955
1655.1024811131829 5173.903777712325
1655.8471465552066 5204.8457182300535
1656.5916316801213 5373.3560078898745
1657.3359365350298 5279.625985001002
1658.0800611670165 5053.389881401176
1658.824005623148 5050.689530286103
1659.5677699504722 4886.51695882469
1660.3113541960192 5087.3040059552695
1661.054758406799 4981.881622613507
1661.7979826297997 4967.442271868316
1662.5410269119966 4850.023153646057
1663.283891300338 4771.520967994981
1664.0265758417645 4839.331196644998
1664.7690805831826 4798.229558178096
1665.5114055714948 4689.56716005293
1666.2535508535748 4924.362871963183
1666.9955164762814 4570.470669688854
1667.7373024864555 4709.118650427923
1668.478908930916 4601.351512839762
1669.220335856462 4614.532058378103
1669.9615833098778 4454.815196972296
1670.7026513379296 4323.2311838384385
1671.44353998736 4451.936688516549
1672.1842493048916 4413.665114246885
1672.9247793372379 4337.873246418438
1673.6651301310812 4385.018426645433
1674.4053017330934 4206.36086036351
1675.1452941899242 4302.746172338211
1675.885107548207 3935.9772192859455
1676.6247418545518 4046.022200022641
1677.3641971555535 4101.685483389844
1678.1034734977893 4183.0160621954965
1678.8425709278108 4139.960621914887
1679.5814894921605 4224.437361720955
1680.320229237359 4046.2913041097518
1681.0587902098978 4082.846955532806
1681.7971724562685 3947.9428097906193
1682.5353760229264 3861.7721649042896
1683.2734009563173 3980.226893625524
1684.0112473028657 3704.225052195388
1684.7489151089794 3837.969047774506
1685.4864044210462 3852.803572537624
1686.2237152854377 3542.551278219688
1686.960847748498 3642.201801199693
1687.6978018565642 3606.093777249811
1688.434577655944 3553.4329092596117
1689.1711751929379 3501.531269501822
1689.9075945138156 3596.963733746425
1690.6438356648396 3487.6460390048487
1691.3798986922448 3241.3105939173724
1692.1157836422499 3427.49948435471
1692.851490561059 3322.372093645276
1693.587019494853 3340.7516201023986
1694.3223704897991 3116.0017951296545
1695.0575435920364 3106.813122050443
1695.792538847696 3312.1427255042227
1696.527356302886 3203.431524933981
1697.2619960036936 3089.4608493729256
1697.9964579961907 3019.2992981666202
1698.730742326432 2970.3530832741594
1699.4648490404488 2979.983571221079
1700.1987781842563 3065.8616449423052
1700.9325298038548 3070.5549196042875
1701.6661039452174 3177.243663983504
1702.3995006543082 3090.451351006191
1703.1327199770658 3180.627456333484
1703.865761959416 2944.83854412464
1704.598626647261 2977.2525272846588
1705.3313140864866 2796.4522787195297
1706.0638243229587 2820.221042808588
1706.7961574025303 2922.9662133853176
1707.528313371029 2869.43048341133
1708.260292274268 2783.935368730775
1708.9920941580403 2845.9380657293914
1709.7237190681226 2858.2717917244463
1710.4551670502697 2741.6578170114267
1711.18643815022 2686.9669249496997
1711.9175324136959 3087.806962015045
1712.6484498863938 2708.5714684647883
1713.379190614005 2693.234910079048
1714.109754642188 2764.176020765115
1714.8401420165883 2727.723261175434
1715.570352782839 3254.991100150315
1716.3003869865497 2797.254466594689
1717.0302446733076 2737.993079057526
1717.7599258886876 2756.1263491604295
1718.4894306782444 2968.2492535907736
1719.2187590875183 2569.7527369465074
1719.9479111620203 2779.7434707612492
1720.6768869472544 2642.202609809578
1721.4056864887025 2859.3641966444598
1722.1343098318284 2822.1194015010046
1722.8627570220742 2736.067377287285
1723.591028104871 2657.344424672875
1724.3191231256242 2495.7578394142083
1725.0470421297232 2634.53660998289
1725.7747851625427 2716.144530788105
1726.5023522694337 2861.636829693777
1727.2297434957363 2685.4236821796057
1727.9569588867635 2415.4354064178415
1728.6839984878152 2596.8631761454517
1729.4108623441734 2459.447541723049
1730.1375505011038 2628.6261012117
1730.8640630038426 2548.3001518905253
1731.5903998976264 2486.353756832518
1732.316561227657 2634.306409851894
1733.0425470391274 2459.970674051219
1733.7683573772065 2589.6400908963137
1734.4939922870508 2525.909976429993
1735.2194518137949 2628.5298569692495
1735.9447360025606 2550.0098017244873
1736.669844898439 2504.6699245644404
1737.3947785465189 2491.8539494938595
1738.1195369918605 2332.926180177215
1738.8441202795093 2506.0165260528893
1739.5685284544943 2665.4088362863113
1740.292761561821 2598.302249066458
1741.0168196464838 2671.90316575597
1741.7407027534518 2617.562592921335
1742.464410927687 2448.1531550467794
1743.187944214118 2533.337202094339
1743.9113026576688 2538.9175612587346
1744.634486303241 2413.278685519137
1745.3574951957125 2672.8843238149193
1746.0803293799509 2601.37323603362
1746.8029889008048 2539.1156793413875
1747.5254738031017 2442.902131195033
1748.2477841316504 2383.591923674591
1748.969919931249 2373.625688102973
1749.6918812466665 2468.0518148907036
1750.4136681226646 2569.646915403203
1751.1352806039777 2434.309313929588
1751.856718735331 2347.6449716861184
1752.5779825614281 2352.536160167299
1753.2990721269507 2579.916821001745
1754.0199874765676 2435.719716701965
1754.7407286549314 2397.1481886389092
1755.4612957066693 2365.3842752057562
1756.1816886763954 2396.601779073094
1756.9019076087097 2522.1832021886985
1757.6219525481865 2403.6134479605416
1758.3418235393856 2487.3236195281816
1759.061520626854 2466.747022578067
1759.7810438551096 2525.1203272129574
1760.5003932686614 2329.5020446228227
1761.2195689119999 2480.347099218764
1761.938570829594 2484.6992190250303
1762.657399065898 2386.3611508017466
1763.376053665348 2272.3610314805237
1764.0945346723602 2381.64024381573
1764.812842131334 2436.192759109726
1765.5309760866512 2257.9423035953987
1766.2489365826787 2330.1190873902106
1766.9667236637597 2280.275603260268
1767.684337374223 2214.6431730236136
1768.401777758383 2194.0191922557638
1769.1190448605284 2399.7401198099024
1769.836138724937 2427.7517191232646
1770.5530593958665 2387.678586206208
1771.2698069175603 2467.4025671175978
1771.9863813342326 2421.6764106532764
1772.702782690094 2299.346383904657
1773.4190110293293 2525.4740279463786
1774.1350663961111 2306.1705007297023
1774.8509488345844 2329.6336389875314
1775.5666583888924 2451.9691307379862
1776.2821951031437 2427.330991604119
1776.9975590214362 2349.831052186397
1777.7127501878585 2477.093433848376
1778.4277686464684 2453.2859704241537
1779.1426144413108 2403.9424021032337
1779.8572876164162 2434.074076308606
1780.571788215797 2222.767463376692
1781.2861162834415 2354.2966008687968
1782.0002718633277 2344.574461274119
1782.7142549994132 2441.9114609817943
1783.4280657356376 2437.8001404042925
1784.141704115922 2289.9433489750354
1784.855170184177 2304.7518575103227
1785.5684639842839 2292.7692118747173
1786.2815855601148 2086.6256376670003
1786.9945349555237 2155.2694318934264
1787.707312214343 2258.099673676273
1788.4199173803918 2493.3352949576115
1789.132350497468 2252.2586472708495
1789.8446116093583 2351.9324623131142
1790.556700759822 2155.3141907600843
1791.2686179926077 2197.5802263173077
1791.9803633514493 2332.0308998988485
1792.6919368800554 2103.848344993322
1793.4033386221236 2352.7221022833482
1794.1145686213295 2462.3212256860943
1794.8256269213307 2357.7507523087893
1795.536513565774 2319.2734419547087
1796.247228598284 2097.87375260883
1796.9577720624693 2253.5300143211985
1797.6681440019165 2302.6713486134804
1798.3783444602013 2254.7994535660755
1799.0883734808776 2228.965352273538
1799.7982311074884 2204.606618305659
1800.5079173835475 2350.766036936685
1801.2174323525633 2360.022337028023
1801.9267760580187 2237.0218698348876
1802.635948543386 2278.1977817655993
1803.3449498521113 2183.7329114336617
1804.0537800276325 2352.231473900043
1804.7624391133668 2356.1661023939737
1805.47092715271 1993.9428799005461
1806.1792441890484 2125.3985046761763
1806.8873902657433 2241.3236616579993
1807.5953654261448 2373.2385331695236
1808.3031697135812 2162.270111276678
1809.0108031713662 2146.361446185526
1809.71826584279 2186.1223274967624
1810.425557771141 2165.084437936512
1811.1326789996747 2376.3070340904724
1811.839629571632 2141.7496015291167
1812.5464095302468 2111.1276410099817
1813.2530189187182 2177.9904471448326
1813.959457780249 2032.0284762277438
1814.6657261580076 2301.7186257297753
1815.371824095153 2273.4484012174444
1816.0777516348262 2235.1746621295592
1816.78350882015 1897.6244872737855
1817.4890956942272 1988.9251235131337
1818.1945123001533 2075.3630677917054
1818.8997586809928 2269.958420317146
1819.6048348798067 2059.253698943872
1820.3097409396287 2150.0714966040186
1821.0144769034796 2406.9780872948213
1821.7190428143622 2173.9581153834397
1822.423438715261 2355.305072962401
1823.1276646491478 2168.844068602753
1823.8317206589727 2294.63394720623
1824.5356067876692 2291.854617533039
1825.2393230781581 2123.4603384203306
1825.942869573335 2038.178092326631
1826.646246316086 2034.4126293270365
1827.3494533492758 2208.099928748778
1828.052490715756 2206.9484752132535
1828.7553584583547 2235.297491915152
1829.458056619891 2226.6960050199123
1830.1605852431585 2208.9108943086167
1830.8629443709433 2087.6171796288963
1831.5651340460063 2067.4364193310166
1832.2671543110919 2002.675196970046
1832.9690052089318 2296.423281565966
1833.6706867822395 2054.7826569491
1834.3721990737104 2149.98882519806
1835.0735421260233 2234.635435848166
1835.774715981841 2148.0657050595073
1836.4757206838058 2058.387666824189
1837.1765562745459 2157.3670063217387
1837.8772227966747 2008.2707211000602
1838.5777202927839 2189.6494091808845
1839.2780488054523 1988.1725570458675
1839.9782083772352 2211.3834063212707
1840.6781990506806 2257.3041122457016
1841.378020868313 2128.5899063967345
1842.0776738726418 2166.8461107470334
1842.777158106157 2061.9927672381355
1843.4764736113375 2023.359454801807
1844.1756204306403 2207.0082198954296
1844.8745986065078 2064.2887291038046
1845.5734081813607 1912.830189088302
1846.2720491976124 2019.593995615541
1846.970521697649 2110.135933545995
1847.6688257238511 2175.9639577093453
1848.3669613185684 2157.684348575204
1849.0649285241452 1988.3649450239159
1849.7627273829057 2229.9410780765165
1850.460357937156 2093.954055582748
1851.1578202291857 1940.3886601499526
1851.8551143012664 2147.2597044194786
1852.5522401956569 2039.379578213715
1853.2491979545957 2225.542317968899
1853.9459876203055 2023.767808615535
1854.6426092349902 1972.9743331883735
1855.3390628408451 2076.720230580427
1856.0353484800362 2070.3666716268885
1856.7314661947203 2219.5485093384495
1857.4274160270397 1960.3282440345004
1858.123198019115 2038.8434499645482
1858.8188122130487 2042.1903803582622
1859.5142586509319 1986.632699799376
1860.209537374838 2015.0511005545316
1860.9046484268183 1955.8780845299668
1861.599591848917 2045.9038925307716
1862.294367683151 1940.5717755079756
1862.988975971528 1949.8075626156096
1863.6834167560355 1999.9233968018002
1864.3776900786452 2196.3586994668767
1865.0717959813119 2081.1673875059955
1865.7657345059724 1963.2220877253199
1866.4595056945564 2060.6632692292565
1867.1531095889586 2158.323930906345
1867.846546231076 1934.61813265555
1868.5398156627743 2085.8243110604576
1869.2329179259123 1971.1920973023819
1869.9258530623283 2048.2394943705767
1870.618621113843 1924.56623764791
1871.3112221222636 1919.9844276872586
1872.0036561293764 1995.2595751369433
1872.695923176956 1998.5299314962008
1873.3880233067594 2208.4949855488803
1874.0799565605212 1912.6245033151674
1874.7717229799673 2064.7393093735914
1875.4633226068036 2115.740496170911
1876.1547554827175 2022.1563490284304
1876.8460216493859 2047.6468264132498
1877.5371211484617 1964.470815847571
1878.2280540215852 2185.417705287514
1878.9188203103804 1809.1628704741986
1879.6094200564548 2052.433446299521
1880.299853301396 1991.9520990347787
1880.9901200867826 2109.6930672217663
1881.6802204541673 2189.4066724544114
1882.3701544450942 1991.0784243258336
1883.059922101087 1874.2396635268506
1883.7495234636517 2046.4004784060276
1884.4389585742792 1821.62713870718
1885.1282274744517 1830.868917642927
1885.8173302056166 1899.8520421997393
1886.506266809225 1968.9302154585616
1887.195037326701 1886.342209253177
1887.8836417994517 1914.4627554147744
1888.5720802688702 2038.3370409029885
1889.260352776333 2034.4887130572647
1889.9484593632042 1994.8644095521515
1890.63640007082 1991.0686966428661
1891.3241749405151 1863.5309502861742
1892.0117840135954 2036.5203568790657
1892.6992273313572 1837.8784568231363
1893.3865049350788 1914.92696860346
1894.0736168660223 2107.244338218814
1894.7605631654333 1970.1873712552092
1895.4473438745408 1935.5692287156203
1896.133959034556 2079.360593512276
1896.820408686679 1969.670221556829
1897.506692872088 2002.440147536497
1898.192811631945 1947.577253816537
1898.8787650073991 1884.5361674230237
1899.5645530395832 2109.118824077429
1900.2501757696118 2020.0247095198506
1900.9356332385796 1735.2928794764364
1901.620925487574 2154.6390713198657
1902.3060525576602 2055.8645773233343
1902.9910144898859 2044.2411114414904
1903.6758113252872 1899.064821635202
1904.3604431048789 2045.8243579637772
1905.0449098696663 2067.212302265501
1905.7292116606295 1849.6706154443284
1906.4133485187394 2006.0455258886552
1907.0973204849488 1680.9538079168547
1907.7811276001976 1699.2243263634177
1908.4647699053967 1868.6328233629567
1909.1482474414588 1879.205974691231
1909.8315602492694 1889.7083223399272
1910.5147083696957 1991.5346049153006
1911.1976918436012 1972.9755659813534
1911.880510711815 1895.393862544488
1912.5631650151681 1876.5502873877886
1913.2456547944657 1887.117322280327
1913.927980090495 1840.4962351888219
1914.6101409440362 1887.9427440842423
1915.2921373958416 1973.3396281360142
1915.9739694866603 1912.8692357815994
1916.655637257214 2043.7934751341406
1917.3371407482136 1850.043234987863
1918.0184800003572 2071.891916149151
1918.6996550543154 1885.2224891566937
1919.3806659507554 2003.3899196312857
1920.0615127303208 1974.0258503407945
1920.7421954336423 1952.885243695544
1921.4227141013343 1992.0462944090461
1922.103068773993 2014.480884171887
1922.783259492202 2020.2209031312982
1923.4632862965227 1764.4942033390566
1924.1431492275078 1893.1915224660424
1924.8228483256917 1802.208668676562
1925.5023836315922 1731.7046417849663
1926.1817551857057 1732.1011284355923
1926.8609630285227 2037.0928773754138
1927.5400072005123 2025.7386925382034
1928.218887742125 1798.3095174347877
1928.8976046938005 1800.988502996051
1929.5761580959588 1945.3786513753407
1930.2545479890086 1818.9299090767247
1930.9327744133352 1716.7193456500768
1931.6108374093164 1939.8567719110622
1932.2887370173066 1872.4479437000805
1932.9664732776473 1704.8691239298373
1933.6440462306673 1899.3984131613488
1934.3214559166754 1826.7984941918135
1934.9987023759659 2163.6806867553064
1935.675785648813 1939.5607639930524
1936.3527057754836 1627.7404625722163
1937.029462796223 1672.1652750276644
1937.70605675126 1716.7241619534211
1938.3824876808085 1830.8632388762555
1939.058755625072 1730.0786804179886
1939.7348606242267 1802.6084233096722
1940.4108027184448 1992.7194576073318
1941.0865819478713 1921.4367249762934
1941.7621983526478 1812.6682842154282
1942.4376519728921 1828.1422714760508
1943.1129428487038 1907.8623160655159
1943.7880710201734 1911.8842215649697
1944.4630365273733 2044.6250046679993
1945.1378394103576 1693.7251746213424
1945.8124797091714 1975.639744317281
1946.4869574638324 1695.1601838903093
1947.161272714353 1742.1082118933962
1947.8354255007234 1870.214791180745
1948.5094158629272 1746.2604500307345
1949.1832438409183 1914.2194876892681
1949.8569094746435 1953.696688867944
1950.530412804037 1928.307998515174
1951.2037538690092 1964.9471351822235
1951.8769327094578 1716.1983247088233
1952.5499493652678 1810.9435204012527
1953.222803876306 1919.3854818855045
1953.895496282421 1918.9118074897392
1954.5680266234522 1835.5548477077195
1955.2403949392155 1851.4071774266977
1955.9126012695142 1792.1349471598435
1956.5846456541403 1842.0614903212522
1957.2565281328643 1835.4424727774517
1957.9282487454457 1973.481902544654
1958.5998075316202 1894.7260317819255
1959.27120453112 1800.2751012279464
1959.9424397836501 1845.7766370827012
1960.613513328908 1885.4950708656172
1961.2844252065697 1890.9311357825616
1961.9551754563017 1696.062934023613
1962.6257641177453 1650.1505293348043
1963.29619123054 1616.8723692717313
1963.966456834296 1670.0306306349885
1964.6365609686181 1668.071563630817
1965.306503673086 1820.6668440850876
1965.976284987275 1786.1675390875953
1966.645904950734 1941.8481986064103
1967.315363603002 1650.8198932658483
1967.9846609836077 1816.3045519196407
1968.6537971320486 1663.0025835144231
1969.3227720878222 1836.3555398936242
1969.9915858904042 1775.6947098718915
1970.660238579252 1790.1218358687552
1971.3287301938108 1771.0624214910706
1971.997060773514 1703.697736737326
1972.665230357772 1666.1519251434086
1973.3332389859843 1787.1900215204055
1974.0010866975335 1577.554216480648
1974.6687735317864 1810.048441143889
1975.3362995280932 1816.5864684236615
1976.003664725793 1769.4000203140865
1976.6708691642052 1684.2294376877503
1977.3379128826364 1795.821956540757
1978.004795920373 1810.8610853037972
1978.6715183166925 1928.456569313538
1979.3380801108524 1581.6718541478135
1980.0044813420973 1724.2481228843437
1980.6707220496555 1602.618715158845
1981.3368022727373 1779.5784320625658
1982.0027220505417 1818.0162252861544
1982.66848142225 1501.4867500244313
1983.3340804270283 1687.1943236130319
1983.999519104027 1752.0349741618963
1984.6647974923835 1676.543152976043
1985.329915631215 1716.3954935744212
1985.99487355963 1717.0610497227844
1986.6596713167146 1765.9593079154706
1987.3243089415428 1656.7274460535398
1987.9887864731754 1780.1420194195848
1988.6531039506553 1700.9322751243199
1989.3172614130071 1629.6754601160985
1989.9812588992481 1558.3212659042877
1990.645096448372 1511.1478371400008
1991.3087740993633 1776.797488568284
1991.9722918911848 1584.8560058494163
1992.635649862792 1792.267449171169
1993.2988480531185 1801.0860974107932
1993.9618865010852 1904.5089792103795
1994.6247652455968 1702.985691616109
1995.287484325545 1588.7198053036377
1995.9500437798033 1595.6254107012571
1996.6124436472292 1723.080920386358
1997.2746839666706 1766.0392797166537
1997.936764776954 1613.6479804752896
1998.598686116895 1620.7117142188613
1999.2604480252903 1824.7148865502324
1999.9220505409212 1847.339738946644
2000.5834937025593 1549.1352755994178
2001.2447775489582 1785.3699662378472
2001.9059021188514 1782.9316963227975
2002.5668674509616 1557.630193697622
2003.2276735839987 1562.9595115168786
2003.8883205566508 1774.7113158553311
2004.5488084075987 1647.7900199580515
2005.2091371755014 1814.3551577898536
2005.8693068990033 1637.7068168558217
2006.5293176167397 1873.0626139530584
2007.1891693673224 1585.56341489313
2007.848862189354 1460.5540016681443
2008.5083961214223 1602.3400808427082
2009.1677712020955 1646.8142627049249
2009.8269874699254 1561.3674512428115
2010.4860449634598 1621.219330882967
2011.1449437212177 1681.3236722193822
2011.8036837817108 1882.2718706813794
2012.4622651834325 1562.589795449781
2013.1206879648653 1785.074948575626
2013.7789521644736 1887.5323282709942
2014.4370578207036 1819.4382527768678
2015.0950049719922 1751.1130077799858
2015.7527936567585 1871.8588617445607
2016.4104239134067 1659.121117366516
2017.067895780323 1860.355048298766
2017.725209295886 1525.0621866051633
2018.3823644984514 1925.9967099674936
2019.0393614263648 1668.391961709584
2019.6962001179545 1811.042198692137
2020.3528806115355 1720.830494006279
2021.0094029454067 1779.6909598710286
2021.6657671578487 1540.7851537927634
2022.321973287133 1628.519380053614
2022.9780213715148 1612.6900028200362
2023.6339114492293 1704.1690704281632
2024.2896435585026 1728.3498970343474
2024.9452177375442 1690.2835842150453
2025.600634024544 1763.1893967053595
2026.2558924576842 1724.087736880682
2026.9109930751292 1730.3022095813126
2027.565935915025 1585.9320257183228
2028.2207210155066 1802.4599407320507
2028.8753484146964 1920.7481535343534
2029.529818150695 1855.3205613178768
2030.1841302615903 1789.5611265168195
2030.8382847854573 1591.2714824407806
2031.4922817603601 1617.5727783793404
2032.1461212243357 1700.7077148734356
2032.7998032154192 1600.7045203135553
2033.4533277716218 1595.7818387143259
2034.1066949309443 1604.9542436152947
2034.7599047313688 1598.6050812824953
2035.4129572108704 1736.3141553350074
2036.0658524074006 1601.0586969998462
2036.7185903589016 1716.9097692747405
2037.3711711032956 1761.3227990672342
2038.023594678496 1690.021384081024
2038.675861122394 1587.8108112776974
2039.3279704728757 1624.9491967133429
2039.9799227678031 1549.3404020590856
2040.6317180450278 1623.370436891054
2041.2833563423865 1574.375416710138
2041.9348376977014 1827.675343069596
2042.5861621487784 1707.4779164527376
2043.2373297334088 1584.6416656237973
2043.8883404893695 1566.273499780116
2044.5391944544208 1659.4035218660174
2045.1898916663158 1712.296747545759
2045.8404321627804 1720.3646026845895
2046.4908159815368 1558.1194861941108
2047.1410431602853 1359.6856624140069
2047.7911137367173 1542.017992093412
2048.441027748504 1649.3276796526097
2049.090785233302 1401.0243413247308
2049.7403862287592 1519.5070975519927
2050.389830772503 1753.7746981160697
2051.0391189021466 1597.3345519760965
2051.688250655294 1552.099869263266
2052.337226069527 1571.027411803048
2052.986045182417 1541.7069715831408
2053.634708031521 1431.3698405485015
2054.283214654375 1730.1753070276525
2054.931565088511 1481.1973708824203
2055.579759371436 1516.3691643223299
2056.2277975406523 1548.1359263381128
2056.8756796336384 1655.5943203500676
2057.5234056878617 1381.5844949403856
2058.1709757407752 1587.1715790045566
2058.8183898298194 1760.986174206607
2059.465647992416 1696.7901681271062
2060.1127502659747 1701.5575690900264
2060.759696687888 1535.1583895142344
2061.4064872955405 1593.1302913966615
2062.053122126292 1469.2588475310956
2062.699601217497 1766.0364606977323
2063.345924606485 1616.8348540457896
2063.992092330587 1691.1148152790477
2064.638104427102 1423.9357619397624
2065.283960933324 1731.0429157864419
2065.92966188653 1452.3688910901797
2066.5752073239855 1689.3324583999733
2067.2205972829397 1594.5800646999655
2067.86583180062 1605.5201069658274
2068.5109109142522 1739.36834110058
2069.15583466104 1591.6282563086322
2069.8006030781708 1443.7523008803305
2070.445216202821 1501.3863253917186
2071.089674072153 1483.828627514426
2071.7339767233116 1753.6342037724407
2072.3781241934303 1593.5754266418169
2073.0221165196253 1585.213882705572
2073.6659537390024 1552.9158726882085
2074.3096358886505 1690.9043116685687
2074.953163005637 1571.858943915515
2075.596535127028 1354.3173405979462
2076.2397522898664 1546.3702809650047
2076.882814531182 1484.3608967654548
2077.5257218879924 1674.453649940596
2078.1684743973 1675.517304002077
2078.8110720960885 1550.3055902966619
2079.453515021336 1761.3948914386651
2080.095803209997 1623.361817079433
2080.7379366990135 1578.24705370716
2081.37991552532 1667.6272643844761
2082.0217397258275 1674.2147832127189
2082.6634093374414 1470.1149945437699
2083.3049243970418 1504.3400058335033
2083.9462849415067 1579.055150224969
2084.587491007689 1598.6210077045585
2085.2285426324324 1601.0215002219263
2085.869439852564 1604.6730135641646
2086.510182704902 1397.9001532871432
2087.1507712262483 1520.6578955379666
2087.791205453381 1429.2791439470882
2088.4314854230743 1482.6448182389818
2089.0716111720867 1727.5431615089794
2089.7115827371617 1359.6629579218993
2090.351400155023 1406.1684949640048
2090.991063462385 1452.8281631861248
2091.6305726959527 1497.3300165697617
2092.2699278924047 1650.4091213802174
2092.9091290884153 1464.2780560306264
2093.548176320641 1366.5677841479858
2094.187069625721 1660.450603883414
2094.8258090402887 1408.2046627229815
2095.464394600951 1651.2076301684942
2096.102826344313 1579.1047069467807
2096.741104306955 1658.389193025032
2097.379228525453 1528.5232912141942
2098.017199036358 1374.8173451482685
2098.6550158762147 1629.737026721814
2099.2926790815527 1616.1804910656988
2099.9301886888825 1570.6757233757362
2100.5675447347076 1517.9569957135614
2101.2047472555114 1654.5071571083427
2101.841796287761 1497.4826084526744
2102.47869186792 1476.5446849699533
2103.1154340324265 1468.640562082207
2103.752022817709 1530.8691638843975
2104.388458260184 1362.3655197858814
2105.024740396251 1478.2538369916563
2105.660869262292 1508.5421332994451
2106.296844894685 1622.5135970939152
2106.93266732978 1624.4092939469203
2107.5683366039284 1386.960885465906
2108.2038527534532 1624.7391644372888
2108.8392158146726 1764.7440603572438
2109.4744258238843 1392.1320852031627
2110.1094828173755 1414.3608695971711
2110.744386831422 1445.1021593737917
2111.3791379022787 1475.947248722298
2112.01373606619 1648.1872261687727
2112.648181359389 1719.2964061323933
2113.28247381809 1577.4468657006994
2113.916613478492 1561.2620870733545
2114.550600376786 1679.6976345342853
2115.1844345491445 1541.8949357762378
2115.818116031729 1477.9020361730293
2116.451644860679 1540.3451323044335
2117.085021072133 1324.8746066008152
2117.718244702204 1473.7786680052081
2118.3513157869984 1322.4277633287443
2118.984234362604 1469.015909138517
2119.617000465092 1398.0264008309919
2120.249614130529 1663.587382053161
2120.8820753949585 1620.7900846663608
2121.5143842944162 1452.8921369315003
2122.14654086492 1492.237383154323
2122.7785451424734 1577.2618460321114
2123.4103971630702 1281.3477332904695
2124.042096962681 1579.697679878144
2124.6736445772767 1511.4795085794274
2125.305040042802 1382.649934768383
2125.936283395191 1571.2375658754277
2126.567374670365 1619.1061502484745
2127.198313904233 1308.704686203536
2127.8291011326855 1350.4814534362133
2128.4597363916037 1392.1851416974598
2129.0902197168507 1552.5425353096916
2129.720551144279 1466.6596355125814
2130.3507307097225 1512.5222063431852
2130.980758449008 1558.3465827789585
2131.6106343979427 1445.8174920879396
2132.2403585923203 1609.9947075841844
2132.8699310679276 1630.7687507287314
2133.499351860526 1545.4068668504221
2134.1286210058715 1375.0216536911203
2134.7577385397053 1552.5761220100135
2135.3867044977487 1419.6414986659415
2136.0155189157176 1667.6534278791428
2136.644181829308 1506.0209666219766
2137.2726932742025 1540.982362466315
2137.901053286074 1652.5803381846224
2138.5292619005777 1335.1703811489879
2139.1573191533535 1519.7557274291983
2139.7852250800315 1585.252171645107
2140.4129797162295 1545.180885667401
2141.0405830975433 1387.905409207377
2141.6680352595613 1413.8139232813432
2142.2953362378576 1439.7881651381754
2142.9224860679915 1628.1693476652092
2143.549484785508 1369.253275549744
2144.1763324259373 1490.840010344166
2144.803029024799 1359.2105223549065
2145.429574617594 1305.897365060087
2146.0559692398165 1480.8626885493443
2146.682212926942 1539.126687153867
2147.308305714432 1493.127762220445
2147.9342476377333 1575.4326228661917
2148.5600387322847 1673.06571167705
2149.185679033506 1684.264319085679
2149.8111685768017 1491.7158181750867
2150.4365073975678 1480.0941275900398
2151.061695531187 1468.6137226637172
2151.686733013021 1708.911063241023
2152.311619878423 1575.1211734976546
2152.9363561627342 1387.310341722965
2153.560941901278 1174.7145597406547
2154.1853771293663 1463.0902939666362
2154.809661882293 1343.6027118715388
2155.433796195348 1373.3986746834373
2156.0577801037944 1403.057711540347
2156.681613642895 1582.389465071918
2157.3052968478896 1356.6193759112773
2157.928829754006 1474.2045003032194
2158.552212396462 1606.087244887537
2159.1754448104566 1354.4368165881203
2159.7985270311783 1332.0149242039067
2160.4214590938027 1091.7944764348715
2161.0442410334927 1131.349046420392
2161.6668728853874 1495.2241778366238
2162.289354684628 1434.522112221011
2162.911686466332 1459.1220818771583
2163.533868265602 1430.6457728000703
2164.1559001175337 1628.885651055953
2164.7777820572046 1557.5775041193253
2165.399514119681 1336.810176999496
2166.021096340013 1433.9861742123583
2166.6425287532384 1501.4387462416303
2167.263811394385 1371.2856233674815
2167.8849442984574 1365.4063160084959
2168.505927500455 1359.6561140865197
2169.126761035366 1489.152558057293
2169.7474449381552 1310.6432874618467
2170.367979243778 1278.3524501114853
2170.9883639871823 1369.2232229383212
2171.608599203293 1317.3065326633166
2172.2286849270276 1564.8562984092039
2172.8486211932886 1782.751452725309
2173.4684080369625 1451.698529466192
2174.0880454929265 1272.7860029720428
2174.7075335960417 1220.2121996983512
2175.3268723811543 1268.0245281734128
2175.9460618831 1315.975496087411
2176.565102136701 1574.9057151779427
2177.1839931767627 1401.0528326325923
2177.802735038078 1595.686180280093
2178.421327755432 1446.7112357701724
2179.0397713635866 1319.3090782474387
2179.658065897298 1458.4632836758906
2180.276211391305 1382.7479535136658
2180.8942078803357 1435.2160733917374
2181.5120553991 1448.9016258351717
2182.129753982299 1201.1083601868575
2182.7473036646206 1509.8622680230897
2183.3647044807367 1486.0579257906525
2183.9819564653044 1240.2422193780244
2184.599059652968 1581.2452629557768
2185.216014078367 1437.5240737887764
2185.832819776113 1236.697982251541
2186.4494767808137 1554.507683980798
2187.065985127063 1388.3429483278935
2187.682344849436 1175.6395245656236
2188.298555982501 1239.0632186549958
2188.9146185608097 1302.5172415996713
2189.530532618901 1553.4797245639325
2190.1462981912937 1507.1586477553487
2190.761915312507 1588.6938624764457
2191.377384017036 1330.0180487046705
2191.9927043393654 1403.4927752427616
2192.6078763139667 1520.8207503575147
2193.2228999753006 1284.7218425548544
2193.837775357808 1433.670107719151
2194.452502495922 1291.4496837901263
2195.0670814240602 1305.092649435454
2195.6815121766285 1339.3195621607379
2196.2957947880186 1239.0967810393784
2196.9099292926057 1539.8746522769181
2197.523915724758 1431.428112216702
2198.137754118825 1354.4679319831605
2198.7514445091456 1747.4150669694548
2199.3649869300443 1723.1978078536692
2199.9783814158327 1698.9963570874115
2200.5916280008096 1775.7698596106936
2201.2047267192593 1564.6946574336434
2201.8176776054515 1285.1599970698426
2202.430480693649 1204.8761105365516
2203.0431360180955 1498.39319975326
2203.6556436130195 1450.2486843333545
2204.268003512645 1096.7360470252602
2204.8802157511727 1412.3601684163755
2205.492280362796 1734.5359529276288
2206.1041973816937 1542.4829142143303
2206.715966842032 1312.0021420879925
2207.3275887779655 1388.2814215210342
2207.93906322363 1422.454615136357
2208.550390213153 1386.1303145257739
2209.1615697806465 1452.3480415100187
2209.7726019602105 1418.340806323393
2210.3834867859277 1255.6239692720728
2210.9942242918787 1401.7591386741046
2211.6048145121167 1494.2264588617995
2212.2152574806914 1770.4277471775663
2212.825553231638 1735.1326102574192
2213.435701798975 1699.9176012905768
2214.045703216707 1478.725924488619
2214.655557518832 1121.4614795029418
2215.2652647393297 1333.7001500006074
2215.874824912169 1415.978460539658
2216.4842380713 1498.604446668894
2217.09350425067 1345.3965582567646
2217.7026234842033 1520.8796003693556
2218.311595805819 1567.003946738004
2218.9204212494133 1520.3475966183653
2219.52909984888 1473.4769018934048
2220.137631638092 1213.1664868894563
2220.7460166509154 1424.958220562768
2221.354254921198 1338.8573439419938
2221.9623464827764 1575.476713389276
2222.5702913694713 1413.1739921517858
2223.178089615096 1568.3391971814071
2223.7857412534486 1361.117209783207
2224.39324631831 1341.4897170019597
2225.000604843457 1321.7931888454427
2225.607816862641 1506.1982667453974
2226.214882409611 1347.097453255159
2226.8218015180973 1507.0684136985215
2227.4285742218217 1419.8391172205481
2228.0352005544864 1430.814868260079
2228.6416805497847 1252.0627848997049
2229.248014241399 1316.4612684466742
2229.8542016629945 1256.280589408572
2230.460242848223 1410.6886752619507
2231.0661378307304 1210.5334864620447
2231.671886644139 1382.5938858956392
2232.277489322065 1177.8838727136201
2232.8829458981127 1116.1258509206828
2233.48825640587 1301.5934577895546
2234.0934208789095 1341.0181454011583
2234.6984393507955 1380.5174280638937
2235.3033118550793 1330.4613488713358
2235.9080384252975 1420.4149768235493
2236.5126190949723 1379.90169755918
2237.1170538976166 1339.3658900004061
2237.721342866729 1308.2916846111325
2238.32548603579 1094.2455937944128
2238.9294834382763 1303.0981038113966
2239.533335107646 1352.502469265231
2240.1370410773434 1283.1532569942462
2240.740601380803 1105.0569430669082
2241.3440160514474 1371.8556413199285
2241.9472851226783 1490.5983851612395
2242.550408627896 1508.7571686529354
2243.1533866004793 1526.971545856696
2243.756219073799 1392.6718234316047
2244.3589060812064 1110.6147958789395
2244.961447656049 1212.02612670232
2245.5638438316564 1464.4138193149547
2246.166094641343 1453.9632729808422
2246.7682001184166 1219.9102145245001
2247.3701602961664 1267.0702196105813
2247.971975207871 1431.548809087509
2248.5736448867974 1327.4831003523404
2249.175169366197 1437.2458725103927
2249.7765486793123 1378.9829945546337
2250.3777828593684 1246.069333517958
2250.9788719395783 1302.1321161878434
2251.579815953146 1350.744647291443
2252.1806149332606 1281.4724205330042
2252.781268913097 1388.2728666260978
2253.381777925817 1290.5019225524497
2253.9821420045737 1385.4681708599894
2254.5823611825035 1274.1406381717634
2255.1824354927303 1286.9385398382228
2255.782364968365 1283.3148089776541
2256.38214964251 1279.7260492192768
2256.9817895482483 1000.1648522736874
2257.5812847186553 1281.670999511663
2258.180635186791 1171.5304756867426
2258.779840985704 1201.0920123754374
2259.37890214843 1233.745671831112
2259.97781870799 1353.8455836337434
2260.5765906973957 1371.6465347508954
2261.175218149645 1434.7454088991933
2261.773701097718 1404.287808294113
2262.3720395745895 1175.710173409298
2262.970233613216 1494.385702256747
2263.568283246548 1389.5651223647342
2264.1661885075137 1246.647771192619
2264.763949429038 1161.1032475052496
2265.3615660440246 1330.33363111755
2265.959038385374 1234.0845331851783
2266.5563664859637 1476.5796887258737
2267.153550378669 1225.2876513213494
2267.7505900963424 1469.8285612684222
2268.3474856718312 1273.1325918069356
2268.9442371379664 1256.0799560561159
2269.5408445275643 1422.2261351209224
2270.1373078734377 1373.312001194935
2270.7336272083758 1217.221587235305
2271.32980256516 1351.7307355491562
2271.925833976562 1468.0926470898944
2272.5217214753357 1616.8808479231316
2273.117465094223 1658.4201468141164
2273.7130648659586 1470.9433621196333
2274.308520823257 1283.0909237256867
2274.903832998827 1544.6762932449835
2275.4990014253563 1376.558475873181
2276.094026135528 1476.643093300044
2276.6889071620117 1267.9019391812396
2277.2836445374614 1265.9147123401922
2277.878238294519 1150.893051944683
2278.472688465812 1138.6182065222408
2279.066995083962 1126.286551460119
2279.6611581815705 1200.001421731344
2280.255177791232 1118.6424802191366
2280.8490539455233 1517.1700939982995
2281.442786677013 1538.6760436929246
2282.0363760182554 1143.3047981679572
2282.6298220017943 1281.5081678253443
2283.223124660155 1258.6938728927526
2283.816284025859 1235.8980119218165
2284.4093001314086 1351.4066962086954
2285.002173009292 1346.7384323415185
2285.5949026919952 1511.234224058196
2286.1874892119777 1227.5568004023194
2286.7799326016993 1356.0946180511894
2287.3722328936 1374.8088533848563
2287.964390120109 1328.1771833786147
2288.556404313642 1281.3607119703286
2289.1482755066027 1310.8152663165306
2289.7400037313873 1360.7658701626212
2290.3315890203703 1164.524576859416
2290.9230314059205 1347.119324084981
2291.5143309203904 1254.9509553430346
2292.1054875961236 1381.0601156855816
2292.6965014654506 1330.0822822934808
2293.287372560684 1236.2790221164325
2293.878100914131 1187.5826650163465
2294.468686558086 1138.8205526799122
2295.059129524827 1415.2538467646305
2295.649429846617 1548.9699884420713
2296.239587555716 1150.5145479244652
2296.8296026843636 1328.8045042232443
2297.419475264791 1267.7905952082456
2298.0092053292137 1206.584373538309
2298.598792909839 1287.5940137664631
2299.1882380388597 1304.6003077005303
2299.777540748455 1427.2994481910741
2300.3667010707904 1341.6324497562866
2300.9557190380256 1185.1944099679197
2301.544594682302 1229.983667643811
2302.1333280357503 1274.801968335683
2302.721919130485 1244.9691711652076
2303.3103679986198 1512.6396714645966
2303.898674672242 1378.545209334917
2304.486839183437 1210.5920804970692
2305.0748615642697 1184.3319799016651
2305.6627418468015 1167.8165772110774
2306.2504800630704 1123.8845025120477
2306.8380762451143 1236.7557210084228
2307.425530424949 1338.5601319012028
2308.012842634582 1440.5877823945198
2308.6000129060103 1396.787745670974
2309.187041271214 1365.8886686436567
2309.773927762164 1256.8709175651277
2310.3606724108213 1439.1172783429956
2310.9472752491274 1454.7210019951494
2311.5337363090184 1470.3936471379793
2312.120055622414 1318.5860712790486
2312.706233221221 1361.1442752077978
2313.2922691373424 1158.016452928653
2313.8781634026564 1361.222501238326
2314.463916049037 1185.483684719807
2315.049527108342 1089.8815764472424
2315.6349966124235 1382.5863396329642
2316.2203245931123 1464.9624819989886
2316.8055110822315 1291.7072138761216
2317.3905561115935 1118.0354219602407
2317.9754597129977 1185.4368878838884
2318.560221918229 1112.258709790755
2319.1448427590603 1038.938647421573
2319.729322267256 1139.7483476287173
2320.313660474563 1161.1001584455646
2320.8978574127195 1268.2589552230017
2321.481913113452 1375.7645962309634
2322.0658276084705 1224.1847253391727
2322.6496009294806 1098.9407227324705
2323.233233108165 1092.1392888679186
2323.8167241762058 1187.503132951126
2324.4000741652617 981.0818595122342
2324.983283106987 1215.8703953828506
2325.5663510330232 1464.588265231763
2326.1492779749933 1363.471770797128
2326.7320639645204 1449.0584673435128
2327.3147090332004 1315.3209480802996
2327.897213212629 1287.579438411784
2328.4795765343843 1259.7015811891133
2329.0617990300307 1044.1298781034145
2329.643880731124 1394.880244499557
2330.22582166921 1104.7306048492676
2330.807621875816 1008.1729961210382
2331.3892813824623 911.5472077801236
2331.9708002206517 1037.9328931696764
2332.5521784218818 1222.371924138019
2333.133416017634 1237.2301563996139
2333.7145130393765 1296.400678528489
2334.295469518571 1350.6136961470588
2334.876285486658 1343.5602388316809
2335.456960975076 1374.9290198155784
2336.037496015242 1406.3917334031428
2336.6178906385667 1298.4789910753693
2337.198144876451 1240.0288834324033
2337.778258760278 1178.0182309947256
2338.3582323214214 1257.5405504745866
2338.938065591243 1337.2161265020616
2339.517758601087 1481.5780698367728
2340.0973113822965 1148.8930600389667
2340.676723966193 1177.6939305624794
2341.255996384094 1329.1219269921469
2341.835128667295 1577.6426237648752
2342.4141208470883 1333.5565269728934
2342.992972954751 1114.9574403275808
2343.5716850215467 895.9025282177539
2344.1502570787306 1217.8375814360993
2344.7286891575386 1014.0031999179994
2345.3069812892045 1298.2697702903774
2345.885133504944 1196.6462986873587
2346.4631458359618 1329.8435577750292
2347.04101831345 1274.9693630334289
2347.6187509685915 1219.97413976616
2348.196343832553 1222.4564462422034
2348.7737969364935 1138.5395530767817
2349.351110311558 1054.5422556642443
2349.9282839888765 1062.2278508718528
2350.5053179995757 804.1192099494222
2351.0822123747585 1014.7697593824114
2351.658967145526 1246.82702621288
2352.2355823429643 1126.933947926405
2352.812057998144 1220.987732406703
2353.3883941421263 1132.5941382148408
2353.9645908059647 1091.551656439387
2354.540648020693 1096.2348197924312
2355.116565817336 998.7452952373749
2355.6923442269126 1122.4578901318941
2356.2679832804224 1246.435738395528
2356.8434830088518 1302.5811983823662
2357.41884344318 1201.2762878752765
2357.994064614377 1131.6009947557664
