#exp_cfg={"servo_angle": 0.0, "laser_lim": 100.0, "servo_angle_to": 18.0, "laser_wup": 0.0, "bt_dev": "EnSpectr-25AE3", "laser_wdn_max": 0.0, "frames": 10.0, "servo_used": 0, "servo_calib_use": 0, "laser_wdn_min": 0.0, "servo_pix_from": 90.0, "cooler_tout": 300.0, "servo_angle_from": 0.0, "servo_calib": "[-1.9174921013161362e-09, 3.9322238269163779e-05, -0.27385609119055809, 653.59552119713567]", "laser_autoctl": 0, "servo_pix_to": 3682.0, "laser_pw": 100.0, "cooler_on": 0, "laser_volt": 4.0, "cooler_autoctl": 0, "cooler_curr": 70.0, "cooler_startup": 10.0, "laser_fixed_pw": 0, "gain": 1.3, "offset": 2.53059635486, "servo_calib_degree": 3.0, "laser_curr": 55.0, "shutter": 8200.0, "servo_calib_step": 1.0, "laser_fixed_curr": 0, "exp": 2000.0, "ccd_volt": 4.7, "bt_addr": "00:06:66:62:5A:E3", "servo_delay": 500.0, "laser_autooff": 1}
#proc_cfg={"flat_auto_wnd": 200.0, "flat_auto_fr": 200.0, "flat_auto_shift": 5.0, "yconv": 1, "flatten": 1, "flatten_strength": 100.0, "xfrom": 300.0, "auto_max_frame": 2000.0, "auto_signal": 48000.0, "flat_auto_tol": 0.1, "autoclip": 1, "xrel_range": 0.0, "flat_auto_to": 4000.0, "intensity_adj": 1.0, "xrel": 7852.0, "rmhot": 1, "flat_auto_slit": 4.999999999999997, "auto_ini_exp": 300.0, "auto_off": 0, "xto": 2860.0, "flat_auto_ref": "", "flat_auto_rank": 1, "autobackg": 0, "xrel_adj": 0.0, "auto_black_lvl": 1, "base_wnd": 100.0, "sub_baseline": 0, "xconv": 2, "auto_max_exp": 1000.0, "auto_total_exp": 10000.0, "auto_exp": 0, "rmripple": 0, "black_lvl": 8228.8625, "shutter_clip_adj": 0.0, "auto_bckg": 0, "flat_auto_thr": 0.9, "subbackg": 1}
316.8218498245369 5419.480928781559
317.89969571804795 5291.383651384718
318.977263876126 5303.0653439428115
320.05455438786703 5300.324503694505
321.1315673423287 5243.7358423622845
322.2083028285215 5330.394331835108
323.2847609354267 5226.141499092756
324.3609417519747 5198.0844928956185
325.43684536705587 5187.551526977391
326.5124718695279 5193.531661468286
327.58782134820103 5108.043081888991
328.66289389184385 5163.199516731098
329.7376895891921 5083.386702532937
330.8122085289342 5083.178636534742
331.88645079971866 5124.337922914018
332.9604164901575 5070.293135761329
334.03410568881554 5078.285737927845
335.1075184842266 5072.992271938927
336.18065496487543 4993.655144040631
337.2535152192122 5044.49889659598
338.32609933564163 5050.432434795082
339.39840740253203 4999.314608100878
340.4704395082099 4955.660092028519
341.5421957409617 4974.484225900688
342.6136761890357 4978.708479066746
343.6848809406365 4996.131183532389
344.75581008392874 4915.708340978986
345.82646370703696 4847.95939720047
346.8968418980512 4933.369241954658
347.96694474501055 4931.192353173893
349.0367723359268 4961.648815265502
350.106324758759 4918.316334072352
351.1756021014353 4855.364405454162
352.2446044518383 4919.13662147496
353.31333189781435 4907.010907344069
354.38178452716966 4897.942452593183
355.449962427665 4915.572348037715
356.51786568702846 4832.532939713345
357.58549439294256 4901.75211508078
358.6528486330535 4879.249163323545
359.71992849496564 4875.902557433427
360.7867340662433 4916.326968712347
361.8532654344144 4891.062767583247
362.9195226869597 4887.132178422535
363.9855059113288 4872.350378192682
365.05121519492604 4826.267417801788
366.11665062511565 4854.148320443337
367.1818122892273 4845.828267623261
368.2467002745434 4900.795102074251
369.31131466831175 4860.294466009111
370.375655557742 4861.499105786804
371.4397230299983 4882.909480566263
372.5035171722102 4807.2959743213105
373.5670380714637 4835.773453312807
374.6302858148101 4876.677575153118
375.6932604892554 4882.085633936098
376.7559621817709 4834.361436585519
377.81839097928605 4816.539761131482
378.8805469686886 4832.366306364735
379.94243023683157 4964.468990368658
381.0040408705263 4833.372898743113
382.0653789565458 4816.8810342751
383.1264445816196 4817.206893548077
384.1872378324406 4798.648777546101
385.2477587956637 4855.234500883429
386.3080075579037 4768.8878426786505
387.3679842057336 4765.516604892065
388.4276888256918 4768.348189193392
389.48712150426945 4771.3978467796605
390.54628232792857 4753.425450288965
391.6051713830857 4741.470671275916
392.66378875611736 4730.728417829129
393.7221345333637 4750.601533219926
394.7802088011249 4698.923086140281
395.838011645661 4747.743424602793
396.89554315319765 4691.369576156196
397.9528034099112 4675.2789147695175
399.00979250194723 4652.6521538638635
400.06651051541485 4645.01368935754
401.1229575363741 4666.982097142368
402.17913365085224 4655.054016783727
403.23503894483656 4669.541576374273
404.2906735042761 4637.623598839983
405.3460374150818 4579.455353420328
406.401130763119 4659.794517351561
407.455953634224 4634.207321243703
408.5105061141876 4595.370162329489
409.56478828876243 4544.650447744486
410.6188002436629 4581.260454697642
411.6725420645689 4566.748320828481
412.72601383711117 4588.747015117275
413.77921564689314 4627.546478772021
414.8321475794728 4570.7520418479535
415.88480972036814 4565.530097859272
416.93720215506437 4568.276510394129
417.9893249690049 4523.988186443741
419.04117824759123 4496.167615804316
420.09276207619223 4528.118326801825
421.144076540133 4530.101944861455
422.1951217247042 4532.942066564258
423.24589771515275 4489.8494100864755
424.2964045966928 4518.657769583064
425.34664245449494 4536.473936701991
426.3966113736933 4530.333485595512
427.4463114393875 4457.824432136467
428.49574273662984 4507.1433099670985
429.5449053504417 4465.399689145984
430.5937993658026 4502.100675849885
431.6424248676558 4443.93746174541
432.6907819409007 4415.228854352552
433.73887067040596 4464.031733937236
434.7866911409965 4445.076538020565
435.8342434374608 4463.988119323184
436.88152764455117 4449.086207202599
437.9285438469724 4470.4149099082215
438.9752921294057 4426.095059580594
440.02177257648145 4457.8297471387195
441.06798527279716 4366.182515704689
442.1139303029122 4450.6079616840425
443.1596077513459 4469.132367340195
444.2050177025794 4427.868825079657
445.25016024105753 4402.847017221168
446.2950354511886 4396.031408457258
447.33964341733736 4392.925485586371
448.383984223834 4404.979320520972
449.4280579549686 4358.748992783616
450.471864694995 4372.253433055929
451.5154045281306 4390.649408317393
452.5586775385509 4392.905917560152
453.60168381039693 4419.40995863538
454.64442342776783 4411.980214760661
455.6868964747264 4427.540071156222
456.7291030353008 4375.877676602352
457.77104319347563 4408.53927167555
458.8127170332027 4305.7904350707295
459.854124638392 4401.612235306733
460.895266092919 4370.817596627078
461.93614148061897 4379.841326413897
462.97675088529104 4383.278024695402
464.01709439069236 4364.2993324188255
465.0571720805492 4355.960279000618
466.0969840385442 4391.867943212579
467.1365303483253 4411.2322987071475
468.17581109350067 4393.189862504054
469.2148263576437 4339.345189035599
470.2535762242878 4418.637481132526
471.29206077693016 4465.7808745003085
472.33028009902773 4461.750047443478
473.3682342740012 4414.181812020558
474.40592338523857 4368.614039804101
475.4433475160804 4459.702393641259
476.4805067498364 4423.262359112463
477.51740116978 4453.493917632531
478.5540308591426 4482.326350311366
479.59039590112116 4510.990008161611
480.6264963788726 4493.696953660085
481.6623323755193 4485.560926987219
482.6979039741436 4525.199607877972
483.7332112577915 4574.182944573351
484.76825430947247 4650.61550364271
485.80303321215797 4634.132048205118
486.837548048783 4643.57018252915
487.8717989022425 4680.141741869504
488.90578585539697 4746.77971588644
489.9395089910686 4780.888721884663
490.97296839203955 4736.686059975982
492.00616414106116 4688.349891108432
493.0390963208429 4697.949383771233
494.0717650140559 4776.929623944782
495.10417030333883 4710.850404751304
496.1363122712901 4660.459130185965
497.16819100046814 4638.231153434255
498.1998065734024 4571.4151404652985
499.2311590725767 4596.563620045396
500.26224858044407 4532.1346822726455
501.2930751794156 4484.763151256577
502.3236389518679 4503.035079106683
503.35393998014115 4499.494233354236
504.38397834653733 4413.6372110379225
505.4137541333221 4393.775533111907
506.4432674227228 4411.904784022794
507.4725182969323 4365.49377195446
508.5015068381035 4309.4087375648105
509.53023312835467 4341.983670770073
510.55869724976765 4356.348484530664
511.58689928438434 4306.349598891263
512.6148393142121 4255.135796230808
513.6425174212218 4339.042230049547
514.6699336873462 4288.66453114672
515.6970881944835 4317.1094285400595
516.7239810244901 4272.687562326736
517.7506122591931 4343.571013054213
518.7769819803761 4327.075194122938
519.8030902697901 4387.202539057546
520.8289372091476 4355.344072818831
521.8545228801249 4389.514631286131
522.8798473643619 4346.3085441050125
523.9049107434621 4414.5779441976265
524.9297130989908 4341.725770031562
525.9542545124805 4336.530691649794
526.9785350654201 4365.74600257737
528.0025548392696 4341.168126377247
529.0263139154504 4280.4501083490995
530.0498123753423 4300.258094132807
531.073050300296 4300.7207291892755
532.0960277716204 4238.4008068806115
533.1187448705896 4258.059515910705
534.1412016784416 4255.883106511822
535.1633982763833 4224.355202686123
536.1853347455726 4256.084417568504
537.2070111671401 4265.270102893743
538.2284276221817 4199.280587458761
539.2495841917516 4206.22333056744
540.2704809568677 4174.613018571148
541.2911179985167 4175.858699517134
542.3114953976419 4110.253377040854
543.3316132351592 4110.787706897096
544.3514715919409 4128.3614427937155
545.3710705488247 4084.19696673053
546.3904101866156 4064.3505619637776
547.4094905860784 4110.507445224919
548.4283118279418 4113.018091120242
549.4468739929034 4100.992119049316
550.4651771616191 4091.2964567028694
551.4832214147063 4053.781474222256
552.501006832761 4052.3637651094637
553.5185334963226 4059.472441914256
554.5358014859103 4100.239484824693
555.5528108820035 4075.701034306242
556.5695617650363 4157.98395311788
557.5860542154242 4110.35708226489
558.6022883135283 4083.6860014175727
559.6182641396881 4071.6176424949235
560.6339817741991 4042.8405769151695
561.6494412973225 4053.7136753313257
562.6646427892883 4134.4900387545595
563.6795863302796 4019.0462701936485
564.694272000459 4038.538655836528
565.7086998799423 4084.6054275257984
566.7228700488104 4038.951261843111
567.7367825871115 3985.399003367941
568.7504375748576 3995.31822271907
569.7638350920224 4079.1511435187613
570.7769752185486 4031.733123980175
571.7898580343353 4058.099810165154
572.802483619258 4051.610330967839
573.8148520531431 4058.1241702130997
574.8269634157932 4058.2596488691424
575.8388177869692 4025.880715093868
576.8504152463938 4037.588859743406
577.8617558737587 4143.278641254053
578.8728397487175 4027.378302833039
579.883666950891 4078.0891677739687
580.8942375598654 4116.582251804288
581.9045516551851 4116.232101685497
582.9146093163617 4221.772960842299
583.924410622878 4190.38073355745
584.9339556541727 4191.361307423878
585.9432444896538 4155.248625254587
586.9522772086875 4174.788090344157
587.9610538906127 4165.478454027358
588.9695746147318 4197.604657857412
589.9778394603054 4283.455765830014
590.985848506567 4184.592944656248
591.9936018327098 4161.891015086403
593.0010995178891 4093.636188944565
594.0083416412344 4150.267157601726
595.0153282818283 4106.212577432423
596.0220595187293 4085.3745533384886
597.0285354309508 4100.990137467792
598.0347560974806 4025.9934284627743
599.0407215972609 4057.967987209656
600.0464320092051 4021.918425318899
601.0518874121954 4055.2116787381647
602.0570878850685 3986.2704836523603
603.062033506636 4015.697339801153
604.0667243556636 3985.5920014273383
605.0711605108936 3997.7268692165258
606.0753420510264 4077.720435290593
607.0792690547278 3948.0943024354347
608.082941600629 3950.821465137581
609.0863597673306 4008.57503087084
610.0895236333909 4005.2028458981085
611.0924332773357 4091.3042961070546
612.0950887776617 4029.1938958705955
613.0974902128219 4071.1167788678854
614.0996376612384 4037.6826836113382
615.1015312013005 4097.911034376129
616.1031709113595 4103.470553328314
617.1045568697336 4045.900061121971
618.1056891547069 4090.2028086044775
619.1065678445229 4159.8440948243215
620.1071930173985 4253.582341919906
621.1075647515099 4194.883089337722
622.1076831250048 4220.415381081073
623.1075482159849 4297.676094090321
624.1071601025305 4281.208655101128
625.1065188626781 4319.8850984005685
626.105624574433 4384.825276746464
627.1044773157682 4451.292874057162
628.1030771646128 4467.063987586034
629.1014241988742 4485.937029305777
630.0995184964158 4484.664031155316
631.0973601350688 4546.773372549897
632.0949491926294 4643.538234058715
633.0922857468631 4528.570598350907
634.089369875499 4569.056568897465
635.0862016562278 4567.308460348479
636.0827811667077 4456.2458387815705
637.0791084845641 4586.4865552305255
638.0751836873878 4496.519953493922
639.0710068527369 4550.625491565517
640.0665780581294 4430.016418703571
641.0618973810506 4414.814272928122
642.0569648989604 4516.2167339536845
643.0517806892676 4311.808486364437
644.0463448293649 4398.0504637462545
645.040657396592 4298.283103412556
646.0347184682723 4219.470282207278
647.0285281216875 4155.78932009674
648.0220864340772 4118.862280155097
649.0153934826558 4106.948161946836
650.0084493446047 4092.2478036924867
651.0012540970674 4061.887459266048
651.9938078171526 4015.0207238170137
652.9861105819346 3977.8992188935363
653.9781624684565 4054.97951183942
654.9699635537254 3954.7944458451907
655.9615139147136 3977.662984026329
656.9528136283589 3888.885252507657
657.9438627715699 3971.99110773592
658.9346614212154 3903.0022163862413
659.925209654135 3857.30024423132
660.9155075471263 3888.0701070356145
661.9055551769616 3904.9597570963865
662.895352620375 3927.2560178657573
663.8848999540678 3825.235916552195
664.8741972547068 3828.5883096324033
665.863244598926 3799.159276567398
666.8520420633213 3853.6468008928364
667.8405897244611 3763.40270673674
668.8288876588758 3778.5375837785964
669.8169359430613 3828.2878098394676
670.8047346534822 3810.778195007978
671.7922838665672 3781.5141903805225
672.7795836587156 3759.2939113896355
673.766634106285 3935.3653486388384
674.7534352856092 3757.1526844944774
675.7399872729766 3714.9186408536307
676.7262901446538 3798.8013316679326
677.712343976862 3790.344702288979
678.6981488457986 3838.3694195047
679.6837048276229 3745.559185219349
680.6690119984596 3788.8627458265555
681.6540704344043 3839.460041084855
682.6388802115107 3753.4538624960287
683.6234414058108 3807.8518801973923
684.6077540932874 3760.36784885409
685.591818349907 3775.022230637969
686.575634251587 3811.982278876139
687.5592018742263 3714.610496767703
688.5425212936734 3678.5576333803997
689.5255925857564 3734.7997808027612
690.5084158262707 3717.194644563739
691.4909910909646 3719.9986149380156
692.4733184555644 3654.914529381066
693.4553979957618 3754.1166339988135
694.4372297872123 3773.288627041864
695.4188139055404 3706.2024363058435
696.4001504263324 3629.907559344244
697.3812394251509 3704.6573795997638
698.3620809775111 3706.339630936928
699.3426751589104 3730.997398967046
700.3230220448004 3678.0204984702555
701.3031217106054 3760.91608924982
702.2829742317172 3732.0772728979655
703.2625796834873 3600.5026584236825
704.2419381412474 3608.3283782718513
705.22104968028 3673.2198702723645
706.1999143758458 3686.5125984071806
707.178532303169 3592.7077229381453
708.1569035374378 3655.328852915876
709.1350281538107 3712.455804273919
710.1129062274158 3630.4919181260325
711.0905378333373 3682.33577735812
712.0679230466376 3641.5324863947267
713.0450619423427 3711.5749140208295
714.0219545954424 3746.2166888176303
714.9986010808989 3625.440630174805
715.9750014736292 3605.6028919618584
716.9511558485392 3687.754549015147
717.9270642804786 3747.117618185719
718.9027268442787 3715.512125864277
719.8781436147328 3713.682696975617
720.8533146666014 3666.9648763590094
721.828240074612 3693.2764454176313
722.8029199134635 3700.216340367082
723.7773542578125 3631.153559199573
724.751543182294 3690.401266458164
725.7254867615029 3704.5976290678
726.6991850700015 3697.6326925196145
727.6726381823228 3692.599467340676
728.6458461729599 3674.263210029139
729.6188091163858 3662.1035147421326
730.5915270870246 3631.7922321589476
731.5640001592856 3637.90715022365
732.536228407529 3495.845706551592
733.5082119060917 3613.9589876197692
734.4799507292755 3639.1288361836646
735.4514449513481 3616.575755216892
736.4226946465496 3614.1053591192845
737.3936998890786 3722.3835834183456
738.3644607531078 3606.274541058878
739.3349773127793 3586.76116899313
740.3052496421951 3600.303458143216
741.27527781543 3598.002781084033
742.2450619065221 3594.3653495904764
743.2146019894826 3605.9297377993294
744.183898138288 3641.8480120105914
745.1529504268801 3637.0513023935296
746.1217589291682 3639.714392400875
747.0903237190341 3578.625571502086
748.058644870318 3596.9679953726204
749.0267224568397 3598.3841406037595
749.994556552374 3542.1306734037644
750.9621472306771 3587.775425901675
751.9294945654583 3605.854879551399
752.8965986304011 3609.236575568472
753.8634594991636 3545.0733197907516
754.8300772453586 3606.9935864346944
755.7964519425768 3547.3287324542457
756.762583664371 3651.9341263649744
757.7284724842611 3606.086987879326
758.6941184757416 3590.4577710995773
759.6595217122667 3610.008237885754
760.6246822672638 3594.707626242586
761.5896002141235 3558.956816929389
762.5542756262093 3591.9942029359836
763.5187085768503 3572.005691329531
764.4828991393406 3584.2420328303806
765.4468473869474 3541.340665854731
766.4105533929032 3588.915620667314
767.3740172304078 3577.222628223607
768.3372389726283 3547.8726695542478
769.3002186926988 3519.9539842684053
770.2629564637282 3528.926726074815
771.2254523587872 3496.58377128486
772.1877064509154 3461.5604042000195
773.1497188131179 3479.8494819883213
774.1114895183728 3498.496955579576
775.0730186396268 3499.1125300343424
776.0343062497905 3436.3191923888908
776.9953524217381 3518.913981794256
777.9561572283274 3495.6390745145754
778.9167207423689 3453.8639061704425
779.8770430366476 3402.0144193990527
780.8371241839159 3433.7762470330003
781.7969642568951 3429.06352509255
782.7565633282757 3513.4399487396686
783.7159214707099 3401.325603213886
784.6750387568281 3459.019505222835
785.6339152592227 3407.1684633225605
786.5925510504512 3374.009712985736
787.5509462030477 3454.1902053659046
788.5091007895098 3443.6466618218997
789.4670148823006 3429.8400281756753
790.4246885538596 3453.3793250082576
791.3821218765861 3380.100645273674
792.3393149228505 3389.536229156644
793.2962677649975 3392.5095277313812
794.2529804753303 3467.4155445978504
795.20945312613 3452.657505441358
796.1656857896378 3397.1146315225437
797.1216785380675 3375.7335256880842
798.0774314435985 3414.8226531906066
799.0329445783846 3496.617434673802
799.9882180145414 3472.23700303027
800.9432518241574 3450.460272392309
801.89804607929 3453.387186016339
802.852600851962 3471.7579471953213
803.8069162141637 3472.6394914907587
804.760992237856 3551.556232314677
805.714828994971 3547.354269673161
806.6684265574077 3521.6879110819964
807.6217849970271 3475.7655455174854
808.574904385674 3533.293528783972
809.527784795142 3537.6782871647833
810.4804262972102 3583.259018847294
811.4328289636178 3465.9834707342984
812.3849928660748 3443.4491970886424
813.3369180762638 3506.80207313383
814.2886046658241 3464.928938004609
815.2400527063783 3446.61065069539
816.1912622695108 3436.476467526547
817.1422334267718 3459.246277332992
818.0929662496856 3417.691789013969
819.0434608097457 3382.0536365262205
819.9937171784059 3395.554557014218
820.9437354271013 3366.6124403133786
821.8935156272255 3351.4689195136584
822.8430578501484 3325.6611866420303
823.7923621672016 3244.993181663237
824.7414286496896 3340.1308736771484
825.6902573688876 3355.4166583317515
826.6388483960363 3307.4309031681246
827.5872018023492 3267.441402402994
828.5353176590033 3335.1415882052315
829.4831960371503 3322.1561267693605
830.4308370079016 3307.4061399954676
831.3782406423525 3262.5414001354125
832.3254070115545 3321.9292508028593
833.2723361865319 3240.482763057603
834.2190282382799 3216.0901001441007
835.1654832377644 3332.377074097876
836.1117012559116 3225.6450882723148
837.0576823636256 3268.9307882809635
838.003426631778 3223.826709643888
838.9489341312074 3225.675873068635
839.8942049327197 3300.7028998140827
840.8392391070975 3261.7789688227617
841.7840367250865 3215.659712927406
842.7285978573982 3225.8017726669054
843.672922574724 3263.0879361185234
844.6170109477152 3248.5446256129694
845.560863046996 3240.1650019506733
846.5044789431595 3239.842837486566
847.4478587067697 3249.1583165494785
848.3910024083561 3267.8189040574957
849.333910118421 3239.6401297852385
850.2765819074339 3177.5036189863577
851.2190178458332 3281.353945024655
852.161218004032 3299.112933081251
853.1031824524016 3244.543207556427
854.0449112612987 3192.3520040125272
854.9864045010327 3282.8622783940714
855.9276622418947 3187.188011048735
856.8686845541379 3278.927009885985
857.8094715079915 3229.259817293072
858.7500231736467 3231.348768771083
859.690339621271 3259.598739947327
860.6304209209939 3229.156073125213
861.5702671429244 3161.194143083148
862.5098783571284 3235.579378586684
863.4492546336569 3177.8360429900354
864.3883960425155 3191.6443934240015
865.3273026536863 3257.941582365776
866.2659745371238 3186.872073968959
867.2044117627465 3295.10484422957
868.1426144004472 3184.528358764217
869.0805825200823 3242.1654016806324
870.0183161914847 3261.759372607628
870.9558154844526 3235.5140166842457
871.8930804687552 3244.8683276532383
872.8301112141307 3163.7936514448756
873.7669077902865 3269.049263587163
874.7034702669062 3366.6843960637925
875.6397987136315 3282.4741398993974
876.5758932000863 3239.956588891385
877.5117537958522 3282.265337989834
878.4473805704911 3279.9331992664047
879.3827735935283 3267.571101390368
880.3179329344603 3359.004709376448
881.2528586627541 3330.1595027283925
882.1875508478479 3369.4842578073367
883.1220095591489 3290.4901236979085
884.0562348660296 3266.7664458887803
884.9902268378391 3382.370456086057
885.9239855438955 3340.3731310382273
886.8575110534839 3311.1225097558695
887.7908034358588 3268.762465445197
888.7238627602474 3361.7903968272185
889.6566890958475 3321.053736615248
890.5892825118208 3243.538226161657
891.5216430773125 3280.234104252785
892.4537708614189 3261.776882933422
893.3856659332196 3222.840029218972
894.3173283617652 3192.9677787353044
895.2487582160684 3209.2099271374364
896.179955565116 3191.455774823108
897.110920477864 3119.2291002118127
898.0416530232451 3168.2954905771776
898.9721532701478 3150.55449379114
899.9024212874428 3252.9811574842574
900.8324571439662 3159.2818063387986
901.7622609085302 3121.546314782806
902.6918326499072 3130.7062339173513
903.6211724368477 3138.5253134749228
904.5502803380696 3188.7118876563727
905.4791564222614 3186.6039954182343
906.4078007580792 3134.0705882169623
907.3362134141571 3091.5247094038414
908.2643944590909 3173.4842575731464
909.1923439614493 3139.940105167764
910.1200619897754 3155.751364186675
911.0475486125779 3247.2376212641657
911.9748038983344 3141.5576620282927
912.9018279155007 3089.9493096805163
913.8286207324982 3044.6499038935854
914.7551824177117 3113.689343045702
915.6815130395116 3100.9177282560895
916.6076126662283 3082.758703917067
917.533481366163 3055.8897384160673
918.4591192075914 3114.725791048337
919.3845262587565 3112.4881976447273
920.3097025878706 3086.8840221385244
921.2346482631237 3087.3227866203038
922.1593633526682 3115.5102777938037
923.0838479246304 3105.383270715608
924.0081020471061 3176.008140917984
924.9321257881656 3049.0498477806095
925.8559192158464 3076.763829817508
926.7794823981512 2965.241283956322
927.7028154030686 3033.323747644411
928.6259182985414 3029.8211749030447
929.5487911524906 3109.9581444180644
930.4714340328119 3103.7015419674826
931.3938470073608 3036.4437186907003
932.3160301439748 3038.2394219870685
933.2379835104548 3049.461000905739
934.1597071745709 3063.443660948584
935.0812012040769 3052.717017832346
936.002465666681 3011.792478220078
936.9235006300696 3034.3111491397003
937.8443061619055 3067.98548623472
938.7648823298077 2998.311090675854
939.6852292013809 2979.690817397101
940.6053468441951 3068.7099336346128
941.5252353257874 2975.3447047191717
942.4448947136698 3060.7947277411145
943.364325075323 2948.5398317978647
944.2835264782043 2910.330514211571
945.2024989897309 2926.4035672615914
946.1212426773054 2988.775869726819
947.0397576082851 2990.6856623967274
947.9580438500125 3042.703475587007
948.8761014697939 2966.4739582560856
949.7939305349064 2976.490395260882
950.7115311125999 2963.2287515593193
951.6289032700952 2942.365013181757
952.5460470745875 3006.1144905698866
953.4629625932339 2925.4117684808502
954.3796498931715 2965.7606286859473
955.2961090415029 3020.163020883749
956.2123401053068 2994.927718444838
957.1283431516276 2961.154767913173
958.0441182474842 2906.397992948503
958.9596654598663 2978.43094131055
959.8749848557309 2930.171117286535
960.7900765020167 2941.232859959463
961.7049404656209 2904.175373316337
962.6195768134185 2971.6521086132734
963.5339856122537 2920.0370059358693
964.4481669289453 2949.8548751809935
965.3621208302793 2881.1501660458907
966.2758473830145 2948.435978229722
967.1893466538822 2972.6648583703504
968.1026187095813 2961.3799315096812
969.0156636167867 3020.63265699341
969.9284814421426 3012.693498717207
970.8410722522622 2881.723664661011
971.753436113735 2949.5443786626956
972.6655730931161 2936.5432486999157
973.5774832569368 2980.0745343579074
974.4891666716958 2974.444483542528
975.4006234038698 2884.9520262019887
976.3118535198955 2916.7347748476504
977.2228570861935 2983.593170855158
978.1336341691494 2932.867681714216
979.0441848351202 2902.0664592181465
979.9545091504333 2952.960735871905
980.864607181391 2935.145726010477
981.7744789942699 2967.5543040521334
982.6841246553086 2932.527291140206
983.5935442307236 2902.0335963979846
984.5027377867027 2921.1544448494005
985.4117053894024 2954.411772022815
986.3204471049557 2926.373324286044
987.2289629994648 2998.1984675706185
988.1372531390007 3003.4280536203414
989.0453175896091 2971.2527140276807
989.9531564173067 3012.3441832333074
990.860769688079 2905.213215111518
991.7681574678918 2940.8204962092923
992.6753198226706 2900.996486977948
993.582256818323 2942.8274089420865
994.4889685207218 2921.499611233115
995.3954549957143 3033.2200793284283
996.301716309119 2927.17280535213
997.2077525267232 2964.213300003676
998.1135637142943 2931.3552643898283
999.0191499375615 2993.0647752661457
999.924511262232 2964.7942183124064
1000.8296477539861 2959.3925310679365
1001.7345594784656 2936.8337997568606
1002.6392465012996 2925.41724133104
1003.5437088880753 3008.817547980754
1004.4479467043584 3045.7850685823223
1005.3519600156869 2872.860540909537
1006.2557488875718 2958.9339430272857
1007.1593133854858 3006.7308333980695
1008.0626535748888 2921.190249550902
1008.9657695212009 2919.7516753676887
1009.8686612898182 3000.9029123878695
1010.7713289461135 3019.6613670938564
1011.6737725554212 2933.6865858384544
1012.5759921830577 2920.1894851657894
1013.4779878943027 2995.462710980317
1014.379759754418 2910.6752148099026
1015.2813078286254 2882.219874355623
1016.18263218213 2907.3976924018225
1017.0837328801026 2909.6248635951483
1017.9846099876886 2904.1885532413335
1018.8852635700023 2875.6508883048527
1019.7856936921362 2837.8583565842046
1020.6859004191447 2910.702069304118
1021.5858838160675 2827.898487351851
1022.4856439479063 2829.3098570615084
1023.3851808796389 2772.6627689178677
1024.2844946762143 2872.282945511478
1025.183585402554 2845.763955859108
1026.082453123554 2750.8373701100145
1026.9810979040776 2892.194871907267
1027.8795198089647 2785.4381106630094
1028.777718903024 2868.282604244615
1029.6756952510368 2812.2480660535225
1030.5734489177648 2833.3220309521525
1031.4709799679313 2792.7524419276633
1032.3682884662358 2928.700603204331
1033.2653744773506 2767.4638026321127
1034.1622380659192 2823.441401365184
1035.058879296559 2952.4773389371076
1035.9552982338591 2859.251045793505
1036.8514949423825 2936.0998004318217
1037.7474694866614 2886.1203599083537
1038.6432219312028 2831.487631021874
1039.5387523404825 2922.6118138307284
1040.4340607789582 2952.492328857767
1041.3291473110476 2928.7737086112766
1042.2240120011465 2991.2833595152415
1043.1186549136273 3025.1755669097975
1044.0130761128294 3026.602969217446
1044.9072756630649 2946.039091425955
1045.8012536286205 3031.3612538806533
1046.6950100737577 3030.6391419525894
1047.588545062701 3135.65441827035
1048.481858659663 3020.4652067807415
1049.3749509288118 3128.382681042042
1050.2678219343034 3049.7247339108126
1051.1604717402515 3065.8830315968285
1052.0529004107575 3005.7219613050247
1052.9451080098825 3058.2095152620273
1053.8370946016694 3005.878637672955
1054.7288602501267 2988.3765700123395
1055.6204050192446 3023.462727456258
1056.511728972977 2981.5088586589263
1057.402832175254 2912.775987679254
1058.2937146899785 2898.546114045713
1059.1843765810263 2859.4611166158365
1060.0748179122456 2880.0320252325146
1060.9650387474576 2815.9600124390277
1061.855039150456 2846.8208650913098
1062.7448191850071 2750.8738416162805
1063.6343789148505 2818.4016478965227
1064.5237184037014 2865.8041416939736
1065.412837715241 2871.7145108293653
1066.3017369131267 2736.876603913483
1067.190416060992 2723.419313558677
1068.0788752224398 2718.7037187007913
1068.9671144610438 2778.2069623857437
1069.8551338403558 2724.1014115073476
1070.7429334239023 2818.5127522164075
1071.6305132751695 2695.4798228728037
1072.517873457633 2774.653469903668
1073.4050140347335 2690.2501784165843
1074.2919350698776 2744.1486528001533
1075.1786366264623 2677.0198620596084
1076.0651187678395 2753.321034131069
1076.95138155735 2661.4093171541667
1077.8374250582929 2679.948455433879
1078.7232493339507 2653.4220940913074
1079.608854447577 2685.759675812303
1080.4942404623907 2606.7694471364475
1081.3794074415982 2680.659913985273
1082.2643554483657 2738.356255647358
1083.149084545841 2654.846482615628
1084.033594797138 2643.1817300385455
1084.9178862653516 2660.470720641485
1085.8019590135427 2694.6095823877176
1086.6858131047484 2577.957337272849
1087.5694486019802 2660.6347399805145
1088.4528655682225 2652.366354341205
1089.3360640664287 2641.674100800652
1090.2190441595321 2687.8867411143883
1091.1018059104317 2620.5054039332963
1091.98434938201 2704.072602044806
1092.866674637111 2734.2198330041224
1093.748781738559 2564.7205500258565
1094.6306707491512 2479.0278905295845
1095.5123417316554 2665.514408586323
1096.3937947488157 2589.499991610611
1097.2750298633455 2596.1275281486387
1098.156047137938 2532.9492555266293
1099.0368466352556 2615.137372186203
1099.9174284179317 2636.2189212805433
1100.7977925485757 2564.209752023541
1101.6779390897755 2600.151457035793
1102.5578681040806 2569.76649601974
1103.4375796540226 2586.6740927315036
1104.3170738021054 2607.5672181600994
1105.1963506108077 2542.2586712864586
1106.0754101425773 2549.4887929182632
1106.9542524598382 2548.7101123338334
1107.8328776249855 2527.8889624552294
1108.7112857003904 2549.106463930158
1109.5894767483987 2508.572515642065
1110.4674508313292 2657.1943629903058
1111.3452080114657 2597.035678927971
1112.2227483510815 2620.5611839534968
1113.1000719124077 2636.966062747858
1113.9771787576592 2547.331156614043
1114.854068949022 2540.401139246872
1115.7307425486542 2609.5813847350646
1116.6071996186893 2591.4544738326413
1117.483440221229 2856.0668888927444
1118.3594644183577 2624.956076222866
1119.235272272128 2647.060559133268
1120.1108638445658 2646.4190560265274
1120.9862391976712 2753.0411957248316
1121.8613983934229 2707.631992588283
1122.7363414937627 2685.804134241482
1123.6110685606182 2742.483783762679
1124.485579655884 2752.904492502072
1125.359874841426 2735.3347960828037
1126.2339541790916 2806.748120966021
1127.1078177306936 2861.313775767025
1127.9814655580267 2745.767131202546
1128.854897722851 2769.9890588870926
1129.7281142869106 2773.506891300132
1130.6011153119125 2801.287704010044
1131.473900859548 2848.4490783086258
1132.3464709914697 2728.0548644095843
1133.2188257693178 2749.430659511245
1134.0909652546961 2751.356479039675
1134.96288950919 2606.9017983606495
1135.8345985943506 2753.739165423489
1136.7060925717087 2673.272560222963
1137.57737150277 2675.208458221785
1138.4484354490069 2736.062409624348
1139.3192844718778 2662.56992070282
1140.1899186327992 2600.72690109533
1141.060337993178 2694.728206855602
1141.930542614382 2586.0094329487642
1142.8005325577597 2638.7501765382417
1143.670307884635 2483.4450438986764
1144.5398686563003 2652.822922479121
1145.409214934025 2621.0335398899742
1146.2783467790541 2510.315781886319
1147.1472642526023 2543.812897908278
1148.0159674158622 2619.45002893284
1148.8844563300026 2495.3156843525294
1149.7527310561618 2505.2331361063048
1150.6207916554504 2485.3874435328207
1151.4886381889592 2411.9852450726316
1152.3562707177498 2496.8004430922215
1153.2236893028585 2483.6223050803974
1154.090894005296 2385.004602892977
1154.9578848860474 2463.2177502631166
1155.8246620060709 2386.826402188523
1156.6912254262988 2377.4790120002413
1157.5575752076438 2391.9348395186457
1158.42371141098 2488.5647787839425
1159.2896340971656 2436.792550689783
1160.1553433270346 2411.479100597197
1161.0208391613887 2465.9671043716053
1161.8861216610057 2417.02301106465
1162.75119088664 2468.4862892215106
1163.6160468990201 2456.520042951948
1164.4806897588442 2359.1222127827286
1165.3451195267917 2371.231357482713
1166.2093362635114 2360.2782272733457
1167.0733400296285 2459.551140698677
1167.9371308857444 2326.2544517579386
1168.8007088924278 2359.372704391987
1169.6640741102328 2322.750377155397
1170.5272265996773 2331.5795675201784
1171.390166421259 2359.7113205292817
1172.252893635452 2358.514826348515
1173.1154083026995 2406.5336696168315
1173.977710483421 2436.5779204311884
1174.8398002380145 2359.617998798081
1175.7016776268483 2406.4133987109512
1176.563342710264 2284.527985443524
1177.4247955485826 2312.0448119843177
1178.2860362020947 2433.805402884268
1179.147064731069 2268.5919971888434
1180.0078811957483 2341.693548547635
1180.8684856563486 2363.462450335082
1181.7288781730604 2342.9179531494165
1182.589058806052 2381.582852002003
1183.4490276154593 2470.051428427616
1184.3087846614017 2295.3019380161827
1185.1683300039676 2381.701298580314
1186.027663703222 2517.2688408485556
1186.8867858192025 2348.2245866731582
1187.7456964119228 2398.4165590992475
1188.6043955413716 2493.7536028765594
1189.4628832675116 2429.2764948407753
1190.3211596502842 2498.092904931081
1191.179224749596 2507.5139009936634
1192.0370786253388 2374.3539243914765
1192.8947213373758 2471.5926968862636
1193.7521529455407 2589.6663059747466
1194.6093735096438 2406.1941247106615
1195.466383089477 2383.5015737894146
1196.3231817447977 2386.033520913891
1197.1797695353398 2447.8142083923594
1198.0361465208189 2427.562319899045
1198.8923127609214 2355.5490584120334
1199.7482683153048 2503.721587375261
1200.6040132436028 2477.1283264745143
1201.459547605431 2374.6216857479626
1202.3148714603722 2424.360129668851
1203.1699848679855 2385.777079775674
1204.0248878878065 2517.033612716522
1204.8795805793507 2299.4018792356956
1205.7340630020935 2468.950711539025
1206.5883352155033 2472.984631842802
1207.4423972790064 2449.1647003590683
1208.2962492520237 2398.36072132056
1209.1498911939307 2422.9524915928987
1210.0033231640937 2369.7537892543587
1210.8565452218427 2471.867470058478
1211.7095574264913 2235.264742341509
1212.5623598373222 2312.5113034353635
1213.4149525135963 2229.2325386658986
1214.2673355145507 2238.9136608156005
1215.1195088993936 2280.8295989665644
1215.9714727273113 2281.4827493968614
1216.8232270574663 2463.512679172579
1217.6747719489904 2192.7611737729308
1218.5261074609934 2272.380482784017
1219.3772336525653 2325.978338267964
1220.2281505827668 2377.3705162490164
1221.0788583106296 2387.761092663719
1221.9293568951707 2198.224973685522
1222.7796463953746 2233.2117516503945
1223.629726870202 2252.8153474025125
1224.4795983785934 2315.77764116097
1225.3292609794553 2275.60075608637
1226.1787147316809 2251.1620100328278
1227.0279596941327 2215.345867181655
1227.8769959256424 2265.163295978799
1228.7258234850306 2299.246271602569
1229.5744424310833 2170.622868434274
1230.422852822563 2270.515223897083
1231.2710547182105 2302.7544686410824
1232.119048176739 2309.5888852501985
1232.9668332568417 2142.8478828057864
1233.8144100171812 2311.719871146094
1234.6617785163999 2274.9328638764887
1235.508938813111 2173.288585537529
1236.3558909659114 2194.0607275615935
1237.2026350333617 2386.141585524455
1238.049171074008 2328.2193114438583
1238.8954991463652 2238.139940576244
1239.741619308932 2258.2294488652556
1240.587531620169 2270.0836363746857
1241.4332361385277 2281.3741593610885
1242.2787329224248 2185.207514783775
1243.1240220302534 2203.348856322038
1243.9691035203869 2163.7002280833344
1244.813977451171 2347.146062312643
1245.6586438809263 2220.349571424461
1246.5031028679496 2091.0275055737065
1247.3473544705157 2314.9746613960315
1248.1913987468706 2272.035141687476
1249.0352357552383 2097.5691078780887
1249.8788655538228 2211.090543179046
1250.7222882007918 2285.1426340200164
1251.565503754302 2314.1964608541743
1252.4085122724755 2108.263619850738
1253.2513138134182 2313.0443655383033
1254.0939084352049 2159.3615446030412
1254.9362961958905 2190.552009823055
1255.7784771535007 2191.076468740296
1256.6204513660432 2190.3063589683147
1257.4622188915 2302.758751958088
1258.3037797878242 2153.542261812755
1259.1451341129468 2166.8369405132216
1259.9862819247755 2226.8028748155166
1260.8272232811978 2178.3943516674653
1261.6679582400666 2287.2259728338868
1262.5084868592203 2079.9814010328296
1263.34880919647 2138.9011037719815
1264.1889253095997 2180.000001130434
1265.0288352563712 2198.4240647935726
1265.8685390945266 2108.962684189281
1266.7080368817751 2230.525933683185
1267.5473286758115 2265.5968972781457
1268.386414534294 2212.4487399587492
1269.2252945148703 2053.1355978180804
1270.0639686751547 2137.8263785802915
1270.9024370727402 2115.54410676888
1271.7406997651997 2136.424442037239
1272.5787568100714 2045.100966053867
1273.4166082648808 2137.1452632833343
1274.2542541871244 2048.454989546901
1275.091694634275 2281.311673027099
1275.9289296637817 2059.7089946767433
1276.7659593330663 2264.8419716837175
1277.6027836995308 2168.1268283862687
1278.4394028205552 2193.0443452515087
1279.2758167534867 2185.4710480707813
1280.112025555658 2103.6486109058083
1280.9480292843746 2134.716007435366
1281.7838279969128 2021.0703426463783
1282.6194217505326 2133.774332813863
1283.4548106024686 2004.3429032864374
1284.289994609926 2112.379679306314
1285.1249738300921 2183.5893641054104
1285.959748320127 2095.3909212414305
1286.7943181371702 2113.5466484559083
1287.6286833383328 2149.8596057633836
1288.4628439807038 2192.131517847206
1289.2968001213521 2078.1964076796176
1290.1305518173194 2057.6839645741534
1290.9640991256183 2148.041465648511
1291.7974421032523 2072.46043884797
1292.630580807183 2039.9847808940947
1293.463515294361 2161.5062940127445
1294.29624562171 2165.473096560078
1295.12877184613 2025.4325340865064
1295.961094024493 1977.4398063352244
1296.79321221365 2102.781920431084
1297.6251264704333 2129.9391976653783
1298.4568368516466 2228.423036781445
1299.2883434140658 2157.6499313825925
1300.1196462144526 2106.5889544030356
1300.9507453095375 2179.0499594546786
1301.7816407560313 2149.8078365572096
1302.6123326106172 2078.2489517541685
1303.4428209299622 2029.458578254289
1304.2731057707024 2284.025327314561
1305.1031871894502 2105.6453107758894
1305.933065242798 2157.5462271906445
1306.7627399873181 2050.609555913288
1307.5922114795467 2296.0376282690772
1308.4214797760123 2182.9418037333967
1309.2505449332057 2103.6582758302497
1310.0794070076026 2174.1153967204696
1310.9080660556538 2203.477068743189
1311.736522133786 2146.9401243854763
1312.5647752983987 2051.0565513580323
1313.3928256058734 1954.9885076107068
1314.2206731125661 2121.5025469016077
1315.048317874809 2145.6944932130223
1315.8757599489109 2131.6197120071915
1316.7029993911547 2124.591766790216
1317.5300362578055 2215.5030423878025
1318.356870605101 2052.973028273619
1319.183502489257 2109.647470564438
1320.0099319664623 2083.472266106172
1320.836159092889 2216.8241058606427
1321.66218392468 2105.6748565315365
1322.4880065179532 1966.5041759715932
1323.3136269288134 2125.670328723905
1324.1390452133292 2210.475012295731
1324.9642614275563 2258.843730227776
1325.7892756275214 2108.2306081745583
1326.6140878692295 1924.1828867957825
1327.4386982086617 2289.0863341685117
1328.2631067017755 2086.351876939162
1329.0873134045069 2172.3615856317656
1329.911318372764 2090.677613623576
1330.735121662441 2059.933413590369
1331.558723329399 2073.0862657023895
1332.3821234294774 2019.5711550604872
1333.2053220185007 2195.100707243206
1334.0283191522612 2053.8063341222182
1334.851114886529 2084.2947376085476
1335.6737092770582 2022.9158264981695
1336.4961023795695 2108.4805258813058
1337.3182942497697 2002.9163862445942
1338.1402849433325 2067.0850452803156
1338.962074515921 2004.7204967342611
1339.7836630231632 1975.2933888153148
1340.6050505206676 2191.8743208554088
1341.426237064028 2130.599623616597
1342.2472227088037 2093.5157492660987
1343.0680075105338 1963.8391443024404
1343.888591524741 2198.179632285774
1344.7089748069138 2073.031621305128
1345.5291574125276 2087.5902337148923
1346.3491393970307 2032.1597388940288
1347.168920815846 2172.2854817649277
1347.9885017243778 2107.4609491388064
1348.8078821780036 2091.3706097719178
1349.6270622320844 2072.1042801900217
1350.4460419419447 2005.9384232039065
1351.2648213629054 2000.6006299248534
1352.0834005502438 2059.8854985427874
1352.90177955923 1975.8277640418426
1353.7199584451064 2118.753886882614
1354.5379372630887 2148.0580603205144
1355.355716068374 2118.916106377862
1356.1732949161305 1992.4730112655075
1356.9906738615155 2060.1791795030995
1357.8078529596478 2077.2303437648725
1358.6248322656375 2126.911745469929
1359.441611834567 1978.2306926039491
1360.2581917214866 2117.9057414901786
1361.0745719814367 2128.9522645268453
1361.890752669433 2096.825096365269
1362.7067338404577 2022.9482328713289
1363.5225155494845 2014.8483238541035
1364.3380978514506 2156.16160932898
1365.1534808012839 1968.8086794946853
1365.9686644538815 1916.5376191272967
1366.783648864117 2043.136405434234
1367.5984340868417 2188.437723250057
1368.413020176893 2049.578641058955
1369.2274071890715 1908.307765315998
1370.0415951781652 2020.680333710894
1370.8555841989346 2041.6859707666747
1371.6693743061223 1962.6361116809044
1372.48296555444 1887.1485535510055
1373.2963579985844 2016.5534322848598
1374.1095516932255 2043.7841026340525
1374.9225466930166 1839.13762147954
1375.7353430525782 1989.5307451988633
1376.5479408265164 1937.302294580065
1377.36034006941 1996.1102063922867
1378.1725408358216 2061.9499677482568
1378.9845431802805 1902.245745535202
1379.796347157304 2097.0480119374793
1380.6079528213813 2003.5507014775533
1381.4193602269788 1916.365074820731
1382.230569428546 1967.8792270130937
1383.0415804805016 1909.5204121127233
1383.852393437246 1814.5969907299873
1384.6630083531563 2016.4653663011297
1385.4734252825892 1887.6360189452057
1386.2836442798798 1960.205529106676
1387.0936653993322 1984.419385767058
1387.9034886952395 1991.9415415918825
1388.713114221864 1963.8924819429399
1389.5225420334482 1970.7923338565208
1390.331772184214 1952.3329501573885
1391.1408047283585 1819.5276976297519
1391.9496397200564 1913.1133233464352
1392.758277213461 1948.4750846978575
1393.5667172627054 2023.2423317374444
1394.3749599218918 1923.592105801706
1395.1830052451114 1912.9723966715137
1395.9908532864265 1890.4278916571482
1396.7985040998774 1924.075277220213
1397.6059577394808 1860.9346806973565
1398.4132142592352 1884.8688222003561
1399.2202737131156 1956.492070006144
1400.027136155073 1951.9119436676858
1400.8338016390353 1979.4201613416226
1401.6402702189134 1927.4530915825303
1402.446541948586 1953.7336628764042
1403.2526168819204 1828.8065861155544
1404.058495072757 1835.3373640162688
1404.8641765749107 1927.9380997638139
1405.6696614421799 1980.5038773764195
1406.4749497283356 2089.307856615014
1407.280041487129 1875.3505822984837
1408.084936772295 1826.9096053938233
1408.8896356375335 1970.7074118124206
1409.6941381365323 1960.4734181792396
1410.498444322955 1829.2170307562315
1411.3025542504402 1858.323988058241
1412.106467972606 1886.4322296663236
1412.9101855430508 1952.5310938072125
1413.7137070153458 1767.0518293745204
1414.5170324430437 1904.728324628681
1415.320161879672 1989.7793024390278
1416.1230953787435 1933.808811742374
1416.925832993742 1830.7572487723326
1417.7283747781275 1780.4587761497667
1418.5307207853439 1896.9524995200068
1419.3328710688093 1831.0598344989435
1420.134825681922 1775.604254541824
1420.9365846780584 1822.647368299788
1421.7381481105713 1908.1518114479895
1422.539516032788 1837.9072016951413
1423.3406884980232 1844.8745053120904
1424.1416655595604 1765.6624046740283
1424.942447270665 1783.234868646346
1425.7430336845828 1917.9601877080233
1426.5434248545298 1754.7869138232334
1427.3436208337116 1861.7519729434794
1428.143621675301 1909.5999446371861
1428.9434274324558 1888.0737312566794
1429.7430381583108 1757.7229640116384
1430.5424539059713 1833.670258104858
1431.3416747285337 2053.0874082496694
1432.1407006790632 1816.234846284438
1432.9395318106053 1812.564031725326
1433.7381681761835 1786.882178371102
1434.5366098288014 1878.4752727366297
1435.3348568214424 1823.3263063478473
1436.1329092070573 1842.0801742825406
1436.9307670385879 1847.2480389787147
1437.7284303689503 1913.5963472006454
1438.5258992510335 1945.5017132889086
1439.3231737377118 1827.1094086163844
1440.1202538818306 1915.3769299138607
1440.9171397362225 1725.1816767884295
1441.7138313536925 1712.8700856711341
1442.5103287870243 1665.2189707746234
1443.3066320889775 1668.2604779871733
1444.1027413122956 1896.4186194295903
1444.8986565096966 1729.1729784044223
1445.694377733882 1869.5742717442104
1446.4899050375207 1729.2933708538421
1447.2852384732687 1855.4437091247473
1448.0803780937622 1793.3668227770024
1448.8753239516063 1781.6768033486035
1449.6700760993954 1666.3519093224927
1450.464634589689 1768.9757798509847
1451.2589994750397 1951.2219238623431
1452.0531708079689 1656.3231943619205
1452.8471486409799 1726.7676428950824
1453.6409330265524 1905.2640479137456
1454.4345240171442 1699.7616976945276
1455.2279216651987 1717.7258607849049
1456.0211260231263 1695.2216891657117
1456.8141371433194 1676.1795018301705
1457.6069550781594 1657.129689345767
1458.3995798799897 1683.305629820167
1459.1920116011424 1733.3281032046684
1459.98425029393 1700.3751193074993
1460.7762960106338 1706.2924911679752
1461.5681488035225 1701.720832989548
1462.3598087248392 1773.3480157869058
1463.1512758268036 1859.6023190826843
1463.942550161617 1699.9942973618229
1464.7336317814625 1663.8037513081501
1465.524520738496 1828.3254249775568
1466.3152170848552 1788.0874265129794
1467.1057208726506 1707.4650725178083
1467.8960321539817 1722.0247498976362
1468.6861509809169 1673.348082420769
1469.4760774055085 1742.7963397618107
1470.265811479785 1688.6300218063413
1471.055353255755 1580.4166621199201
1471.844702785409 1642.0863511187035
1472.6338601207044 1697.356993465366
1473.4228253135934 1687.5916620992077
1474.2115984159936 1674.3890414257135
1475.0001794798063 1587.8516563294713
1475.7885685569145 1710.5952153247526
1476.576765699172 1746.5246940657028
1477.3647709584238 1693.643148140204
1478.1525843864802 1760.2574018464256
1478.9402060351367 1682.4558075727684
1479.7276359561693 1701.2021045993436
1480.514874201328 1760.0128336853984
1481.3019208223468 1602.6566906547753
1482.0887758709323 1530.7721959590037
1482.8754393987747 1694.6598487716594
1483.6619114575406 1680.1174482944723
1484.4481920988783 1698.734381793259
1485.2342813744108 1711.5021295238773
1486.0201793357446 1730.2602281874563
1486.8058860344572 1696.338834426213
1487.591401522117 1700.3816910650044
1488.3767258502594 1651.6422340402576
1489.1618590704056 1620.6739941869819
1489.9468012340494 1466.652982211312
1490.7315523926754 1729.899051514555
1491.5161125977356 1697.1111196477195
1492.3004819006637 1689.2559853129212
1493.084660352877 1611.0445187219664
1493.8686480057622 1727.072446430599
1494.6524449106964 1791.3162148093154
1495.4360511190262 1794.1407533648035
1496.219466682087 1777.260743585417
1497.0026916511779 1670.1221836493617
1497.7857260775945 1734.4631688471648
1498.5685700125996 1737.2522050142688
1499.3512235074395 1615.539798284808
1500.133686613337 1667.3965516690478
1500.9159593814966 1610.2699828666118
1501.698041863101 1902.146982795252
1502.4799341093094 1629.7915580497204
1503.2616361712662 1574.5332045047758
1504.043148100087 1724.2437635337142
1504.8244699468742 1727.526734515536
1505.6056017626997 1656.2650035461804
1506.3865435986281 1583.152523242918
1507.1672955056893 1628.8142619705
1507.9478575348967 1596.7009453768562
1508.7282297372512 1765.2367137684018
1509.5084121637192 1643.5740818358888
1510.2884048652577 1608.806105767738
1511.0682078927948 1595.0405025614032
1511.8478212972423 1671.4864704433087
1512.6272451294917 1576.6315475700962
1513.4064794404076 1654.017346444428
1514.1855242808433 1674.8205478112257
1514.9643797016215 1694.3348900778578
1515.743045753552 1693.7706250177864
1516.5215224874191 1657.3411074390508
1517.2998099539836 1576.519381443411
1518.077908203999 1640.6879821869989
1518.8558172881785 1602.061456734204
1519.633537257234 1599.4793322776395
1520.4110681618404 1647.0277853292191
1521.1884100526604 1666.0110823260325
1521.9655629803365 1617.2090326363734
1522.7425269954856 1745.1168703862295
1523.5193021487103 1752.6020336449797
1524.2958884905856 1615.4782260381467
1525.0722860716687 1703.1280009370062
1525.848494942502 1612.9447332670236
1526.624515153595 1557.6003683141503
1527.4003467554485 1664.3714523526983
1528.175989798534 1695.6532144026612
1528.9514443333064 1712.8116858669619
1529.726710410203 1694.8777882876643
1530.5017880796331 1604.822010497452
1531.276677391992 1615.1052817494651
1532.0513783976457 1712.968444360366
1532.825891146953 1725.109113217939
1533.6002156902414 1695.230918593575
1534.3743520778207 1626.987551341462
1535.1483003599806 1613.0854912138504
1535.9220605869923 1640.6613458852996
1536.6956328091019 1615.1012820388635
1537.4690170765407 1547.4738989602567
1538.242213439511 1717.9220533089058
1539.015221948208 1600.8004933099598
1539.78804265279 1651.204056987722
1540.560675603405 1494.7138089759942
1541.3331208501804 1720.474814012027
1542.1053784432224 1669.4717041704002
1542.8774484326168 1697.4194052429789
1543.649330868422 1717.8569533055284
1544.4210258006842 1656.5864680618183
1545.1925332794308 1643.3387021511512
1545.9638533546604 1657.0249696871317
1546.7349860763552 1570.832330277964
1547.5059314944829 1826.8602159504057
1548.27668965898 1603.1126877592262
1549.0472606197673 1665.4641847938587
1549.817644426752 1634.4520917509476
1550.5878411298072 1695.0599581387737
1551.3578507787988 1620.5791425249863
1552.1276734235635 1534.615562402701
1552.8973091139233 1612.8730271957115
1553.6667578996767 1763.145815801614
1554.436019830604 1578.6321358384646
1555.20509495646 1562.3743894246813
1555.9739833269869 1546.0180696138923
1556.7426849919011 1542.8227257104732
1557.511200000903 1678.1471806256293
1558.2795284036674 1674.8162781756334
1559.0476702498509 1552.2446419623507
1559.8156255890954 1590.620227388828
1560.5833944710157 1795.3840095792452
1561.3509769452048 1570.5625889221283
1562.1183730612447 1585.8091098949094
1562.8855828686865 1498.7930721921266
1563.6526064170703 1784.2760214610614
1564.4194437559127 1756.1603754736832
1565.1860949347047 1638.0592590747053
1565.9525600029283 1806.5530918532309
1566.7188390100328 1791.1776963102716
1567.4849320054564 1569.5544183246884
1568.250839038612 1581.9224795436617
1569.0165601588997 1601.9076192726968
1569.7820954156887 1626.958660531011
1570.5474448583373 1623.0536491723908
1571.31260853618 1581.802643279996
1572.0775864985299 1447.2042411297102
1572.8423787946813 1647.169010711553
1573.6069854739108 1587.8922443136712
1574.371406585471 1739.4823510602891
1575.1356421785986 1715.9707951451933
1575.899692302506 1541.4181293126671
1576.6635570063845 1681.6504775635633
1577.4272363394157 1580.1518670932956
1578.190730350747 1511.558980979763
1578.9540390895163 1591.5126169700197
1579.7171626048384 1444.0427797136276
1580.480100945806 1563.0032714301803
1581.2428541614918 1430.485673648163
1582.0054223009538 1529.096413339962
1582.767805413223 1662.2963970404012
1583.5300035473156 1643.2717435624502
1584.292016752228 1750.9310748471703
1585.0538450769309 1600.8541053698866
1585.8154885703807 1495.0833825291759
1586.5769472815136 1560.151004591512
1587.3382212592405 1701.353341797028
1588.099310552463 1769.3132039862314
1588.8602152100484 1536.1695612092935
1589.6209352808564 1715.1308156990315
1590.3814708137234 1567.0982698004443
1591.14182185746 1529.9922938428758
1591.9019884608679 1548.7554000846726
1592.6619706727215 1430.581338737458
1593.4217685417734 1712.1463611944778
1594.1813821167616 1634.765225577943
1594.9408114464022 1474.157649206932
1595.7000565793933 1645.3471415836107
1596.459117564409 1709.7582788205116
1597.2179944501113 1529.0899737810917
1597.9766872851324 1561.834466266531
1598.735196118092 1729.0248122918688
1599.4935209975883 1679.9974130962005
1600.2516619721973 1726.4296411065757
1601.0096190904787 1555.4376730803046
1601.7673924009723 1645.1100374327593
1602.524981952196 1473.1112669303395
1603.2823877926476 1576.776011504038
1604.0396099708087 1547.4061793681853
1604.7966485351371 1439.3056715779117
1605.5535035340745 1523.612788558513
1606.3101750160404 1675.3358024274173
1607.0666630294363 1596.2881701181743
1607.822967622642 1505.0821909264073
1608.5790888440224 1556.0442127584624
1609.3350267419137 1671.8386399493945
1610.0907813646445 1576.3010942506667
1610.8463527605145 1554.1845645483186
1611.601740977805 1629.0301600152002
1612.356946064785 1577.3297287471257
1613.1119680696902 1421.107204149215
1613.8668070407512 1562.268262746113
1614.6214630261748 1448.1995804695848
1615.375936074137 1657.2117141756487
1616.1302262328118 1514.2441003443644
1616.8843335503425 1659.616720812684
1617.638258074854 1446.670825850781
1618.391999854457 1534.9581192592373
1619.1455589372363 1628.0061680914162
1619.8989353712623 1602.9864744345834
1620.65212920458 1426.933814402129
1621.4051404852235 1585.6750557725643
1622.1579692611976 1530.2509344339053
1622.9106155804966 1464.1812963177167
1623.663079491087 1496.5375023233373
1624.4153610409248 1664.627848557267
1625.1674602779385 1500.9462944078161
1625.9193772500403 1519.3583682222666
1626.6711120051277 1559.314031687656
1627.4226645910676 1461.6943399538757
1628.174035055721 1411.8567132667329
1628.9252234469168 1559.7719446767303
1629.676229812474 1482.5776974064688
1630.4270542001905 1772.4306149273245
1631.1776966578382 1612.4840033797507
1631.9281572331747 1565.9121517497704
1632.678435973945 1698.8705217529525
1633.4285329278573 1534.7749575360551
1634.1784481426203 1448.777847626337
1634.9281816659113 1406.9403672353499
1635.677733545388 1561.4146417021948
1636.4271038286934 1495.7011390570465
1637.176292563452 1584.2607579540727
1637.9252997972635 1589.6506886316126
1638.674125577716 1656.7145163690748
1639.4227699523672 1834.2583296635664
1640.171232968767 1461.8576020247144
1640.9195146744423 1540.1955232680766
1641.6676151168977 1714.8212154950802
1642.4155343436178 1597.5250763685176
1643.1632724020765 1572.0730610888181
1643.9108293397167 1525.7502791074307
1644.658205203974 1445.428030408424
1645.4054000422566 1487.2228208468928
1646.1524139019566 1528.9349244416096
1646.8992468304423 1356.3580937826403
1647.6458988750728 1510.1060026826149
1648.3923700831765 1510.711834829006
1649.1386605020743 1543.1824776197361
1649.8847701790564 1582.02867253035
1650.6306991614038 1581.644550144802
1651.3764474963682 1568.946446404108
1652.1220152311944 1362.4011331859977
1652.867402413096 1641.5970194031368
1653.6126090892776 1508.4727058963915
1654.3576353069184 1672.423674361607
1655.1024811131829 1649.7065283774687
1655.8471465552066 1562.2801576271838
1656.5916316801213 1748.5483226543197
1657.3359365350298 1560.7930281132212
1658.0800611670165 1395.7617524880905
1658.824005623148 1500.3056207242844
1659.5677699504722 1372.0630419952881
1660.3113541960192 1505.7119420251217
1661.054758406799 1460.0175675107414
1661.7979826297997 1440.1751610899219
1662.5410269119966 1464.5704463804573
1663.283891300338 1448.78373149447
1664.0265758417645 1606.451577934943
1664.7690805831826 1559.543807208432
1665.5114055714948 1481.3230152626952
1666.2535508535748 1427.6086670803531
1666.9955164762814 1373.6830082201482
1667.7373024864555 1440.098937510395
1668.478908930916 1550.50554110603
1669.220335856462 1427.316257562855
1669.9615833098778 1440.331027144712
1670.7026513379296 1477.5054556798068
1671.44353998736 1514.0266967729444
1672.1842493048916 1436.020967651066
1672.9247793372379 1421.4190424000785
1673.6651301310812 1531.7255359999012
1674.4053017330934 1508.8809411814761
1675.1452941899242 1506.104067153508
1675.885107548207 1140.728848127294
1676.6247418545518 1271.508525076796
1677.3641971555535 1459.1346080387202
1678.1034734977893 1476.2873970735618
1678.8425709278108 1461.049060916652
1679.5814894921605 1524.722772624545
1680.320229237359 1456.0769913720578
1681.0587902098978 1498.7979157648247
1681.7971724562685 1455.8387893155436
1682.5353760229264 1401.984150496353
1683.2734009563173 1473.5022375633775
1684.0112473028657 1267.3701493763106
1684.7489151089794 1491.9570042889823
1685.4864044210462 1503.7852612802403
1686.2237152854377 1348.7193708704324
1686.960847748498 1474.1793252906796
1687.6978018565642 1367.5119214258211
1688.434577655944 1373.773648184703
1689.1711751929379 1338.0288240107361
1689.9075945138156 1448.159486981995
1690.6438356648396 1451.6720354808845
1691.3798986922448 1258.7874330699754
1692.1157836422499 1393.7921648815404
1692.851490561059 1348.990883662444
1693.587019494853 1396.5967406442476
1694.3223704897991 1235.5411226342944
1695.0575435920364 1262.5134606652687
1695.792538847696 1463.24488676612
1696.527356302886 1393.0881520356184
1697.2619960036936 1287.0317103771135
1697.9964579961907 1264.2573098181483
1698.730742326432 1096.6198240346946
1699.4648490404488 1193.8326985793713
1700.1987781842563 1346.8421945865073
1700.9325298038548 1297.0479094581212
1701.6661039452174 1459.8803073807999
1702.3995006543082 1322.114055887658
1703.1327199770658 1505.093765299378
1703.865761959416 1356.2771618057668
1704.598626647261 1423.5017370729815
1705.3313140864866 1200.2077325585349
1706.0638243229587 1250.5926318624763
1706.7961574025303 1338.6868244763798
1707.528313371029 1291.889362452613
1708.260292274268 1209.5136669804024
1708.9920941580403 1252.5693457181053
1709.7237190681226 1274.8883221351957
1710.4551670502697 1265.3271627637087
1711.18643815022 1152.7671225210483
1711.9175324136959 1236.3915435901222
1712.6484498863938 1320.139015582744
1713.379190614005 1106.6037331935
1714.109754642188 1298.9029213387198
1714.8401420165883 1261.2957443628832
1715.570352782839 1322.2297666120855
1716.3003869865497 1383.3246606417135
1717.0302446733076 1200.6070787562835
1717.7599258886876 1231.5152377419522
1718.4894306782444 1192.308657030484
1719.2187590875183 1153.009197764217
1719.9479111620203 1349.8340857261308
1720.6768869472544 1166.1919602757253
1721.4056864887025 1356.6302568989565
1722.1343098318284 1387.7809159376166
1722.8627570220742 1304.9809399894825
1723.591028104871 1213.015138976408
1724.3191231256242 1171.1954593367532
1725.0470421297232 1266.0908100169288
1725.7747851625427 1295.5721600990632
1726.5023522694337 1379.1967677677912
1727.2297434957363 1322.701583271472
1727.9569588867635 1119.110284543815
1728.6839984878152 1295.368137864932
1729.4108623441734 1083.3056288059593
1730.1375505011038 1291.6166846497429
1730.8640630038426 1166.4361806361253
1731.5903998976264 1217.4171871860535
1732.316561227657 1272.440589843864
1733.0425470391274 1148.0842106404411
1733.7683573772065 1203.3356169202286
1734.4939922870508 1197.1909210416086
1735.2194518137949 1289.8773892994764
1735.9447360025606 1257.823983758426
1736.669844898439 1188.2555845043312
1737.3947785465189 1164.9984714878951
1738.1195369918605 1031.6215224684947
1738.8441202795093 1251.049691208523
1739.5685284544943 1278.7327096962217
1740.292761561821 1268.105057819109
1741.0168196464838 1259.7003871945512
1741.7407027534518 1311.0323658061134
1742.464410927687 1176.1045841751431
1743.187944214118 1310.3550966765317
1743.9113026576688 1200.692830956657
1744.634486303241 1326.0738745371314
1745.3574951957125 1311.7857989261418
1746.0803293799509 1319.8808616956585
1746.8029889008048 1338.8475966033388
1747.5254738031017 1222.1740458667912
1748.2477841316504 1150.8343080602788
1748.969919931249 1223.8554684263336
1749.6918812466665 1112.1509833417033
1750.4136681226646 1271.2251378667934
1751.1352806039777 1327.554062489858
1751.856718735331 1058.1665894233413
1752.5779825614281 1060.0976502181861
1753.2990721269507 1212.9263827469774
1754.0199874765676 1252.454279417205
1754.7407286549314 1018.4908452460975
1755.4612957066693 1160.7976554645218
1756.1816886763954 1143.193691805925
1756.9019076087097 1282.5380725005793
1757.6219525481865 1195.108834419401
1758.3418235393856 1196.6490255935578
1759.061520626854 1167.5394223659544
1759.7810438551096 1302.8629723353642
1760.5003932686614 1026.7387555556593
1761.2195689119999 1225.6161413320133
1761.938570829594 1222.2927298136672
1762.657399065898 1147.5985063759776
1763.376053665348 1111.3870164554621
1764.0945346723602 1128.6702970785288
1764.812842131334 1301.043363986487
1765.5309760866512 1040.7379866345368
1766.2489365826787 1025.916345464841
1766.9667236637597 1099.4643740445222
1767.684337374223 1084.768508472949
1768.401777758383 1046.3730638379116
1769.1190448605284 1185.1820124318751
1769.836138724937 969.4470677084722
1770.5530593958665 1185.4626909053782
1771.2698069175603 1292.4040676650677
1771.9863813342326 1219.1343397440316
1772.702782690094 1082.7854662331536
1773.4190110293293 1229.6328542991307
1774.1350663961111 1262.6537606730487
1774.8509488345844 1153.596518766559
1775.5666583888924 1186.4093084961764
1776.2821951031437 1224.8023325053703
1776.9975590214362 1142.481660655747
1777.7127501878585 1344.1177465384562
1778.4277686464684 1191.360108648449
1779.1426144413108 1176.276925439504
1779.8572876164162 1229.4189538155647
1780.571788215797 1172.3467670834402
1781.2861162834415 1115.2222037352083
1782.0002718633277 1189.531184668645
1782.7142549994132 1143.2054789201925
1783.4280657356376 1208.7753113745312
1784.141704115922 1152.5846521558408
1784.855170184177 1113.1695141548128
1785.5684639842839 1088.161477990668
1786.2815855601148 1190.415580415614
1786.9945349555237 1292.807673072629
1787.707312214343 1080.821038339403
1788.4199173803918 1049.2895771844649
1789.132350497468 1017.7950135332865
1789.8446116093583 1125.9823381001486
1790.556700759822 1114.9946066982438
1791.2686179926077 1177.2605910168322
1791.9803633514493 1166.3718427600802
1792.6919368800554 1055.135298713702
1793.4033386221236 1118.3441119923687
1794.1145686213295 1251.9506870869739
1794.8256269213307 1241.8230463220907
1795.536513565774 1221.8314157768373
1796.247228598284 993.5435805894627
1796.9577720624693 1038.8951875636717
1797.6681440019165 1191.9523239533653
1798.3783444602013 1078.0046717343234
1799.0883734808776 1107.845788258381
1799.7982311074884 1132.7368911256092
1800.5079173835475 1174.0945603668908
1801.2174323525633 1234.4264051073449
1801.9267760580187 1121.3497951583508
1802.635948543386 1117.9738593070736
1803.3449498521113 992.1689079994319
1804.0537800276325 1044.499583993474
1804.7624391133668 1096.8912604859233
1805.47092715271 994.8484613983898
1806.1792441890484 1080.8858655789786
1806.8873902657433 1078.3012906334184
1807.5953654261448 1197.7746291696208
1808.3031697135812 964.3608389381841
1809.0108031713662 1083.1050727640477
1809.71826584279 1015.6390310863444
1810.425557771141 1055.434437747336
1811.1326789996747 1250.1590747878038
1811.839629571632 1084.1578571997643
1812.5464095302468 1073.0227856412193
1813.2530189187182 1092.697160797047
1813.959457780249 1054.7707110021875
1814.6657261580076 1115.3222133790355
1815.371824095153 1056.4842310883948
1816.0777516348262 1122.1312182412744
1816.78350882015 963.8088905101051
1817.4890956942272 992.7373349382531
1818.1945123001533 1101.2354739948273
1818.8997586809928 1128.646438581095
1819.6048348798067 1068.1161046017232
1820.3097409396287 1089.653887193532
1821.0144769034796 1279.7620882726821
1821.7190428143622 1084.8288048033014
1822.423438715261 1180.118439947948
1823.1276646491478 1083.1099371734347
1823.8317206589727 1101.905187103312
1824.5356067876692 1055.9734328652708
1825.2393230781581 996.5472692403516
1825.942869573335 1012.7322168723698
1826.646246316086 1086.9362857121023
1827.3494533492758 1091.3832957361797
1828.052490715756 1224.5462323283068
1828.7553584583547 1149.9887280204302
1829.458056619891 1231.9627500134973
1830.1605852431585 1100.1933751571908
1830.8629443709433 1007.9622131294436
1831.5651340460063 1104.4407545244371
1832.2671543110919 981.896707511595
1832.9690052089318 963.4498282338894
1833.6706867822395 945.0544425648686
1834.3721990737104 1116.3241103828384
1835.0735421260233 1125.7174114063491
1835.774715981841 1065.0957992516874
1836.4757206838058 1079.970502114749
1837.1765562745459 1101.9625346173448
1837.8772227966747 936.5094842416929
1838.5777202927839 1039.8332663019114
1839.2780488054523 938.9659819199176
1839.9782083772352 977.2560099197701
1840.6781990506806 1171.07169768862
1841.378020868313 1081.0135980334362
1842.0776738726418 1133.3650331125148
1842.777158106157 979.1281224601356
1843.4764736113375 924.2833111594642
1844.1756204306403 1066.2301452573543
1844.8745986065078 1029.4922893624403
1845.5734081813607 987.9708387501069
1846.2720491976124 1185.924381146335
1846.970521697649 1031.2194289284619
1847.6688257238511 1072.7975676071233
1848.3669613185684 1179.8587746325175
1849.0649285241452 1123.5934194222232
1849.7627273829057 1067.4848460626852
1850.460357937156 948.6781762778821
1851.1578202291857 874.9621821500716
1851.8551143012664 1064.9654709462923
1852.5522401956569 992.5159978931919
1853.2491979545957 1104.5375780131458
1853.9459876203055 1015.2751526305353
1854.6426092349902 956.2753912661303
1855.3390628408451 1034.426524817137
1856.0353484800362 1121.403679284936
1856.7314661947203 1073.0264054311745
1857.4274160270397 1026.3371426412032
1858.123198019115 1059.1457716296059
1858.8188122130487 937.9601490039365
1859.5142586509319 1046.9608459623907
1860.209537374838 1020.0397132041422
1860.9046484268183 958.3672497016362
1861.599591848917 1002.4972478596335
1862.294367683151 947.6440738091969
1862.988975971528 1085.6957114207585
1863.6834167560355 1033.4025056068028
1864.3776900786452 1174.3042585768176
1865.0717959813119 1088.0116580260935
1865.7657345059724 962.3755215753547
1866.4595056945564 1096.5882735506277
1867.1531095889586 1113.1620617653666
1867.846546231076 1086.543153950222
1868.5398156627743 1059.913187104288
1869.2329179259123 964.5316277157681
1869.9258530623283 1094.157665945313
1870.618621113843 981.9584599594943
1871.3112221222636 971.3462527115091
1872.0036561293764 942.2425059762747
1872.695923176956 1029.0945906189756
1873.3880233067594 1131.9004096750446
1874.0799565605212 954.0565387178782
1874.7717229799673 1042.886060235872
1875.4633226068036 1048.1169907716142
1876.1547554827175 1133.671541043347
1876.8460216493859 1096.6225011861147
1877.5371211484617 1031.2311793121783
1878.2280540215852 1149.7048471330675
1878.9188203103804 1101.0443512326308
1879.6094200564548 1052.2957172472861
1880.299853301396 940.5085951073022
1880.9901200867826 1098.2670380697896
1881.6802204541673 1104.41504077145
1882.3701544450942 1065.2369535031187
1883.059922101087 894.3820099969637
1883.7495234636517 1083.65347651216
1884.4389585742792 1052.3386155998433
1885.1282274744517 953.2480612998536
1885.8173302056166 960.5699182035935
1886.506266809225 967.9030743659865
1887.195037326701 883.7416154284276
1887.8836417994517 995.1476130045123
1888.5720802688702 1128.193511316768
1889.260352776333 1085.1911346035245
1889.9484593632042 1090.5042369016853
1890.63640007082 965.9046830653264
1891.3241749405151 917.3590422762978
1892.0117840135954 998.9048196758062
1892.6992273313572 914.391136177587
1893.3865049350788 900.7619550341842
1894.0736168660223 1116.55604373487
1894.7605631654333 1148.0377045906898
1895.4473438745408 885.71837159682
1896.133959034556 1244.3360030079832
1896.820408686679 985.2299020838461
1897.506692872088 1101.3872269042336
1898.192811631945 1020.7107160281091
1898.8787650073991 1061.0826765910722
1899.5645530395832 1169.3771543915946
1900.2501757696118 1076.0303013267917
1900.9356332385796 933.7134758320784
1901.620925487574 1154.772770394714
1902.3060525576602 1095.9280303644887
1902.9910144898859 991.6374535091467
1903.6758113252872 954.4761163676387
1904.3604431048789 1015.5739701570268
1905.0449098696663 1019.4260998031608
1905.7292116606295 847.2430962926325
1906.4133485187394 957.7628875024902
1907.0973204849488 903.0412961973449
1907.7811276001976 841.7761010869266
1908.4647699053967 794.5525704684321
1909.1482474414588 747.200448092277
1909.8315602492694 791.9679231907315
1910.5147083696957 1090.3370606832154
1911.1976918436012 1044.357595263286
1911.880510711815 906.2301581537049
1912.5631650151681 1093.8485526869379
1913.2456547944657 930.5992728629974
1913.927980090495 910.9684015144472
1914.6101409440362 978.9824085097716
1915.2921373958416 1023.091286671079
1915.9739694866603 948.0590278682024
1916.655637257214 1071.7834263622046
1917.3371407482136 1017.0609791845409
1918.0184800003572 1216.9788747449227
1918.6996550543154 1022.2726128202169
1919.3806659507554 999.7817792580602
1920.0615127303208 961.4297172239918
1920.7421954336423 1161.666043932913
1921.4227141013343 1200.396643123632
1922.103068773993 1016.0147184650237
1922.783259492202 1041.6800368770423
1923.4632862965227 996.6727939406586
1924.1431492275078 971.2181943286778
1924.8228483256917 980.2640492940485
1925.5023836315922 941.8053015120404
1926.1817551857057 1033.532119510083
1926.8609630285227 1125.4453570206883
1927.5400072005123 1068.4386752354058
1928.218887742125 891.6101402788257
1928.8976046938005 951.48440187215
1929.5761580959588 1013.418273835214
1930.2545479890086 930.9959594613129
1930.9327744133352 839.9754811188499
1931.6108374093164 1069.6027290011612
1932.2887370173066 1085.0000991840268
1932.9664732776473 1045.7088621089492
1933.6440462306673 1006.289335766139
1934.3214559166754 981.865792651731
1934.9987023759659 993.3132309890916
1935.675785648813 1012.3436889587714
1936.3527057754836 1085.4566059755093
1937.029462796223 1158.734366294713
1937.70605675126 940.4926163296088
1938.3824876808085 850.2135075714161
1939.058755625072 851.1715704093043
1939.7348606242267 996.1062082661572
1940.4108027184448 1011.5717830992555
1941.0865819478713 1002.2264603328106
1941.7621983526478 1081.8250186802263
1942.4376519728921 860.8550755107102
1943.1129428487038 1017.1550160378189
1943.7880710201734 1031.714351645939
1944.4630365273733 1109.6973390685766
1945.1378394103576 869.4079138932
1945.8124797091714 1125.455064532639
1946.4869574638324 813.3033988167401
1947.161272714353 922.1258785991179
1947.8354255007234 978.9839333852736
1948.5094158629272 873.5530776219196
1949.1832438409183 947.8590937619916
1949.8569094746435 1075.5498467119926
1950.530412804037 1129.813076275397
1951.2037538690092 1131.7906351572544
1951.8769327094578 853.184296553909
1952.5499493652678 813.1027094115483
1953.222803876306 996.5852991284552
1953.895496282421 1000.2695788693027
1954.5680266234522 975.6635049047297
1955.2403949392155 1019.1997729925297
1955.9126012695142 887.2299151750049
1956.5846456541403 1058.5571873760423
1957.2565281328643 869.8151870094765
1957.9282487454457 893.3675811463593
1958.5998075316202 916.9901982611209
1959.27120453112 926.4970617102241
1959.9424397836501 966.4069280706583
1960.613513328908 933.8652487117067
1961.2844252065697 1013.0864031515637
1961.9551754563017 941.227806064833
1962.6257641177453 876.0975555543357
1963.29619123054 839.3408358649156
1963.966456834296 925.4517406474922
1964.6365609686181 975.2153156158483
1965.306503673086 1021.0629572862583
1965.976284987275 934.8989591397319
1966.645904950734 1024.0975666022703
1967.315363603002 857.8962081620917
1967.9846609836077 1000.3489113367001
1968.6537971320486 935.5777629839824
1969.3227720878222 959.5877231417517
1969.9915858904042 1024.0925998492842
1970.660238579252 1022.4591981674823
1971.3287301938108 873.6079845927595
1971.997060773514 829.0414215229196
1972.665230357772 784.5262498308884
1973.3332389859843 920.7655475190147
1974.0010866975335 820.429778439068
1974.6687735317864 959.0231311157289
1975.3362995280932 1030.3463010033781
1976.003664725793 906.0008738018465
1976.6708691642052 855.97387620935
1977.3379128826364 874.4650412425399
1978.004795920373 1114.9552599789736
1978.6715183166925 1075.7440316424513
1979.3380801108524 821.1760166032115
1980.0044813420973 925.3963624084627
1980.6707220496555 990.3774459200133
1981.3368022727373 796.8401390935404
1982.0027220505417 871.4607672342463
1982.66848142225 721.1663621535802
1983.3340804270283 801.9743607528483
1983.999519104027 808.7905693554542
1984.6647974923835 959.1266810737177
1985.329915631215 922.9235607548487
1985.99487355963 969.0674296506755
1986.6596713167146 987.0779106396025
1987.3243089415428 782.4694264705673
1987.9887864731754 953.5214915714489
1988.6531039506553 863.5201558385479
1989.3172614130071 862.2384376702564
1989.9812588992481 860.9680773880953
1990.645096448372 838.4657518122824
1991.3087740993633 834.1632603226441
1991.9722918911848 824.7965648347421
1992.635649862792 967.5885645182258
1993.2988480531185 1028.4214308859023
1993.9618865010852 919.157452308038
1994.6247652455968 809.7130997516025
1995.287484325545 868.6520974261955
1995.9500437798033 872.6992630105575
1996.6124436472292 941.1094835868165
1997.2746839666706 987.2162129019478
1997.936764776954 1038.560419334758
1998.598686116895 910.7057565950066
1999.2604480252903 1007.183631511511
1999.9220505409212 1097.684394570068
2000.5834937025593 823.3395672082022
2001.2447775489582 928.1273685994344
2001.9059021188514 936.2129783413909
2002.5668674509616 911.753665837649
2003.2276735839987 887.1775045361321
2003.8883205566508 1029.2680282391518
2004.5488084075987 839.8459480151457
2005.2091371755014 961.3962702108438
2005.8693068990033 878.285274037234
2006.5293176167397 903.8465585298709
2007.1891693673224 938.8613569229503
2007.848862189354 897.251186338222
2008.5083961214223 855.6329851558797
2009.1677712020955 851.417271337696
2009.8269874699254 785.8240835414001
2010.4860449634598 823.3141249143246
2011.1449437212177 860.9509740136267
2011.8036837817108 930.0952597143827
2012.4622651834325 959.7064859090955
2013.1206879648653 1083.7955044923442
2013.7789521644736 1019.2963306575357
2014.4370578207036 1019.8028958365358
2015.0950049719922 1020.2978023454203
2015.7527936567585 989.1267157514133
2016.4104239134067 823.68510987514
2017.067895780323 808.9966142868514
2017.725209295886 794.2425357137587
2018.3823644984514 888.6818772240897
2019.0393614263648 1006.7310241654399
2019.6962001179545 818.7713537399446
2020.3528806115355 966.8521942380164
2021.0094029454067 959.6333613956252
2021.6657671578487 949.741463928142
2022.321973287133 939.8543343840859
2022.9780213715148 757.0110925573547
2023.6339114492293 893.3144320792792
2024.2896435585026 902.2469917035947
2024.9452177375442 894.0370716604566
2025.600634024544 1092.797463088707
2026.2558924576842 901.3871888803535
2026.9109930751292 1083.568296506441
2027.565935915025 882.8264653838503
2028.2207210155066 1098.149329388498
2028.8753484146964 1155.4521844789756
2029.529818150695 1047.922622252801
2030.1841302615903 939.976320796146
2030.8382847854573 875.8547214790103
2031.4922817603601 916.4650504723186
2032.1461212243357 816.8791322486196
2032.7998032154192 789.3181178477143
2033.4533277716218 918.5693481748112
2034.1066949309443 862.2886546755628
2034.7599047313688 765.1448998245065
2035.4129572108704 958.3293109761787
2036.0658524074006 943.6334341002103
2036.7185903589016 980.7271860521778
2037.3711711032956 967.1832451900042
2038.023594678496 911.7365894113412
2038.675861122394 792.1786233923748
2039.3279704728757 829.5538516157436
2039.9799227678031 867.090640562558
2040.6317180450278 953.5741716614102
2041.2833563423865 941.4742782433883
2041.9348376977014 1080.5522399007282
2042.5861621487784 924.9186611004986
2043.2373297334088 892.562584035419
2043.8883404893695 891.2974888998069
2044.5391944544208 889.9434418757301
2045.1898916663158 961.1582485713649
2045.8404321627804 1163.2948258357792
2046.4908159815368 953.63797724715
2047.1410431602853 774.9928216921032
2047.7911137367173 863.9700116521919
2048.441027748504 924.9607933186933
2049.090785233302 915.2938301957813
2049.7403862287592 965.0904497240426
2050.389830772503 874.0097773186895
2051.0391189021466 782.8680727967953
2051.688250655294 863.0973607595158
2052.337226069527 764.6350974665183
2052.986045182417 828.1856258645882
2053.634708031521 695.9025611755823
2054.283214654375 707.7541521050973
2054.931565088511 719.654312028904
2055.579759371436 740.6098324908867
2056.2277975406523 871.1973160945403
2056.8756796336384 995.1238790592613
2057.5234056878617 967.4345247439921
2058.1709757407752 939.578966222735
2058.8183898298194 950.0802156306027
2059.465647992416 943.4872721704929
2060.1127502659747 998.0044456960937
2060.759696687888 991.8754957163153
2061.4064872955405 985.7546801248149
2062.053122126292 1112.8537722211179
2062.699601217497 975.911578125095
2063.345924606485 838.9652010932847
2063.992092330587 1033.230597143282
2064.638104427102 1056.8871681940823
2065.283960933324 1080.589136108859
2065.92966188653 1016.3032949041105
2066.5752073239855 1038.3273026007232
2067.2205972829397 976.2575596614788
2067.86583180062 914.1399900693956
2068.5109109142522 1018.0922542737941
2069.15583466104 975.3098411288681
2069.8006030781708 932.4886064796494
2070.445216202821 837.2130064328607
2071.089674072153 957.2789162623076
2071.7339767233116 1012.452197390161
2072.3781241934303 1022.6179162999058
2073.0221165196253 1032.8146435611416
2073.6659537390024 888.3084223021124
2074.3096358886505 1069.349140843617
2074.953163005637 961.3665381203593
2075.596535127028 816.666227400694
2076.2397522898664 777.120471106835
2076.882814531182 862.3927745292254
2077.5257218879924 986.7469673383463
2078.1684743973 954.1100376075494
2078.8110720960885 896.1673024049693
2079.453515021336 1063.2250418451893
2080.095803209997 966.1602603596536
2080.7379366990135 1031.0629654727754
2081.37991552532 1128.2149793061556
2082.0217397258275 972.2616095843927
2082.6634093374414 945.7010545966165
2083.3049243970418 919.1508794976389
2083.9462849415067 916.2641150488653
2084.587491007689 973.4341613304729
2085.2285426324324 943.0210017306812
2085.869439852564 977.3195271180846
2086.510182704902 743.4024341550294
2087.1507712262483 783.4064867164909
2087.791205453381 770.174379643626
2088.4314854230743 955.1681988860225
2089.0716111720867 909.5347938070574
2089.7115827371617 1025.8443617504913
2090.351400155023 755.8991108752051
2090.991063462385 860.717065447155
2091.6305726959527 586.7187081260378
2092.2699278924047 983.6735629416526
2092.9091290884153 918.200659861006
2093.548176320641 913.3573633205363
2094.187069625721 1032.482161465629
2094.8258090402887 991.465650344714
2095.464394600951 950.3600969909437
2096.102826344313 837.5884663774466
2096.741104306955 1081.682662512741
2097.379228525453 807.7006370048462
2098.017199036358 942.2252250387271
2098.6550158762147 1077.0378352784144
2099.2926790815527 954.3252297354081
2099.9301886888825 877.3961727919075
2100.5675447347076 809.749503506986
2101.2047472555114 950.283689548232
2101.841796287761 818.5793902684179
2102.47869186792 792.7642255665652
2103.1154340324265 766.902310895262
2103.752022817709 866.4077518955522
2104.388458260184 842.3667564738538
2105.024740396251 974.3578207251574
2105.660869262292 796.5394689812499
2106.296844894685 882.2324393397963
2106.93266732978 876.0901090859081
2107.5683366039284 885.5154261736745
2108.2038527534532 866.2229594651135
2108.8392158146726 970.4892437992136
2109.4744258238843 896.0254677847539
2110.1094828173755 816.5731131562235
2110.744386831422 1007.9429470647892
2111.3791379022787 929.6658538555719
2112.01373606619 973.167150897325
2112.648181359389 881.33969544179
2113.28247381809 964.827772539734
2113.916613478492 916.3435458638165
2114.550600376786 976.9406702754288
2115.1844345491445 788.4931688814347
2115.818116031729 833.1638511189483
2116.451644860679 893.7137872300036
2117.085021072133 756.8426194712387
2117.718244702204 806.3683428285585
2118.3513157869984 836.4027362498875
2118.984234362604 774.7706643735021
2119.617000465092 816.9936607350222
2120.249614130529 762.5413184066123
2120.8820753949585 708.0043627263516
2121.5143842944162 803.0149250174788
2122.14654086492 882.2857363591336
2122.7785451424734 1044.1104829843532
2123.4103971630702 1000.3706535462491
2124.042096962681 956.6391767299481
2124.6736445772767 981.3210576556114
2125.305040042802 864.1176222148684
2125.936283395191 856.6382263293879
2126.567374670365 915.9510371100741
2127.198313904233 798.0681371408136
2127.8291011326855 756.7566931528333
2128.4597363916037 715.2688886046562
2129.0902197168507 884.9803270591631
2129.720551144279 886.9169216872211
2130.3507307097225 985.9098493600438
2130.980758449008 878.1468326003557
2131.6106343979427 773.9440153540367
2132.2403585923203 885.3723558993601
2132.8699310679276 991.8923953997167
2133.499351860526 1022.3376773685811
2134.1286210058715 951.6317815603603
2134.7577385397053 930.873900482659
2135.3867044977487 910.1368229445546
2136.0155189157176 1040.8365912419579
2136.644181829308 985.2056718355883
2137.2726932742025 820.5362986155509
2137.901053286074 757.8637492841546
2138.5292619005777 695.1201379178132
2139.1573191533535 881.6561822330268
2139.7852250800315 1014.476516149449
2140.4129797162295 1029.255339490834
2141.0405830975433 855.1191654981463
2141.6680352595613 833.2360429684304
2142.2953362378576 811.3204732876471
2142.9224860679915 880.3326894820281
2143.549484785508 763.5855400072776
2144.1763324259373 793.4427119370432
2144.803029024799 787.8574625325662
2145.429574617594 706.1325337048017
2146.0559692398165 898.3699350664947
2146.682212926942 928.2550212961711
2147.308305714432 861.511522732535
2147.9342476377333 1032.4568283758308
2148.5600387322847 882.9008587814667
2149.185679033506 814.6765183557029
2149.8111685768017 746.4153514710168
2150.4365073975678 702.3513647669083
2151.061695531187 955.6518037819899
2151.686733013021 959.1267334476922
2152.311619878423 1004.8710429463166
2152.9363561627342 897.1113530414998
2153.560941901278 862.1354128448426
2154.1853771293663 827.0163578157892
2154.809661882293 808.423962713727
2155.433796195348 752.4471462361385
2156.0577801037944 696.3079517599765
2156.681613642895 904.8998459361603
2157.3052968478896 709.7411987390772
2157.928829754006 987.9228827310196
2158.552212396462 939.4049668679509
2159.1754448104566 740.239802838183
2159.7985270311783 823.1272394370092
2160.4214590938027 600.6159014518082
2161.0442410334927 666.8894542949972
2161.6668728853874 689.414257336569
2162.289354684628 712.0096516672545
2162.911686466332 792.8780765243591
2163.533868265602 1018.9182865908626
2164.1559001175337 960.1741407383237
2164.7777820572046 870.1582006929377
2165.399514119681 828.001205163866
2166.021096340013 776.6748446399325
2166.6425287532384 900.8144891799345
2167.263811394385 724.6016381127458
2167.8849442984574 941.5051302550831
2168.505927500455 754.7216058831971
2169.126761035366 927.9055469420113
2169.7474449381552 746.0798519315038
2170.367979243778 730.0547489918739
2170.9883639871823 980.064361238156
2171.608599203293 1031.9447999649556
2172.2286849270276 1083.9496415130309
2172.8486211932886 1027.491875756472
2173.4684080369625 906.282182707933
2174.0880454929265 619.8194081589043
2174.7075335960417 689.2795436591025
2175.3268723811543 721.2199483906799
2175.9460618831 753.2511314397188
2176.565102136701 758.1989259189118
2177.1839931767627 1014.1119798390731
2177.802735038078 948.9862458331047
2178.421327755432 743.9064388670987
2179.0397713635866 828.8586776637894
2179.658065897298 1012.7661134242156
2180.276211391305 900.4231509320385
2180.8942078803357 886.7668642693646
2181.5120553991 865.0046510142608
2182.129753982299 878.0360235611015
2182.7473036646206 891.1006417355654
2183.3647044807367 955.2869539914702
2183.9819564653044 890.4885313936736
2184.599059652968 825.5649522514052
2185.216014078367 876.4917778079937
2185.832819776113 944.4044310273337
2186.4494767808137 1012.4242531949305
2187.065985127063 853.7987678207062
2187.682344849436 693.4105493134465
2188.298555982501 896.0749255020021
2188.9146185608097 800.459443147701
2189.530532618901 987.1811867187962
2190.1462981912937 879.2325166640419
2190.761915312507 888.1346282148618
2191.377384017036 754.1137656496087
2191.9927043393654 882.9329094070905
2192.6078763139667 995.6618020814476
2193.2228999753006 723.5308968467647
2193.837775357808 855.502907544211
2194.452502495922 852.271264832358
2195.0670814240602 788.757450751039
2195.6815121766285 844.4020761434446
2196.2957947880186 900.1552564003183
2196.9099292926057 876.3339742631022
2197.523915724758 889.6138321721504
2198.137754118825 739.1057857562494
2198.7514445091456 1030.7543520158513
2199.3649869300443 800.105408581506
2199.9783814158327 1102.2407246503767
2200.5916280008096 1028.8917769828074
2201.2047267192593 1017.7093985089259
2201.8176776054515 810.9820672095035
2202.430480693649 674.5535873812025
2203.0431360180955 774.8302112154847
2203.6556436130195 875.3870898174873
2204.268003512645 692.5607592789795
2204.8802157511727 855.460307099244
2205.492280362796 888.8491965108184
2206.1041973816937 922.3571816844369
2206.715966842032 958.7640553422874
2207.3275887779655 790.2322503664293
2207.93906322363 802.5252038571997
2208.550390213153 814.7342499887784
2209.1615697806465 826.8309338914362
2209.7726019602105 724.5948153607143
2210.3834867859277 746.265411914232
2210.9942242918787 822.9289831362394
2211.6048145121167 847.3228152739714
2212.2152574806914 871.6998322138994
2212.825553231638 896.108158516016
2213.435701798975 967.2768085978887
2214.045703216707 902.7517384186622
2214.655557518832 800.0195287549798
2215.2652647393297 697.2419931141894
2215.874824912169 734.155206582733
2216.4842380713 771.2360523417483
2217.09350425067 733.779923030206
2217.7026234842033 895.6666857478392
2218.311595805819 933.8737400440311
2218.9204212494133 887.8808545877034
2219.52909984888 923.201359887494
2220.137631638092 632.2525726792662
2220.7460166509154 916.5177999435197
2221.354254921198 948.939786814041
2221.9623464827764 981.398925141885
2222.5702913694713 827.1646753300129
2223.178089615096 954.4654259261819
2223.7857412534486 851.7326764100704
2224.39324631831 673.8960088429308
2225.000604843457 595.2034368914747
2225.607816862641 718.3754008758738
2226.214882409611 841.7102487003725
2226.8218015180973 956.5060796363969
2227.4285742218217 1017.8767697364777
2228.0352005544864 954.8111608231135
2228.6416805497847 651.2789724575871
2229.248014241399 642.9292618459308
2229.8542016629945 722.9863991974195
2230.460242848223 874.2027931702336
2231.0661378307304 966.1232567635722
2231.671886644139 760.5355314840741
2232.277489322065 881.5968640284103
2232.8829458981127 604.4924524727534
2233.48825640587 700.8929844998377
2234.0934208789095 1060.8963767654618
2234.6984393507955 1098.022995243908
2235.3033118550793 927.5148584537847
2235.9080384252975 756.7949115925727
2236.5126190949723 691.68439362577
2237.1170538976166 641.8327543504809
2237.721342866729 795.1554867142682
2238.32548603579 735.8079072280218
2238.9294834382763 878.4653345236002
2239.533335107646 905.5463904556224
2240.1370410773434 771.3038261712343
2240.740601380803 918.7093300339548
2241.3440160514474 1066.3560617569162
2241.9472851226783 912.8306880275335
2242.550408627896 910.6440335791706
2243.1533866004793 908.4689043923157
2243.756219073799 842.9183985562153
2244.3589060812064 886.444705478599
2244.961447656049 772.0528898770108
2245.5638438316564 889.5307006171901
2246.166094641343 835.6312705372596
2246.7682001184166 833.4819030192051
2247.3701602961664 770.5632506947356
2247.971975207871 898.9377174452724
2248.5736448867974 898.3254518957762
2249.175169366197 830.7742013263138
2249.7765486793123 803.2287647672222
2250.3777828593684 850.0411729175015
2250.9788719395783 743.37027319708
2251.579815953146 904.9392616997393
2252.1806149332606 869.7038079672682
2252.781268913097 929.963640489988
2253.381777925817 1035.1095377347253
2253.9821420045737 850.3605221875347
2254.5823611825035 954.1095694557416
2255.1824354927303 848.4476314184969
2255.782364968365 798.8419364609223
2256.38214964251 749.1924755202457
2256.9817895482483 676.2456954865117
2257.5812847186553 826.893595804999
2258.180635186791 740.4230362928796
2258.779840985704 864.3539309715883
2259.37890214843 863.6031574475022
2259.97781870799 962.2848199110218
2260.5765906973957 872.6860784781562
2261.175218149645 945.9020316756514
2261.773701097718 759.4444351792241
2262.3720395745895 770.6740505062394
2262.970233613216 806.1021331143235
2263.568283246548 855.1825123134092
2264.1661885075137 775.5088573607079
2264.763949429038 838.2270832667264
2265.3615660440246 811.495928248708
2265.959038385374 734.6238366184608
2266.5563664859637 734.3961109414189
2267.153550378669 734.2031574974732
2267.7505900963424 841.3560461053063
2268.3474856718312 834.5054716712378
2268.9442371379664 888.6908642051048
2269.5408445275643 894.1860453775428
2270.1373078734377 930.2804035910891
2270.7336272083758 906.7975773583779
2271.32980256516 883.2570772007336
2271.925833976562 993.0031510758781
2272.5217214753357 929.5626369465548
2273.117465094223 809.1469910567369
2273.7130648659586 711.5453094131097
2274.308520823257 869.2123446558493
2274.903832998827 1007.1589817773481
2275.4990014253563 962.6465006648841
2276.094026135528 918.0305930844343
2276.6889071620117 804.5558071274193
2277.2836445374614 697.026169474031
2277.878238294519 891.0233350896106
2278.472688465812 717.4920745451693
2279.066995083962 866.0240846753461
2279.6611581815705 753.4419265846313
2280.255177791232 848.682193846447
2280.8490539455233 944.1053982680742
2281.442786677013 932.4749931372187
2282.0363760182554 1036.034877074111
2282.6298220017943 720.8726817644086
2283.223124660155 1102.0880310114694
2283.816284025859 725.5583765916128
2284.4093001314086 946.7465384757794
2285.002173009292 866.5008168006241
2285.5949026919952 925.4792122325814
2286.1874892119777 841.0783219620171
2286.7799326016993 756.4495955540244
2287.3722328936 752.5300532853232
2287.964390120109 840.5823764216595
2288.556404313642 928.7404791754216
2289.1482755066027 899.5848983520345
2289.7400037313873 946.0496997935873
2290.3315890203703 961.7883852763847
2290.9230314059205 977.55998444484
2291.5143309203904 826.5877749168885
2292.1054875961236 870.0362244117775
2292.6965014654506 1075.1729434347644
2293.287372560684 667.1903379216046
2293.878100914131 707.5699256232542
2294.468686558086 748.0585301131653
2295.059129524827 699.5744113292151
2295.649429846617 740.1496918558009
2296.239587555716 780.7916965781117
2296.8296026843636 791.1592713901979
2297.419475264791 696.88552324006
2298.0092053292137 602.3929436951362
2298.598792909839 906.8957836943193
2299.1882380388597 785.9025940758104
2299.777540748455 1057.2551413523133
2300.3667010707904 980.9710226071326
2300.9557190380256 769.7747449512452
2301.544594682302 959.6079756128102
2302.1333280357503 963.3287000092557
2302.721919130485 967.0706799894954
2303.3103679986198 1089.8603000952398
2303.898674672242 1052.010609487348
2304.486839183437 969.1379400653708
2305.0748615642697 778.2378823358595
2305.6627418468015 904.9065757612261
2306.2504800630704 563.4566482680325
2306.8380762451143 1002.3624129814098
2307.425530424949 474.08181266685335
2308.012842634582 947.9310745334402
2308.6000129060103 949.0083456464785
2309.187041271214 1037.8195125042237
2309.773927762164 971.5234033621746
2310.3606724108213 905.0968851700325
2310.9472752491274 692.6126821631431
2311.5337363090184 908.9465030774534
2312.120055622414 926.4221475387118
2312.706233221221 816.2979005435403
2313.2922691373424 748.4915329373474
2313.8781634026564 835.5379754889364
2314.463916049037 922.784277965565
2315.049527108342 912.380116382702
2315.6349966124235 1125.8467655495876
2316.2203245931123 1148.5841569484332
2316.8055110822315 778.5929221934559
2317.3905561115935 772.8569572748801
2317.9754597129977 694.330273449257
2318.560221918229 640.4697762276686
2319.1448427590603 586.500965601668
2319.729322267256 783.0324241216952
2320.313660474563 993.3741516575872
2320.8978574127195 1204.3052607771058
2321.481913113452 1190.9339757109847
2322.0658276084705 878.9312648964129
2322.6496009294806 773.247439360884
2323.233233108165 858.8414380957695
2323.8167241762058 591.1336142424256
2324.4000741652617 679.1863193737432
2324.983283106987 927.0224283968209
2325.5663510330232 1032.423295495345
2326.1492779749933 910.6299191654483
2326.7320639645204 980.6110259160192
2327.3147090332004 1051.434419301445
2327.897213212629 1122.253563289589
2328.4795765343843 967.5800361714904
2329.0617990300307 709.5730869304568
2329.643880731124 1137.9119302847628
2330.22582166921 756.1967726989099
2330.807621875816 1164.945802426714
2331.3892813824623 689.5933025849401
2331.9708002206517 746.2130945274839
2332.5521784218818 932.0638994317426
2333.133416017634 904.1215562353412
2333.7145130393765 921.2443613993471
2334.295469518571 938.4230924112292
2334.876285486658 1012.7868794937956
2335.456960975076 919.1449586829849
2336.037496015242 825.3096430066302
2336.6178906385667 807.431458288959
2337.198144876451 876.908162903968
2337.778258760278 910.5304728647803
2338.3582323214214 724.4060408973186
2338.938065591243 799.1703899707354
2339.517758601087 1089.237435165359
2340.0973113822965 1031.8283097331591
2340.676723966193 917.3377567883684
2341.255996384094 911.3701423716044
2341.835128667295 1088.5993371458949
2342.4141208470883 992.8140183375068
2342.992972954751 784.2588985605169
2343.5716850215467 642.0201354245517
2344.1502570787306 939.4096270767774
2344.7286891575386 814.3509638741876
2345.3069812892045 841.1371184983105
2345.885133504944 906.1844426537403
2346.4631458359618 779.7323315432147
2347.04101831345 698.3582614565578
2347.6187509685915 667.4117190128377
2348.196343832553 826.5646021193492
2348.7737969364935 709.2416284545955
2349.351110311558 938.4989411951872
2349.9282839888765 847.3572027162651
2350.5053179995757 736.0161284107476
2351.0822123747585 691.0630196225413
2351.658967145526 921.1060565093921
2352.2355823429643 938.5637168406902
2352.812057998144 956.1040301283892
2353.3883941421263 725.1632689907933
2353.9645908059647 884.1656339161163
2354.540648020693 753.0838359573656
2355.116565817336 823.513296481016
2355.6923442269126 894.1071739763781
2356.2679832804224 921.580940476821
2356.8434830088518 1014.5061064089332
2357.41884344318 797.8642600777505
2357.994064614377 1027.1881045351513
