#exp_cfg={"servo_angle": 0.0, "laser_lim": 100.0, "servo_angle_to": 18.0, "laser_wup": 0.0, "bt_dev": "EnSpectr-25AE3", "laser_wdn_max": 0.0, "frames": 10.0, "servo_used": 0, "servo_calib_use": 0, "laser_wdn_min": 0.0, "servo_pix_from": 90.0, "cooler_tout": 300.0, "servo_angle_from": 0.0, "servo_calib": "[-1.9174921013161362e-09, 3.9322238269163779e-05, -0.27385609119055809, 653.59552119713567]", "laser_autoctl": 0, "servo_pix_to": 3682.0, "laser_pw": 100.0, "cooler_on": 0, "laser_volt": 4.0, "cooler_autoctl": 0, "cooler_curr": 70.0, "cooler_startup": 10.0, "laser_fixed_pw": 0, "gain": 1.3, "offset": 2.53059635486, "servo_calib_degree": 3.0, "laser_curr": 55.0, "shutter": 8200.0, "servo_calib_step": 1.0, "laser_fixed_curr": 0, "exp": 2000.0, "ccd_volt": 4.7, "bt_addr": "00:06:66:62:5A:E3", "servo_delay": 500.0, "laser_autooff": 1}
#proc_cfg={"flat_auto_wnd": 200.0, "flat_auto_fr": 200.0, "flat_auto_shift": 5.0, "yconv": 1, "flatten": 1, "flatten_strength": 100.0, "xfrom": 300.0, "auto_max_frame": 2000.0, "auto_signal": 48000.0, "flat_auto_tol": 0.1, "autoclip": 1, "xrel_range": 0.0, "flat_auto_to": 4000.0, "intensity_adj": 1.0, "xrel": 7852.0, "rmhot": 1, "flat_auto_slit": 4.999999999999997, "auto_ini_exp": 300.0, "auto_off": 0, "xto": 2860.0, "flat_auto_ref": "", "flat_auto_rank": 1, "autobackg": 0, "xrel_adj": 0.0, "auto_black_lvl": 1, "base_wnd": 100.0, "sub_baseline": 0, "xconv": 2, "auto_max_exp": 1000.0, "auto_total_exp": 10000.0, "auto_exp": 0, "rmripple": 0, "black_lvl": 8233.85, "shutter_clip_adj": 0.0, "auto_bckg": 0, "flat_auto_thr": 0.9, "subbackg": 1}
316.8218498245369 14974.489762912383
317.89969571804795 14864.207769004905
318.977263876126 14853.677451291942
320.05455438786703 14746.405730805835
321.1315673423287 14662.566320088687
322.2083028285215 14717.642278382835
323.2847609354267 14681.546748395249
324.3609417519747 14661.301684818807
325.43684536705587 14626.277907707936
326.5124718695279 14508.46861778739
327.58782134820103 14552.038397670305
328.66289389184385 14604.503015403146
329.7376895891921 14473.53445234206
330.8122085289342 14443.627314503068
331.88645079971866 14486.74672546816
332.9604164901575 14327.709688933823
334.03410568881554 14434.89973133412
335.1075184842266 14483.296263604925
336.18065496487543 14381.349980098345
337.2535152192122 14338.273092286841
338.32609933564163 14342.564892132175
339.39840740253203 14235.593627071157
340.4704395082099 14227.341244363508
341.5421957409617 14215.12755049137
342.6136761890357 14289.73712242643
343.6848809406365 14219.27082247726
344.75581008392874 14181.659526553514
345.82646370703696 14027.519043555163
346.8968418980512 14143.141418305964
347.96694474501055 14123.7785448377
349.0367723359268 14176.679334399163
350.106324758759 14081.07176186399
351.1756021014353 14001.112733730133
352.2446044518383 14024.564567890444
353.31333189781435 14135.99921329514
354.38178452716966 14012.753983121482
355.449962427665 14052.731919957212
356.51786568702846 13908.735603697778
357.58549439294256 14046.18008450928
358.6528486330535 13942.1328489801
359.71992849496564 13971.82429971183
360.7867340662433 13968.413382487677
361.8532654344144 13959.42761436573
362.9195226869597 14004.55986037901
363.9855059113288 13878.284134108597
365.05121519492604 13855.580897267544
366.11665062511565 13969.96289101454
367.1818122892273 13828.215696492704
368.2467002745434 13940.322855703474
369.31131466831175 13838.217235049824
370.375655557742 13947.790349054092
371.4397230299983 13846.224215592825
372.5035171722102 13845.16336002632
373.5670380714637 13825.413960492417
374.6302858148101 13930.896715415405
375.6932604892554 13910.134023281858
376.7559621817709 13861.684877046147
377.81839097928605 13801.58249400478
378.8805469686886 13793.872582468548
379.94243023683157 13816.466357344481
381.0040408705263 13716.30283273957
382.0653789565458 13667.70294039028
383.1264445816196 13869.044864521977
384.1872378324406 13749.330422617295
385.2477587956637 13814.198166968472
386.3080075579037 13704.78199408146
387.3679842057336 13601.716515461434
388.4276888256918 13680.812902516762
389.48712150426945 13667.813204217444
390.54628232792857 13585.498091701138
391.6051713830857 13592.133145151985
392.66378875611736 13586.019736609844
393.7221345333637 13581.827040456716
394.7802088011249 13497.053748797387
395.838011645661 13586.559921222297
396.89554315319765 13370.836615773253
397.9528034099112 13457.720347629798
399.00979250194723 13363.162158658306
400.06651051541485 13351.569221726473
401.1229575363741 13369.214146605349
402.17913365085224 13363.089778515816
403.23503894483656 13416.512611499158
404.2906735042761 13349.533099914504
405.3460374150818 13305.575187653532
406.401130763119 13390.221977526933
407.455953634224 13360.630147500884
408.5105061141876 13298.770984774499
409.56478828876243 13142.897240540653
410.6188002436629 13245.742662382472
411.6725420645689 13236.437429804258
412.72601383711117 13227.370457319197
413.77921564689314 13342.757799156147
414.8321475794728 13221.269534640003
415.88480972036814 13160.659033708846
416.93720215506437 13215.934190092714
417.9893249690049 13082.677735812653
419.04117824759123 13065.05185751027
420.09276207619223 13066.596361718955
421.144076540133 13071.402475456092
422.1951217247042 13173.360071012916
423.24589771515275 13111.38076115955
424.2964045966928 13079.776173345384
425.34664245449494 13101.13044899003
426.3966113736933 13040.472960594025
427.4463114393875 13059.293419972544
428.49574273662984 13023.249737176387
429.5449053504417 13033.078167318952
430.5937993658026 13092.962516715548
431.6424248676558 13119.362393206888
432.6907819409007 13019.892130554334
433.73887067040596 13133.325309381
434.7866911409965 13066.380077755643
435.8342434374608 13121.775408812513
436.88152764455117 12984.349331348485
437.9285438469724 13037.462882009324
438.9752921294057 12955.71619037367
440.02177257648145 13069.230670607509
441.06798527279716 12850.113240534245
442.1139303029122 13078.554867563644
443.1596077513459 12911.138633736073
444.2050177025794 12955.577675367278
445.25016024105753 12960.936374941333
446.2950354511886 12923.187207089217
447.33964341733736 12966.32094989777
448.383984223834 12849.540969501086
449.4280579549686 12804.552891697214
450.471864694995 12924.107029008666
451.5154045281306 12874.96651419366
452.5586775385509 12770.054487889622
453.60168381039693 12797.042316989337
454.64442342776783 12861.544896691255
455.6868964747264 12714.427853456336
456.7291030353008 12629.502007369527
457.77104319347563 12669.681838780627
458.8127170332027 12654.925872994294
459.854124638392 12681.717494038643
460.895266092919 12772.363085539077
461.93614148061897 12799.923212379586
462.97675088529104 12834.10561906689
464.01709439069236 12743.914433572336
465.0571720805492 12779.958259666213
466.0969840385442 12756.578839334767
467.1365303483253 12898.718221208574
468.17581109350067 12767.189823320618
469.2148263576437 12744.766270118045
470.2535762242878 12809.24808286825
471.29206077693016 12825.751760158442
472.33028009902773 12909.5484603263
473.3682342740012 12846.857438641247
474.40592338523857 12829.642945112788
475.4433475160804 12826.591394285275
476.4805067498364 12836.115126397748
477.51740116978 12838.468510777118
478.5540308591426 12904.974592156917
479.59039590112116 12960.990772661029
480.6264963788726 12823.808799891925
481.6623323755193 13027.334303123625
482.6979039741436 12940.459554107301
483.7332112577915 13050.54276146498
484.76825430947247 13084.500990392324
485.80303321215797 13016.590451471353
486.837548048783 13079.197695981358
487.8717989022425 13213.460085698962
488.90578585539697 13001.175563755733
489.9395089910686 13185.41624810248
490.97296839203955 13074.339067400962
492.00616414106116 12922.703155410694
493.0390963208429 12978.39275434888
494.0717650140559 12950.495895779026
495.10417030333883 12826.980250592389
496.1363122712901 12902.459036063767
497.16819100046814 12767.46588164974
498.1998065734024 12699.621412479155
499.2311590725767 12632.359622809674
500.26224858044407 12533.208726527995
501.2930751794156 12518.89692032171
502.3236389518679 12538.770845057788
503.35393998014115 12456.673418485032
504.38397834653733 12519.574691376009
505.4137541333221 12553.390739261271
506.4432674227228 12445.473567449188
507.4725182969323 12385.380583525908
508.5015068381035 12393.380556512599
509.53023312835467 12384.998815271098
510.55869724976765 12301.509034791789
511.58689928438434 12283.158471806642
512.6148393142121 12202.268939575659
513.6425174212218 12289.143331639483
514.6699336873462 12280.378464298024
515.6970881944835 12288.891718921333
516.7239810244901 12224.814088533736
517.7506122591931 12141.260515992304
518.7769819803761 12229.701694745474
519.8030902697901 12238.540939112461
520.8289372091476 12293.555353003147
521.8545228801249 12266.185428443256
522.8798473643619 12182.563765376599
523.9049107434621 12254.136692210983
524.9297130989908 12286.050837657078
525.9542545124805 12085.127830139976
526.9785350654201 12150.052253731723
528.0025548392696 12217.695202291416
529.0263139154504 12119.841879935417
530.0498123753423 12158.751931405963
531.073050300296 12102.335764535008
532.0960277716204 12053.725099082625
533.1187448705896 12151.601083201427
534.1412016784416 12067.629191070215
535.1633982763833 12142.140811190337
536.1853347455726 12023.53765387514
537.2070111671401 12004.746371206646
538.2284276221817 12047.757896705622
539.2495841917516 11938.832795001326
540.2704809568677 11935.976615684463
541.2911179985167 12035.39666394043
542.3114953976419 11883.606965717567
543.3316132351592 11838.737179477846
544.3514715919409 11903.254077752705
545.3710705488247 11890.679664552652
546.3904101866156 11813.289562889191
547.4094905860784 11858.12070447726
548.4283118279418 11810.494144626991
549.4468739929034 11839.811493555575
550.4651771616191 11906.363557025858
551.4832214147063 11744.583656622875
552.501006832761 11859.375614674671
553.5185334963226 11800.787519865535
554.5358014859103 11816.781143024238
555.5528108820035 11797.05296022081
556.5695617650363 11932.401418960028
557.5860542154242 11882.328116967594
558.6022883135283 11743.473794135538
559.6182641396881 11722.172148932692
560.6339817741991 11757.93215200988
561.6494412973225 11763.668117444884
562.6646427892883 11881.518047535355
563.6795863302796 11724.483352777092
564.694272000459 11660.715960217869
565.7086998799423 11869.674740637156
566.7228700488104 11749.017250451892
567.7367825871115 11682.40337142286
568.7504375748576 11641.016127185625
569.7638350920224 11722.693020640818
570.7769752185486 11665.771243677218
571.7898580343353 11718.153993824242
572.802483619258 11583.241602081598
573.8148520531431 11807.323663256593
574.8269634157932 11701.490320278835
575.8388177869692 11689.327042056886
576.8504152463938 11605.188223377265
577.8617558737587 11731.830155277858
578.8728397487175 11727.169125608243
579.883666950891 11687.774296892265
580.8942375598654 11802.53576524086
581.9045516551851 11790.679388594861
582.9146093163617 11788.642344917254
583.924410622878 11824.174026365386
584.9339556541727 11826.589484049155
585.9432444896538 11738.724374368385
586.9522772086875 11769.09788675601
587.9610538906127 11830.407496434414
588.9695746147318 11732.528537912513
589.9778394603054 11761.455110136481
590.985848506567 11723.59993225939
591.9936018327098 11722.20497671133
593.0010995178891 11551.953126719249
594.0083416412344 11751.155260022364
595.0153282818283 11537.012760004705
596.0220595187293 11561.7785968112
597.0285354309508 11544.502052832511
598.0347560974806 11423.292689458203
599.0407215972609 11545.725560305518
600.0464320092051 11523.028208561593
601.0518874121954 11531.878318179999
602.0570878850685 11500.86875520102
603.062033506636 11492.844888098363
604.0667243556636 11548.260211180004
605.0711605108936 11416.955232510325
606.0753420510264 11640.463777014278
607.0792690547278 11465.554085737536
608.082941600629 11485.111930800804
609.0863597673306 11485.780490346948
610.0895236333909 11578.667203208139
611.0924332773357 11682.10165727868
612.0950887776617 11644.922864069518
613.0974902128219 11638.0056990135
614.0996376612384 11708.672104750924
615.1015312013005 11825.529616975018
616.1031709113595 11847.559390594286
617.1045568697336 11774.107778626825
618.1056891547069 11884.309762573015
619.1065678445229 11990.951566937301
620.1071930173985 12072.338974220245
621.1075647515099 12050.69145326595
622.1076831250048 12198.264875251472
623.1075482159849 12164.377321156666
624.1071601025305 12202.463755679588
625.1065188626781 12171.938168683551
626.105624574433 12412.902576212728
627.1044773157682 12297.475936805582
628.1030771646128 12360.41363614093
629.1014241988742 12404.117892273356
630.0995184964158 12388.644668029601
631.0973601350688 12500.308076465994
632.0949491926294 12631.066623032477
633.0922857468631 12370.890593764741
634.089369875499 12445.162925632936
635.0862016562278 12351.278277724774
636.0827811667077 12219.668257892365
637.0791084845641 12226.183791123583
638.0751836873878 12153.065342403577
639.0710068527369 12096.64974445567
640.0665780581294 12006.77126564115
641.0618973810506 11912.252196346952
642.0569648989604 11899.337755300006
643.0517806892676 11777.764861059977
644.0463448293649 11871.327998043093
645.040657396592 11692.99512402845
646.0347184682723 11631.758977880254
647.0285281216875 11556.462344558498
648.0220864340772 11535.591006278843
649.0153934826558 11514.246724792174
650.0084493446047 11502.241976198087
651.0012540970674 11498.331895570594
651.9938078171526 11454.428674698003
652.9861105819346 11324.21000128392
653.9781624684565 11503.4205205262
654.9699635537254 11323.015231067708
655.9615139147136 11408.923838294186
656.9528136283589 11230.170106105274
657.9438627715699 11341.78038956547
658.9346614212154 11243.919444540756
659.925209654135 11091.288768054485
660.9155075471263 11170.506487774373
661.9055551769616 11167.402262642765
662.895352620375 11186.417308661035
663.8848999540678 11179.72119137437
664.8741972547068 11048.524487930412
665.863244598926 11053.998762513238
666.8520420633213 11105.322762096392
667.8405897244611 10967.68862996842
668.8288876588758 10897.231031906613
669.8169359430613 10950.625834107184
670.8047346534822 10977.962264064958
671.7922838665672 10919.35897390502
672.7795836587156 10960.706637249667
673.766634106285 11016.003361227788
674.7534352856092 10904.414229587162
675.7399872729766 10784.129736417002
676.7262901446538 10894.291434645245
677.712343976862 10893.124132249224
678.6981488457986 10936.13777065805
679.6837048276229 10844.510095835056
680.6690119984596 10857.650089803277
681.6540704344043 10832.164883901582
682.6388802115107 10801.746286000129
683.6234414058108 10839.415181422268
684.6077540932874 10764.832794247479
685.591818349907 10849.50366059577
686.575634251587 10796.112966628587
687.5592018742263 10732.192629213925
688.5425212936734 10667.06815013344
689.5255925857564 10879.425919966721
690.5084158262707 10708.956112840915
691.4909910909646 10739.482810000254
692.4733184555644 10666.02967246607
693.4553979957618 10788.072278007738
694.4372297872123 10740.861395884715
695.4188139055404 10711.287114840468
696.4001504263324 10719.568329485699
697.3812394251509 10812.789765587044
698.3620809775111 10699.965654573618
699.3426751589104 10754.59943963674
700.3230220448004 10680.560634792575
701.3031217106054 10800.074975483862
702.2829742317172 10865.954888399183
703.2625796834873 10817.614112405807
704.2419381412474 10674.392833508105
705.22104968028 10801.98217397893
706.1999143758458 10811.689821428748
707.178532303169 10789.256605166842
708.1569035374378 10863.21813087668
709.1350281538107 10967.37567629138
710.1129062274158 11053.483909597784
711.0905378333373 11136.84889637218
712.0679230466376 11224.433560813817
713.0450619423427 11376.076889216969
714.0219545954424 11445.76678664978
714.9986010808989 11437.08048079952
715.9750014736292 11612.157367816291
716.9511558485392 11684.385679857101
717.9270642804786 11841.03458827257
718.9027268442787 11962.558512718522
719.8781436147328 11848.49306032441
720.8533146666014 11840.000800234004
721.828240074612 11842.270513709811
722.8029199134635 11755.937228108476
723.7773542578125 11678.974308627385
724.751543182294 11578.172992410317
725.7254867615029 11469.488938701668
726.6991850700015 11366.205272383446
727.6726381823228 11390.529338876275
728.6458461729599 11235.187643660287
729.6188091163858 11180.201056349892
730.5915270870246 11181.602645103136
731.5640001592856 11190.516618868614
732.536228407529 11050.268076473669
733.5082119060917 11188.74051165269
734.4799507292755 11153.5902337138
735.4514449513481 11130.046509865988
736.4226946465496 11156.29450781435
737.3936998890786 11176.524303539589
738.3644607531078 11045.338185451388
739.3349773127793 10965.033085368432
740.3052496421951 10936.638675906835
741.27527781543 10787.459693110703
742.2450619065221 10676.824789952607
743.2146019894826 10733.113611816576
744.183898138288 10589.741601790263
745.1529504268801 10603.660233600118
746.1217589291682 10438.85037961055
747.0903237190341 10328.14289259402
748.058644870318 10367.994273864915
749.0267224568397 10277.735603340325
749.994556552374 10308.621230789857
750.9621472306771 10342.696099653707
751.9294945654583 10234.559671381776
752.8965986304011 10165.394028007517
753.8634594991636 10176.746336311697
754.8300772453586 10257.604150608084
755.7964519425768 10204.243663916946
756.762583664371 10161.22876952475
757.7284724842611 10143.279373073627
758.6941184757416 10134.295905071845
759.6595217122667 10136.32533749033
760.6246822672638 10139.893109668255
761.5896002141235 10053.292932508466
762.5542756262093 10158.337489430678
763.5187085768503 10114.41002923482
764.4828991393406 9992.70137293771
765.4468473869474 10021.48394658486
766.4105533929032 10100.824136381874
767.3740172304078 10087.502793196905
768.3372389726283 10065.65017573432
769.3002186926988 9999.972864329005
770.2629564637282 9919.3708683285
771.2254523587872 9912.848191901534
772.1877064509154 9902.816942435315
773.1497188131179 9882.892083120676
774.1114895183728 9788.600721721967
775.0730186396268 9820.465771305599
776.0343062497905 9779.407428420145
776.9953524217381 9811.854999531588
777.9561572283274 9780.864377877562
778.9167207423689 9838.723881661157
779.8770430366476 9720.830073318919
780.8371241839159 9845.325811695006
781.7969642568951 9752.23629945689
782.7565633282757 9892.725232343557
783.7159214707099 9684.562827087495
784.6750387568281 9808.556580609053
785.6339152592227 9777.675094885622
786.5925510504512 9664.869160559143
787.5509462030477 9674.85419286741
788.5091007895098 9722.288409357834
789.4670148823006 9804.439511674549
790.4246885538596 9782.294801037959
791.3821218765861 9643.237574045173
792.3393149228505 9652.47235997418
793.2962677649975 9676.421649315891
794.2529804753303 9714.456731784241
795.20945312613 9740.099785748453
796.1656857896378 9646.177792290695
797.1216785380675 9632.521605871045
798.0774314435985 9657.28887928352
799.0329445783846 9744.400440732361
799.9882180145414 9755.748352809573
800.9432518241574 9627.755355274745
801.89804607929 9795.949661101527
802.852600851962 9766.571535182284
803.8069162141637 9768.472291664659
804.760992237856 9738.452166741761
805.714828994971 9838.926438147857
806.6684265574077 9835.878822760422
807.6217849970271 9757.161071575858
808.574904385674 9731.55566315627
809.527784795142 9820.29633399993
810.4804262972102 9798.87461337817
811.4328289636178 9749.36466081899
812.3849928660748 9646.520206798248
813.3369180762638 9635.714616601847
814.2886046658241 9644.803010328616
815.2400527063783 9559.841167522356
816.1912622695108 9603.726264944677
817.1422334267718 9498.654017005187
818.0929662496856 9532.563995379995
819.0434608097457 9392.868587755182
819.9937171784059 9454.389569138768
820.9437354271013 9467.282265070942
821.8935156272255 9406.983891149359
822.8430578501484 9386.155317763096
823.7923621672016 9300.488257443354
824.7414286496896 9329.19385612381
825.6902573688876 9313.37659678717
826.6388483960363 9393.252491163272
827.5872018023492 9306.033790218866
828.5353176590033 9371.089629974113
829.4831960371503 9341.081980693749
830.4308370079016 9299.386414148223
831.3782406423525 9261.78191335212
832.3254070115545 9303.829742255304
833.2723361865319 9158.11494275537
834.2190282382799 9196.238191768138
835.1654832377644 9267.731308406703
836.1117012559116 9157.98332275671
837.0576823636256 9248.127087267323
838.003426631778 9154.861501091182
838.9489341312074 9137.461553221885
839.8942049327197 9209.2654575928
840.8392391070975 9210.478568074303
841.7840367250865 9160.187748555878
842.7285978573982 9075.754460960636
843.672922574724 9107.693361556725
844.6170109477152 9151.69370961747
845.560863046996 9154.692711815773
846.5044789431595 9159.943035534534
847.4478587067697 9135.555200421946
848.3910024083561 9178.788489121649
849.333910118421 9096.068665659397
850.2765819074339 9078.395828698596
851.2190178458332 9185.041237508605
852.161218004032 9124.251256398024
853.1031824524016 9168.957930873501
854.0449112612987 9048.316919998379
854.9864045010327 9088.081516788918
855.9276622418947 9053.606371516695
856.8686845541379 9081.224064246775
857.8094715079915 9060.53556694116
858.7500231736467 9165.259103926173
859.690339621271 9165.509305945738
860.6304209209939 9137.627199405435
861.5702671429244 9033.234544726905
862.5098783571284 9106.401388540295
863.4492546336569 9105.769176024325
864.3883960425155 9033.870040269961
865.3273026536863 9041.984784000782
866.2659745371238 8947.683870456143
867.2044117627465 9049.076608634805
868.1426144004472 9066.579013489234
869.0805825200823 9019.951144250314
870.0183161914847 9056.292905904895
870.9558154844526 9052.546490298851
871.8930804687552 9030.766519191395
872.8301112141307 8966.200426789144
873.7669077902865 9129.292615679497
874.7034702669062 9251.32904922014
875.6397987136315 9117.970379609582
876.5758932000863 9107.378730623042
877.5117537958522 9181.477106787523
878.4473805704911 9057.044712682491
879.3827735935283 9092.568227342052
880.3179329344603 9114.800388968939
881.2528586627541 9213.523765883012
882.1875508478479 9203.336582453228
883.1220095591489 9041.096325856724
884.0562348660296 9103.191309887052
884.9902268378391 9154.139646067046
885.9239855438955 9104.688641396144
886.8575110534839 9049.652707108131
887.7908034358588 9040.424814223354
888.7238627602474 9039.505114590347
889.6566890958475 9019.40525386259
890.5892825118208 8990.16458667373
891.5216430773125 9009.530098770554
892.4537708614189 8986.242013782383
893.3856659332196 8915.169449588864
894.3173283617652 8860.293463288837
895.2487582160684 8925.926359905161
896.179955565116 8975.612953198755
897.110920477864 8788.860305266502
898.0416530232451 8891.561831898838
898.9721532701478 8850.353819463693
899.9024212874428 8864.088419096344
900.8324571439662 8869.615752181046
901.7622609085302 8864.517102574393
902.6918326499072 8748.229756509525
903.6211724368477 8847.622602724876
904.5502803380696 8827.126319340707
905.4791564222614 8930.448052165477
906.4078007580792 8731.662439760925
907.3362134141571 8771.406734846594
908.2643944590909 8822.089565852819
909.1923439614493 8795.747069616004
910.1200619897754 8761.05136348415
911.0475486125779 8833.753117111362
911.9748038983344 8794.841764662911
912.9018279155007 8702.335073474718
913.8286207324982 8672.42105929974
914.7551824177117 8793.609773353066
915.6815130395116 8770.70632196784
916.6076126662283 8665.23525237913
917.533481366163 8679.559012635735
918.4591192075914 8640.371020898932
919.3845262587565 8777.686631023918
920.3097025878706 8554.621613247264
921.2346482631237 8617.360463105502
922.1593633526682 8624.376144455378
923.0838479246304 8598.64382515519
924.0081020471061 8701.98803622131
924.9321257881656 8558.858089316192
925.8559192158464 8598.348563921198
926.7794823981512 8515.726927464566
927.7028154030686 8522.926938315397
928.6259182985414 8539.422107076005
929.5487911524906 8600.474405752038
930.4714340328119 8634.228780744397
931.3938470073608 8460.057316338329
932.3160301439748 8495.099718658696
933.2379835104548 8554.797678245672
934.1597071745709 8548.166463988193
935.0812012040769 8571.529249083407
936.002465666681 8553.42687031269
936.9235006300696 8611.317789708446
937.8443061619055 8553.270425804816
938.7648823298077 8490.656645287952
939.6852292013809 8496.578131861923
940.6053468441951 8567.927618082678
941.5252353257874 8495.325113845074
942.4448947136698 8582.600846174471
943.364325075323 8523.004806262947
944.2835264782043 8463.294996957953
945.2024989897309 8516.287235828844
946.1212426773054 8496.302986788654
947.0397576082851 8513.04180578778
947.9580438500125 8578.878126455476
948.8761014697939 8583.687481535531
949.7939305349064 8650.269692877013
950.7115311125999 8473.983578613263
951.6289032700952 8518.807924795841
952.5460470745875 8619.508662896127
953.4629625932339 8507.068154247874
954.3796498931715 8550.827873560129
955.2961090415029 8629.716122109803
956.2123401053068 8534.983254486955
957.1283431516276 8490.473602787546
958.0441182474842 8482.854123801286
958.9596654598663 8587.928268191723
959.8749848557309 8485.39562707925
960.7900765020167 8358.9555628197
961.7049404656209 8430.51065382811
962.6195768134185 8469.30265258778
963.5339856122537 8455.175721665259
964.4481669289453 8457.374734931227
965.3621208302793 8399.503213198952
966.2758473830145 8348.740209413345
967.1893466538822 8453.407780760952
968.1026187095813 8377.874195717504
969.0156636167867 8451.634885896736
969.9284814421426 8470.968866518979
970.8410722522622 8404.818716131202
971.753436113735 8321.244867231642
972.6655730931161 8317.81145454534
973.5774832569368 8506.012530771393
974.4891666716958 8337.582719396614
975.4006234038698 8314.064689711811
976.3118535198955 8294.793116190245
977.2228570861935 8392.481085950156
978.1336341691494 8381.41402903586
979.0441848351202 8303.076776665363
979.9545091504333 8316.196057455702
980.864607181391 8308.687465930505
981.7744789942699 8355.302638004083
982.6841246553086 8394.662340623701
983.5935442307236 8367.264479162504
984.5027377867027 8321.899874207078
985.4117053894024 8371.644596217324
986.3204471049557 8264.224625023071
987.2289629994648 8334.941886417118
988.1372531390007 8397.787502258043
989.0453175896091 8385.602212993923
989.9531564173067 8355.931978983323
990.860769688079 8268.01977300069
991.7681574678918 8436.108977845197
992.6753198226706 8270.50862348941
993.582256818323 8333.442498575467
994.4889685207218 8345.761145981976
995.3954549957143 8475.568151603085
996.301716309119 8314.598949549929
997.2077525267232 8377.856914200427
998.1135637142943 8350.873299321067
999.0191499375615 8351.993926580992
999.924511262232 8364.547326869813
1000.8296477539861 8386.127171236152
1001.7345594784656 8229.139005996509
1002.6392465012996 8320.522987276623
1003.5437088880753 8445.708795426879
1004.4479467043584 8364.484072579802
1005.3519600156869 8236.579679594735
1006.2557488875718 8317.195126669649
1007.1593133854858 8371.60372565244
1008.0626535748888 8302.623463802538
1008.9657695212009 8186.4225206503415
1009.8686612898182 8390.428195699507
1010.7713289461135 8403.513701260836
1011.6737725554212 8243.04410120135
1012.5759921830577 8271.557913508095
1013.4779878943027 8279.160526027903
1014.379759754418 8236.21564045824
1015.2813078286254 8202.33268745548
1016.18263218213 8218.071537024127
1017.0837328801026 8284.409221597009
1017.9846099876886 8231.57552904093
1018.8852635700023 8142.3467601999455
1019.7856936921362 8136.654248197994
1020.6859004191447 8161.871737944646
1021.5858838160675 8153.593984893721
1022.4856439479063 8126.371160424023
1023.3851808796389 8119.223504877764
1024.2844946762143 8248.370873712762
1025.183585402554 8106.082534542965
1026.082453123554 7992.481669100964
1026.9810979040776 8185.193071937574
1027.8795198089647 8056.565424096557
1028.777718903024 8100.288870301914
1029.6756952510368 8030.723480565866
1030.5734489177648 8018.401440247678
1031.4709799679313 8082.6038706722275
1032.3682884662358 8192.937782736695
1033.2653744773506 7911.204627843645
1034.1622380659192 7958.970695080978
1035.058879296559 8050.552549389306
1035.9552982338591 8069.228701410432
1036.8514949423825 8024.165639163673
1037.7474694866614 8109.634043270601
1038.6432219312028 7941.595254428884
1039.5387523404825 8070.914203864796
1040.4340607789582 8001.771278950995
1041.3291473110476 7991.749720787533
1042.2240120011465 8080.4666050998785
1043.1186549136273 8112.067465982468
1044.0130761128294 7992.579137005942
1044.9072756630649 8004.527880449159
1045.8012536286205 8014.014430518265
1046.6950100737577 8044.819864887148
1047.588545062701 8101.301305380866
1048.481858659663 8133.116310256499
1049.3749509288118 8110.365975143735
1050.2678219343034 8073.000562089493
1051.1604717402515 8032.019332080633
1052.0529004107575 7929.099182551532
1052.9451080098825 8097.131136799889
1053.8370946016694 8023.71739072162
1054.7288602501267 8048.800249627598
1055.6204050192446 8074.083440479359
1056.511728972977 8038.695693121389
1057.402832175254 8020.999119205333
1058.2937146899785 8020.617619690071
1059.1843765810263 7937.273868686949
1060.0748179122456 8010.19385486588
1060.9650387474576 7984.0765625377635
1061.855039150456 7945.427890978643
1062.7448191850071 7953.403922725262
1063.6343789148505 7851.826364822804
1064.5237184037014 8040.18012085611
1065.412837715241 7953.138148351168
1066.3017369131267 7894.604544508101
1067.190416060992 7925.027441927645
1068.0788752224398 7828.664457334104
1068.9671144610438 7869.507108739772
1069.8551338403558 7955.983023785154
1070.7429334239023 7970.069967877852
1071.6305132751695 7826.580446331869
1072.517873457633 7953.45376349258
1073.4050140347335 7873.206625801244
1074.2919350698776 7860.492909365479
1075.1786366264623 7867.916967010786
1076.0651187678395 7940.126379672618
1076.95138155735 7836.087012636822
1077.8374250582929 7823.934221562859
1078.7232493339507 7804.178336517658
1079.608854447577 7755.434429899704
1080.4942404623907 7798.094255054435
1081.3794074415982 7925.765246089426
1082.2643554483657 7985.988237561391
1083.149084545841 7882.915702727897
1084.033594797138 7831.0533576169955
1084.9178862653516 7818.697323815222
1085.8019590135427 7934.298111273214
1086.6858131047484 7824.363595480904
1087.5694486019802 7930.548277672997
1088.4528655682225 7893.9363909262975
1089.3360640664287 7957.60739083568
1090.2190441595321 7965.444774545262
1091.1018059104317 7982.992201383364
1091.98434938201 8011.117192941155
1092.866674637111 7993.631292258271
1093.748781738559 7963.60096448229
1094.6306707491512 7802.109632631541
1095.5123417316554 7990.625832590401
1096.3937947488157 7921.68715570412
1097.2750298633455 7939.728888968447
1098.156047137938 7815.997962855016
1099.0368466352556 7867.980937431965
1099.9174284179317 7858.713454797607
1100.7977925485757 7762.867308646145
1101.6779390897755 7713.449102569764
1102.5578681040806 7767.370498233076
1103.4375796540226 7742.501196716223
1104.3170738021054 7749.746681237555
1105.1963506108077 7625.977792978844
1106.0754101425773 7630.0868252928685
1106.9542524598382 7743.729766898325
1107.8328776249855 7706.601302331088
1108.7112857003904 7651.7290470686
1109.5894767483987 7640.093584754555
1110.4674508313292 7789.98558343661
1111.3452080114657 7674.866506148993
1112.2227483510815 7672.826974435404
1113.1000719124077 7691.98462481822
1113.9771787576592 7657.735644896126
1114.854068949022 7694.354280290792
1115.7307425486542 7737.2908218358425
1116.6071996186893 7689.275648911587
1117.483440221229 7748.276672615573
1118.3594644183577 7739.188753373016
1119.235272272128 7839.49387680885
1120.1108638445658 7802.004327699695
1120.9862391976712 7975.288615869265
1121.8613983934229 7882.383183347198
1122.7363414937627 7861.562668803487
1123.6110685606182 7897.885559451208
1124.485579655884 7939.800509765289
1125.359874841426 7947.4433377264095
1126.2339541790916 7897.996553907872
1127.1078177306936 7967.318991682516
1127.9814655580267 7932.573617130736
1128.854897722851 7921.663233140289
1129.7281142869106 7835.287843593251
1130.6011153119125 8023.0789958397945
1131.473900859548 8037.729959290676
1132.3464709914697 7950.407415815624
1133.2188257693178 7934.831469031393
1134.0909652546961 7839.634403889863
1134.96288950919 7703.733519288087
1135.8345985943506 7785.018474702958
1136.7060925717087 7703.985819291078
1137.57737150277 7726.522441488331
1138.4484354490069 7718.847033653074
1139.3192844718778 7617.457411356838
1140.1899186327992 7571.7401804926285
1141.060337993178 7680.82052092599
1141.930542614382 7652.977632934332
1142.8005325577597 7618.717035431415
1143.670307884635 7379.425263809714
1144.5398686563003 7501.825198568959
1145.409214934025 7546.396890933356
1146.2783467790541 7383.1532244177915
1147.1472642526023 7448.4976665276845
1148.0159674158622 7552.006955300067
1148.8844563300026 7341.0722318385815
1149.7527310561618 7370.267841116853
1150.6207916554504 7328.377010936502
1151.4886381889592 7277.878909350153
1152.3562707177498 7415.393226349539
1153.2236893028585 7392.3470500242165
1154.090894005296 7280.187234736717
1154.9578848860474 7332.337645315109
1155.8246620060709 7304.483682661169
1156.6912254262988 7206.390417185389
1157.5575752076438 7267.657878172108
1158.42371141098 7349.963216602437
1159.2896340971656 7409.998220853076
1160.1553433270346 7295.354619117575
1161.0208391613887 7302.413925860824
1161.8861216610057 7227.179557744556
1162.75119088664 7237.6714979315875
1163.6160468990201 7331.956925797861
1164.4806897588442 7233.0500459065315
1165.3451195267917 7279.3733647776435
1166.2093362635114 7348.239139364401
1167.0733400296285 7323.747101735986
1167.9371308857444 7155.235054815377
1168.8007088924278 7312.344350209309
1169.6640741102328 7342.485019795682
1170.5272265996773 7215.5920497061115
1171.390166421259 7140.315352682604
1172.252893635452 7254.056107754625
1173.1154083026995 7359.846613777228
1173.977710483421 7345.57968268776
1174.8398002380145 7104.789505248574
1175.7016776268483 7349.905666500779
1176.563342710264 7263.73085770669
1177.4247955485826 7202.334591041545
1178.2860362020947 7321.814332508686
1179.147064731069 7208.941247575099
1180.0078811957483 7196.854305668453
1180.8684856563486 7233.592875350744
1181.7288781730604 7207.8116601328975
1182.589058806052 7251.578989811726
1183.4490276154593 7352.110517935277
1184.3087846614017 7144.054595830498
1185.1683300039676 7296.369867047551
1186.027663703222 7355.336759357486
1186.8867858192025 7289.927723774634
1187.7456964119228 7344.2792045510505
1188.6043955413716 7350.098641493982
1189.4628832675116 7372.554141077688
1190.3211596502842 7376.991428529349
1191.179224749596 7342.768365030546
1192.0370786253388 7274.789973387914
1192.8947213373758 7369.894545929036
1193.7521529455407 7536.088828413458
1194.6093735096438 7372.333853063936
1195.466383089477 7358.137081701585
1196.3231817447977 7277.649000438056
1197.1797695353398 7422.022546336511
1198.0361465208189 7263.248126784174
1198.8923127609214 7297.877564359122
1199.7482683153048 7487.715099474673
1200.6040132436028 7515.508331551993
1201.459547605431 7249.245924031052
1202.3148714603722 7265.544178503017
1203.1699848679855 7364.469505673958
1204.0248878878065 7422.848588260298
1204.8795805793507 7139.742596672915
1205.7340630020935 7438.836742091835
1206.5883352155033 7403.841690096851
1207.4423972790064 7269.217786555292
1208.2962492520237 7265.402108099401
1209.1498911939307 7201.600409166504
1210.0033231640937 7254.144202044319
1210.8565452218427 7353.134331010627
1211.7095574264913 7037.635170828065
1212.5623598373222 7103.836904060059
1213.4149525135963 7075.657743164935
1214.2673355145507 7155.2244170502145
1215.1195088993936 7111.912756406634
1215.9714727273113 7085.841164679739
1216.8232270574663 7273.3308217654585
1217.6747719489904 7002.5602378439
1218.5261074609934 7111.770201145931
1219.3772336525653 7076.073524328365
1220.2281505827668 7180.768956179073
1221.0788583106296 7069.951698336215
1221.9293568951707 7030.546647355599
1222.7796463953746 6931.72469229809
1223.629726870202 7035.878982837605
1224.4795983785934 7030.526731529108
1225.3292609794553 6998.72284925747
1226.1787147316809 6906.94927074975
1227.0279596941327 6924.6084337567345
1227.8769959256424 6924.660708040984
1228.7258234850306 7025.1770982393555
1229.5744424310833 6873.577626123127
1230.422852822563 7060.453255781591
1231.2710547182105 7034.203504952299
1232.119048176739 6976.562437118407
1232.9668332568417 6833.790989768316
1233.8144100171812 6971.6882404991675
1234.6617785163999 7098.825570419038
1235.508938813111 6812.7968535835125
1236.3558909659114 6907.9045714597105
1237.2026350333617 7053.915064217322
1238.049171074008 7008.185494525981
1238.8954991463652 6938.565991166322
1239.741619308932 6953.35407053207
1240.587531620169 5798.325349041043
1241.4332361385277 6939.222017292826
1242.2787329224248 6875.501013630911
1243.1240220302534 6874.384553916445
1243.9691035203869 6757.913564665667
1244.813977451171 6972.142019647271
1245.6586438809263 6918.362536431678
1246.5031028679496 6763.740350474129
1247.3473544705157 6914.652604410495
1248.1913987468706 6901.828316002053
1249.0352357552383 6750.8269260492
1249.8788655538228 6872.4312945356705
1250.7222882007918 6914.657334721103
1251.565503754302 6927.658518392289
1252.4085122724755 6704.816953761949
1253.2513138134182 6999.402541913927
1254.0939084352049 6900.341595254948
1254.9362961958905 6885.7413477572945
1255.7784771535007 6857.668402978214
1256.6204513660432 6860.375769261608
1257.4622188915 6917.200198261863
1258.3037797878242 6903.108495850164
1259.1451341129468 6775.907573025901
1259.9862819247755 6956.118968881822
1260.8272232811978 6896.612087127325
1261.6679582400666 6977.885968548442
1262.5084868592203 6806.075145933432
1263.34880919647 6865.14772765425
1264.1889253095997 6902.241830534896
1265.0288352563712 6785.167515324382
1265.8685390945266 6885.404139042628
1266.7080368817751 6938.57785910214
1267.5473286758115 7000.249792511439
1268.386414534294 7001.332126721021
1269.2252945148703 6765.010303268481
1270.0639686751547 6878.264281613139
1270.9024370727402 6844.062416499421
1271.7406997651997 6865.146137538586
1272.5787568100714 6817.833184046886
1273.4166082648808 6889.15379385931
1274.2542541871244 6935.04378062654
1275.091694634275 7104.597846829526
1275.9289296637817 6791.760541883054
1276.7659593330663 7007.014253879375
1277.6027836995308 6806.528962434371
1278.4394028205552 6884.003975915543
1279.2758167534867 6861.093644396367
1280.112025555658 6900.516529967297
1280.9480292843746 6903.515242811858
1281.7838279969128 6837.47954548909
1282.6194217505326 6953.142851247726
1283.4548106024686 6748.815170099755
1284.289994609926 6901.6661066626375
1285.1249738300921 6927.147096592338
1285.959748320127 6863.479634908957
1286.7943181371702 6807.135096076333
1287.6286833383328 6885.240995000748
1288.4628439807038 6934.6681519707
1289.2968001213521 6812.70807224823
1290.1305518173194 6805.195162835672
1290.9640991256183 6902.124525481677
1291.7974421032523 6819.296180608816
1292.630580807183 6816.374069886934
1293.463515294361 6880.803753387275
1294.29624562171 6904.895691585503
1295.12877184613 6711.524339273546
1295.961094024493 6691.048136921761
1296.79321221365 6819.241508163148
1297.6251264704333 6865.081275581904
1298.4568368516466 6952.077205267257
1299.2883434140658 6934.721623830131
1300.1196462144526 6812.714567627938
1300.9507453095375 6866.255078897874
1301.7816407560313 6987.5198304600735
1302.6123326106172 6968.805981578691
1303.4428209299622 6746.972052113842
1304.2731057707024 7056.8693519880035
1305.1031871894502 6847.111293112821
1305.933065242798 6924.435083106599
1306.7627399873181 6821.904947901232
1307.5922114795467 7059.660057883087
1308.4214797760123 7033.388245766897
1309.2505449332057 6906.177883518218
1310.0794070076026 6903.434556299833
1310.9080660556538 6968.743620408638
1311.736522133786 7014.869541903034
1312.5647752983987 6786.960672716212
1313.3928256058734 6742.162443772628
1314.2206731125661 6829.094582778802
1315.048317874809 7023.397640203635
1315.8757599489109 6859.612154622099
1316.7029993911547 6831.803601546334
1317.5300362578055 6935.763508226213
1318.356870605101 6813.637540616396
1319.183502489257 6964.949066190746
1320.0099319664623 6943.083968642406
1320.836159092889 7048.991114655199
1321.66218392468 6959.145012629151
1322.4880065179532 6913.5006554724605
1323.3136269288134 6979.1504442598325
1324.1390452133292 6998.328888231939
1324.9642614275563 7094.440882072542
1325.7892756275214 6968.746999526363
1326.6140878692295 6807.052163989669
1327.4386982086617 7081.997329181382
1328.2631067017755 6901.78563447349
1329.0873134045069 6893.637224486614
1329.911318372764 6831.4131766782975
1330.735121662441 6749.813330734853
1331.558723329399 6818.326037408317
1332.3821234294774 6770.361808267039
1333.2053220185007 6738.073876858662
1334.0283191522612 6677.459444352125
1334.851114886529 6817.481620701384
1335.6737092770582 6642.422153828069
1336.4961023795695 6633.274274118082
1337.3182942497697 6684.476714688118
1338.1402849433325 6599.047350439384
1338.962074515921 6549.740667623641
1339.7836630231632 6446.397755736698
1340.6050505206676 6689.089698001776
1341.426237064028 6642.135051927311
1342.2472227088037 6543.992209075363
1343.0680075105338 6446.21693487972
1343.888591524741 6529.868485057384
1344.7089748069138 6578.941129645126
1345.5291574125276 6538.434560988322
1346.3491393970307 6290.422596812257
1347.168920815846 6587.954496390429
1347.9885017243778 6604.394718438643
1348.8078821780036 6468.497777481752
1349.6270622320844 6493.542650291603
1350.4460419419447 6313.463546319477
1351.2648213629054 6421.6307951739855
1352.0834005502438 6267.226633066612
1352.90177955923 6267.584525266102
1353.7199584451064 6485.198932339996
1354.5379372630887 6452.532764667665
1355.355716068374 6428.898319332248
1356.1732949161305 6313.351455162452
1356.9906738615155 6382.166107260019
1357.8078529596478 6385.276014364876
1358.6248322656375 6401.722016094046
1359.441611834567 6354.305829064546
1360.2581917214866 6502.487445184883
1361.0745719814367 6401.064498742906
1361.890752669433 6264.138641786179
1362.7067338404577 6266.56235808438
1363.5225155494845 6361.722371614386
1364.3380978514506 6440.488303086681
1365.1534808012839 6194.043076572066
1365.9686644538815 6049.120436094497
1366.783648864117 6365.615314142778
1367.5984340868417 6430.152849578508
1368.413020176893 6327.4992565520915
1369.2274071890715 6167.6525554778145
1370.0415951781652 6349.433731593921
1370.8555841989346 6269.115165310362
1371.6693743061223 6115.564416699824
1372.48296555444 6109.574004182165
1373.2963579985844 6325.50566229677
1374.1095516932255 6248.039116362388
1374.9225466930166 6117.697361577511
1375.7353430525782 6201.160335174439
1376.5479408265164 6039.271459042944
1377.36034006941 6207.283598926603
1378.1725408358216 6151.651610911083
1378.9845431802805 6067.102947977615
1379.796347157304 6301.308785332169
1380.6079528213813 6223.168662097941
1381.4193602269788 6104.750086107672
1382.230569428546 6182.327619059484
1383.0415804805016 6212.803788322524
1383.852393437246 6118.8026750381605
1384.6630083531563 6140.13083257417
1385.4734252825892 6204.410230641637
1386.2836442798798 6164.960442370824
1387.0936653993322 6094.702281753767
1387.9034886952395 6015.643949519351
1388.713114221864 6116.718359376911
1389.5225420334482 6145.609253990225
1390.331772184214 6108.665059453034
1391.1408047283585 5930.8778538941
1391.9496397200564 6055.961590382742
1392.758277213461 6147.613763585771
1393.5667172627054 6135.5882314593355
1394.3749599218918 6032.70536934534
1395.1830052451114 5992.300856627484
1395.9908532864265 5973.400838609103
1396.7985040998774 6044.1732479523835
1397.6059577394808 6017.099880240757
1398.4132142592352 6059.842611723134
1399.2202737131156 5958.240066921386
1400.027136155073 6116.726258895722
1400.8338016390353 6016.271192903112
1401.6402702189134 5920.0417552670115
1402.446541948586 6023.930197565802
1403.2526168819204 5894.6533874842
1404.058495072757 5885.814350891585
1404.8641765749107 5888.238472686975
1405.6696614421799 5993.23168871567
1406.4749497283356 6150.755296964658
1407.280041487129 5921.171002242705
1408.084936772295 5745.552729241751
1408.8896356375335 6075.536588272278
1409.6941381365323 6007.2384680132345
1410.498444322955 5868.18901122571
1411.3025542504402 5955.864500019886
1412.106467972606 5976.370629130086
1412.9101855430508 6061.312975810045
1413.7137070153458 5777.710166216827
1414.5170324430437 5913.361461207521
1415.320161879672 5995.223454163102
1416.1230953787435 6061.082260711141
1416.925832993742 5855.353828168277
1417.7283747781275 5772.157537156947
1418.5307207853439 5890.402156762274
1419.3328710688093 5987.759632142201
1420.134825681922 5682.840294287273
1420.9365846780584 5889.685408075248
1421.7381481105713 5996.825669471889
1422.539516032788 5860.2228325289025
1423.3406884980232 5762.5359235151745
1424.1416655595604 5849.032790442575
1424.942447270665 5820.470533029789
1425.7430336845828 5903.354641837506
1426.5434248545298 5843.927233759176
1427.3436208337116 5940.188087128447
1428.143621675301 5973.877691470708
1428.9434274324558 6004.776721140386
1429.7430381583108 5752.015844210186
1430.5424539059713 5870.347866612646
1431.3416747285337 6101.386238214474
1432.1407006790632 5998.2754553496725
1432.9395318106053 5861.155143072506
1433.7381681761835 5782.871746099747
1434.5366098288014 5974.010572875997
1435.3348568214424 5897.592980859499
1436.1329092070573 5891.511327286649
1436.9307670385879 5913.026080458876
1437.7284303689503 6021.7826693451925
1438.5258992510335 6030.442169635857
1439.3231737377118 5949.626786920517
1440.1202538818306 6005.240983512585
1440.9171397362225 5846.774913060095
1441.7138313536925 5865.828160191222
1442.5103287870243 5770.452480777071
1443.3066320889775 5752.493176046651
1444.1027413122956 6020.676449017884
1444.8986565096966 5833.353333681115
1445.694377733882 5891.608797273449
1446.4899050375207 5695.178671290532
1447.2852384732687 5834.852464300975
1448.0803780937622 5697.102685458326
1448.8753239516063 5761.163323125033
1449.6700760993954 5592.124426238937
1450.464634589689 5800.290420877407
1451.2589994750397 5860.003128958447
1452.0531708079689 5689.658452600357
1452.8471486409799 5630.917702948941
1453.6409330265524 5831.269253299051
1454.4345240171442 5604.277074654474
1455.2279216651987 5598.392119726015
1456.0211260231263 5678.741324559611
1456.8141371433194 5927.770067583827
1457.6069550781594 5760.025913005141
1458.3995798799897 5571.815932832455
1459.1920116011424 5498.85274315324
1459.98425029393 5417.64304476979
1460.7762960106338 5529.7854559638945
1461.5681488035225 5621.644023227193
1462.3598087248392 5513.27928623454
1463.1512758268036 5726.74517443024
1463.942550161617 5408.297870612338
1464.7336317814625 5546.048955313536
1465.524520738496 5539.8351565120465
1466.3152170848552 5461.789675559325
1467.1057208726506 5441.469740506121
1467.8960321539817 5469.567543475407
1468.6861509809169 5405.0565647596495
1469.4760774055085 5330.8440309659845
1470.265811479785 5293.7498650010875
1471.055353255755 5275.710574870593
1471.844702785409 5315.555136954288
1472.6338601207044 5289.737313925942
1473.4228253135934 5418.976282068546
1474.2115984159936 5304.990259523354
1475.0001794798063 5105.469054402683
1475.7885685569145 5235.250992245592
1476.576765699172 5284.872463769894
1477.3647709584238 5262.844578888125
1478.1525843864802 5446.9113415528955
1478.9402060351367 5376.924040902989
1479.7276359561693 5326.593902463573
1480.514874201328 5190.910852055296
1481.3019208223468 5194.783874457637
1482.0887758709323 5041.359839339185
1482.8754393987747 5287.328383386622
1483.6619114575406 5199.444714968107
1484.4481920988783 5268.987135794906
1485.2342813744108 5289.031130596835
1486.0201793357446 5219.807796429764
1486.8058860344572 5132.87998970465
1487.591401522117 5245.274747154785
1488.3767258502594 5221.415142532793
1489.1618590704056 5158.977891804799
1489.9468012340494 5013.289934155101
1490.7315523926754 5126.657924802819
1491.5161125977356 5238.9179416156285
1492.3004819006637 5221.996443086239
1493.084660352877 5145.950503468655
1493.8686480057622 5277.205141013629
1494.6524449106964 5232.567208554142
1495.4360511190262 5307.214064332377
1496.219466682087 5212.335139006659
1497.0026916511779 5234.458800023294
1497.7857260775945 5102.938404525654
1498.5685700125996 5175.262390809709
1499.3512235074395 5037.576416008304
1500.133686613337 5086.643228581274
1500.9159593814966 5093.912983321627
1501.698041863101 5456.964302195974
1502.4799341093094 4895.975905691672
1503.2616361712662 5022.073666345669
1504.043148100087 5169.125107701005
1504.8244699468742 5121.222532417109
1505.6056017626997 5005.523128318797
1506.3865435986281 4988.725333121626
1507.1672955056893 5041.492540413496
1507.9478575348967 4984.571129328875
1508.7282297372512 5247.3443859351355
1509.5084121637192 4977.926821811517
1510.2884048652577 4995.427576619976
1511.0682078927948 4967.615391710906
1511.8478212972423 5098.191111008643
1512.6272451294917 5071.107930051749
1513.4064794404076 5151.581583541951
1514.1855242808433 5161.203393192604
1514.9643797016215 5131.64331786639
1515.743045753552 5122.06242176923
1516.5215224874191 5032.261231364293
1517.2998099539836 4903.657444218861
1518.077908203999 5045.702715177581
1518.8558172881785 4944.523620597482
1519.633537257234 5233.249392582313
1520.4110681618404 4963.663667905281
1521.1884100526604 5091.477974427614
1521.9655629803365 5021.549989675982
1522.7425269954856 5253.090434312576
1523.5193021487103 5175.771852269186
1524.2958884905856 4907.088343999965
1525.0722860716687 4968.366767048881
1525.848494942502 4992.225201752239
1526.624515153595 4925.768697835276
1527.4003467554485 5036.738776657842
1528.175989798534 5120.776636492388
1528.9514443333064 5047.374280516111
1529.726710410203 5180.680928935328
1530.5017880796331 4983.893217858668
1531.276677391992 4924.227399439365
1532.0513783976457 5230.820901096473
1532.825891146953 4980.275084886505
1533.6002156902414 5067.781988965428
1534.3743520778207 4927.310073884559
1535.1483003599806 5076.073701071619
1535.9220605869923 5021.593824052008
1536.6956328091019 5125.134527501921
1537.4690170765407 4815.890558818514
1538.242213439511 5076.885340813081
1539.015221948208 5022.062162491781
1539.78804265279 4971.622059833721
1540.560675603405 4812.941948776692
1541.3331208501804 5035.770258164098
1542.1053784432224 5106.772670789016
1542.8774484326168 5008.160091653315
1543.649330868422 4999.601506970234
1544.4210258006842 4931.710116236184
1545.1925332794308 5038.622752074553
1545.9638533546604 5027.916194392164
1546.7349860763552 4920.664996199419
1547.5059314944829 5107.0513376909275
1548.27668965898 4985.317618522581
1549.0472606197673 4985.7358403148155
1549.817644426752 4935.984922716355
1550.5878411298072 5046.86722489122
1551.3578507787988 5022.046868755756
1552.1276734235635 4882.603128773167
1552.8973091139233 4923.645946565114
1553.6667578996767 5108.509033671328
1554.436019830604 5007.855417451741
1555.20509495646 4855.751130973881
1555.9739833269869 4815.6766053097235
1556.7426849919011 4816.354023024045
1557.511200000903 4915.424572567433
1558.2795284036674 4847.706443903132
1559.0476702498509 4900.776369788129
1559.8156255890954 4951.357962904593
1560.5833944710157 5123.395490449742
1561.3509769452048 4860.94380959078
1562.1183730612447 4863.57964427849
1562.8855828686865 4928.366268185307
1563.6526064170703 5108.922479616328
1564.4194437559127 5080.422116682733
1565.1860949347047 4950.553390077513
1565.9525600029283 5051.680641577609
1566.7188390100328 5023.715241473436
1567.4849320054564 4932.079397927622
1568.250839038612 4800.232251475708
1569.0165601588997 4895.508246712644
1569.7820954156887 4946.986095076651
1570.5474448583373 4855.67196618887
1571.31260853618 4873.32451268111
1572.0775864985299 4614.9963064566655
1572.8423787946813 4981.417919964117
1573.6069854739108 4878.348668225272
1574.371406585471 4902.5072493510825
1575.1356421785986 5034.323758954564
1575.899692302506 4866.533191696574
1576.6635570063845 5046.245103274675
1577.4272363394157 4948.999864908359
1578.190730350747 4703.289963100601
1578.9540390895163 4884.28334644182
1579.7171626048384 4686.504638330449
1580.480100945806 4799.685077828669
1581.2428541614918 4762.025990445972
1582.0054223009538 4847.59567192203
1582.767805413223 4832.792237908218
1583.5300035473156 4916.093051950442
1584.292016752228 4970.976893764382
1585.0538450769309 4892.196079397886
1585.8154885703807 4739.906532822239
1586.5769472815136 4688.968362090027
1587.3382212592405 4917.264676184563
1588.099310552463 5015.438302480049
1588.8602152100484 4678.727952813
1589.6209352808564 4960.864744893575
1590.3814708137234 4598.127609313833
1591.14182185746 5045.000510351006
1591.9019884608679 4730.487305890443
1592.6619706727215 4598.5587569466325
1593.4217685417734 4768.1594112685925
1594.1813821167616 4850.238868609266
1594.9408114464022 4584.742839034463
1595.7000565793933 4701.068444471022
1596.459117564409 4723.103535343893
1597.2179944501113 4667.233136524934
1597.9766872851324 4622.019905185436
1598.735196118092 4797.966305454918
1599.4935209975883 4804.232174616007
1600.2516619721973 4855.850032858319
1601.0096190904787 4653.045965494994
1601.7673924009723 4750.09184247611
1602.524981952196 4541.605067808496
1603.2823877926476 4546.76641621665
1604.0396099708087 4567.670809163304
1604.7966485351371 4458.462988390838
1605.5535035340745 4602.166307517773
1606.3101750160404 4741.205740105061
1607.0666630294363 4620.013102880109
1607.822967622642 4468.501001279886
1608.5790888440224 4474.3631434363
1609.3350267419137 4620.421670995024
1610.0907813646445 4642.62453076883
1610.8463527605145 4613.040589261122
1611.601740977805 4526.320183957388
1612.356946064785 4650.973868944945
1613.1119680696902 4403.9714167405955
1613.8668070407512 4579.607952283742
1614.6214630261748 4447.140973005363
1615.375936074137 4551.266791453339
1616.1302262328118 4493.773488321613
1616.8843335503425 4645.425737489151
1617.638258074854 4348.736205026815
1618.391999854457 4533.724860107273
1619.1455589372363 4671.85779118122
1619.8989353712623 4565.839738056032
1620.65212920458 4359.410668966688
1621.4051404852235 4546.615780197347
1622.1579692611976 4448.141841694995
1622.9106155804966 4344.743505224182
1623.663079491087 4363.598936290603
1624.4153610409248 4553.411676310618
1625.1674602779385 4443.417193851138
1625.9193772500403 4454.65819140646
1626.6711120051277 4540.603049725183
1627.4226645910676 4425.030892155899
1628.174035055721 4385.3054608197
1628.9252234469168 4510.513198341926
1629.676229812474 4494.533932237041
1630.4270542001905 4730.963365499019
1631.1776966578382 4525.114660746538
1631.9281572331747 4396.757923058451
1632.678435973945 4571.0711682442625
1633.4285329278573 4551.25643421277
1634.1784481426203 4312.97058701063
1634.9281816659113 4389.805554809838
1635.677733545388 4555.3655268614375
1636.4271038286934 4406.579770915481
1637.176292563452 4564.294639971408
1637.9252997972635 4501.027170855538
1638.674125577716 4572.008743656018
1639.4227699523672 4684.524848696086
1640.171232968767 4382.831153721629
1640.9195146744423 4479.2472473471325
1641.6676151168977 4592.959904797569
1642.4155343436178 4443.346219107885
1643.1632724020765 4474.024378439684
1643.9108293397167 4584.136574626814
1644.658205203974 4398.295602138072
1645.4054000422566 4839.107750735446
1646.1524139019566 4346.789276432025
1646.8992468304423 4303.665195733753
1647.6458988750728 4330.149693451434
1648.3923700831765 4469.989381300223
1649.1386605020743 4346.307538810764
1649.8847701790564 4525.593012359219
1650.6306991614038 4419.864175535149
1651.3764474963682 4363.53902768835
1652.1220152311944 4317.8708258383
1652.867402413096 4535.851508356895
1653.6126090892776 4442.840502553706
1654.3576353069184 4554.679285927202
1655.1024811131829 4486.080660691729
1655.8471465552066 4308.938921820356
1656.5916316801213 4584.491053796482
1657.3359365350298 4482.904460777421
1658.0800611670165 4396.773904221497
1658.824005623148 4361.08119426391
1659.5677699504722 4265.310242391131
1660.3113541960192 4435.814674776118
1661.054758406799 4324.595113045985
1661.7979826297997 4191.186058778483
1662.5410269119966 4139.623125454004
1663.283891300338 4287.8589683129585
1664.0265758417645 4235.847987003238
1664.7690805831826 4451.885009910576
1665.5114055714948 4306.784135462716
1666.2535508535748 4507.923553012259
1666.9955164762814 4021.856544133926
1667.7373024864555 4247.256987060557
1668.478908930916 4165.389646445873
1669.220335856462 4085.23061945541
1669.9615833098778 4221.503689198662
1670.7026513379296 4155.192437322411
1671.44353998736 4199.117132894456
1672.1842493048916 4085.9110956299423
1672.9247793372379 4150.247892355351
1673.6651301310812 4182.972395663691
1674.4053017330934 4241.828775216391
1675.1452941899242 4175.335797139132
1675.885107548207 3854.21239335716
1676.6247418545518 3962.740696303642
1677.3641971555535 3994.668242773244
1678.1034734977893 4110.33384896372
1678.8425709278108 4070.0876794494498
1679.5814894921605 4237.866096264381
1680.320229237359 4038.875410552435
1681.0587902098978 4156.021575456269
1681.7971724562685 4188.219890879855
1682.5353760229264 3950.8906768958195
1683.2734009563173 4127.076953018785
1684.0112473028657 3796.3392225741213
1684.7489151089794 4116.382869585486
1685.4864044210462 4190.634942742675
1686.2237152854377 3771.4716899773166
1686.960847748498 4020.3205467113003
1687.6978018565642 3895.469997014813
1688.434577655944 4003.9299414850175
1689.1711751929379 3904.567291939043
1689.9075945138156 3990.9346215323903
1690.6438356648396 3972.8083213462314
1691.3798986922448 3635.269741803751
1692.1157836422499 3905.5023657207166
1692.851490561059 3838.6300716346936
1693.587019494853 3944.1225996591065
1694.3223704897991 3687.6578276270316
1695.0575435920364 3622.5930006406875
1695.792538847696 3972.0428477010137
1696.527356302886 3865.1130094516034
1697.2619960036936 3614.771524048198
1697.9964579961907 3706.4801178447183
1698.730742326432 3567.1582758631594
1699.4648490404488 3668.611783627399
1700.1987781842563 3809.0716999748315
1700.9325298038548 3832.5138832598955
1701.6661039452174 3936.722412409312
1702.3995006543082 3883.4262769610805
1703.1327199770658 3960.915570837412
1703.865761959416 3727.156000914036
1704.598626647261 3913.1246052886345
1705.3313140864866 3627.8536034424637
1706.0638243229587 3798.1830998177757
1706.7961574025303 3746.9684328501266
1707.528313371029 3695.6253903594816
1708.260292274268 3595.3087994443217
1708.9920941580403 3659.412961456852
1709.7237190681226 3634.5942372579875
1710.4551670502697 3729.3780188178744
1711.18643815022 3576.7759684565526
1711.9175324136959 3818.08414391684
1712.6484498863938 3555.6602840299906
1713.379190614005 3428.111770226107
1714.109754642188 3638.3849626798024
1714.8401420165883 3735.5990838474418
1715.570352782839 4081.5647781009416
1716.3003869865497 3530.801194108238
1717.0302446733076 3462.5286549497296
1717.7599258886876 3614.0258929217175
1718.4894306782444 3685.126874056863
1719.2187590875183 3426.9126858774953
1719.9479111620203 3758.727074623467
1720.6768869472544 3596.580706164489
1721.4056864887025 3824.294317276409
1722.1343098318284 3775.8938384120606
1722.8627570220742 3701.1729063156818
1723.591028104871 3492.655936652026
1724.3191231256242 3453.479317830193
1725.0470421297232 3474.195290157065
1725.7747851625427 3580.470667143714
1726.5023522694337 3698.6416032543116
1727.2297434957363 3575.62119881769
1727.9569588867635 3256.334412579884
1728.6839984878152 3638.0120767666713
1729.4108623441734 3249.916886417878
1730.1375505011038 3595.510165258677
1730.8640630038426 3525.752987929032
1731.5903998976264 3463.189607575002
1732.316561227657 3597.7804637317363
1733.0425470391274 3370.7358313719997
1733.7683573772065 3472.6616433906083
1734.4939922870508 3574.098989319911
1735.2194518137949 3547.1271662765057
1735.9447360025606 3481.824693623773
1736.669844898439 3461.096325226982
1737.3947785465189 3375.9632729583523
1738.1195369918605 3252.187684883676
1738.8441202795093 3495.5729945467056
1739.5685284544943 3535.6010496251392
1740.292761561821 3553.26778036688
1741.0168196464838 3472.7561192898843
1741.7407027534518 3446.4829580624014
1742.464410927687 3374.18994572427
1743.187944214118 3416.993683940943
1743.9113026576688 3455.428986798929
1744.634486303241 3434.979394633593
1745.3574951957125 3513.940261066543
1746.0803293799509 3541.6987528016716
1746.8029889008048 3517.309850353681
1747.5254738031017 3371.1605982592964
1748.2477841316504 3320.4992908075533
1748.969919931249 3391.8390514600783
1749.6918812466665 3223.521643913994
1750.4136681226646 3555.839655309076
1751.1352806039777 3474.9896249848557
1751.856718735331 3288.5553944248145
1752.5779825614281 3219.9064361414867
1753.2990721269507 3543.1330721401973
1754.0199874765676 3417.9385325442054
1754.7407286549314 3272.9168483873227
1755.4612957066693 3372.384165270778
1756.1816886763954 3339.7695219861153
1756.9019076087097 3470.859804096623
1757.6219525481865 3317.0198031848277
1758.3418235393856 3420.877168254802
1759.061520626854 3290.3828696476985
1759.7810438551096 3408.696971071141
1760.5003932686614 3248.7509481152515
1761.2195689119999 3494.905327950272
1761.938570829594 3410.307053537888
1762.657399065898 3440.4403637854202
1763.376053665348 3222.6148506038817
1764.0945346723602 3150.1854689582638
1764.812842131334 3423.247123344968
1765.5309760866512 3271.024384584817
1766.2489365826787 3209.356337517095
1766.9667236637597 3202.157327409791
1767.684337374223 3139.8128754185173
1768.401777758383 3159.6702133992253
1769.1190448605284 3246.157400960394
1769.836138724937 3244.2141875150946
1770.5530593958665 3283.5784958150516
1771.2698069175603 3473.884874833112
1771.9863813342326 3336.2879720822066
1772.702782690094 3277.0012537286393
1773.4190110293293 3501.723163838053
1774.1350663961111 3278.5349748836247
1774.8509488345844 3232.593573509906
1775.5666583888924 3345.2320850463643
1776.2821951031437 3467.451610527232
1776.9975590214362 3364.276405830201
1777.7127501878585 3360.2193514032597
1778.4277686464684 3421.137814202871
1779.1426144413108 3280.4026924275204
1779.8572876164162 3289.6293580525503
1780.571788215797 3132.095109850186
1781.2861162834415 3359.327518182251
1782.0002718633277 3210.6432545747716
1782.7142549994132 3421.5646307726734
1783.4280657356376 3319.258621620399
1784.141704115922 3209.2986322986762
1784.855170184177 3145.7471112349162
1785.5684639842839 3207.1197563072674
1786.2815855601148 2969.2927405714245
1786.9945349555237 3261.880435603512
1787.707312214343 3226.2687650501143
1788.4199173803918 3557.1104066825383
1789.132350497468 3013.640492579234
1789.8446116093583 3243.980031895453
1790.556700759822 3197.056156205475
1791.2686179926077 3131.4450253514815
1791.9803633514493 3252.28805027156
1792.6919368800554 3021.058127146506
1793.4033386221236 3279.1051543991234
1794.1145686213295 3468.1623852368552
1794.8256269213307 3385.930121977238
1795.536513565774 3270.7242997637527
1796.247228598284 3129.0294322313866
1796.9577720624693 3142.1283125567925
1797.6681440019165 3283.3760156184057
1798.3783444602013 3090.917414520743
1799.0883734808776 3177.834523910064
1799.7982311074884 3232.6025521848487
1800.5079173835475 3293.8658288753068
1801.2174323525633 3219.6799183560684
1801.9267760580187 3037.0126857225414
1802.635948543386 3198.5570425183246
1803.3449498521113 2981.4683437913855
1804.0537800276325 3214.1750579184236
1804.7624391133668 3211.189657472943
1805.47092715271 3011.056726111371
1806.1792441890484 3090.947045257369
1806.8873902657433 3190.9360162260173
1807.5953654261448 3089.4128111174678
1808.3031697135812 3082.496630875097
1809.0108031713662 3104.65872884263
1809.71826584279 3069.3793909823376
1810.425557771141 3141.328773921391
1811.1326789996747 3469.760207278672
1811.839629571632 2969.1017009815673
1812.5464095302468 3118.171173330409
1813.2530189187182 3073.702835622786
1813.959457780249 2993.2203011442816
1814.6657261580076 3178.143861948411
1815.371824095153 3145.2293062401804
1816.0777516348262 3162.4932462521483
1816.78350882015 2852.1323215349994
1817.4890956942272 2935.5518507619067
1818.1945123001533 3104.5184352380656
1818.8997586809928 3008.2758471227803
1819.6048348798067 3049.3439666158233
1820.3097409396287 3042.6162851957297
1821.0144769034796 3193.455398987569
1821.7190428143622 3001.9103678093384
1822.423438715261 3089.5671797099017
1823.1276646491478 3021.7596856500704
1823.8317206589727 3109.998636372057
1824.5356067876692 3013.3235614952428
1825.2393230781581 2998.045727136986
1825.942869573335 2917.154215192825
1826.646246316086 2914.4185262001606
1827.3494533492758 3020.1858089519906
1828.052490715756 3138.6718631647664
1828.7553584583547 3133.61279854888
1829.458056619891 3176.6133997722177
1830.1605852431585 3033.700753010083
1830.8629443709433 2892.5025627278737
1831.5651340460063 3115.320202017412
1832.2671543110919 2949.9049498460977
1832.9690052089318 3189.3420669494453
1833.6706867822395 2899.3027596396237
1834.3721990737104 3097.299280020548
1835.0735421260233 3072.8614514652545
1835.774715981841 3031.987868035127
1836.4757206838058 3088.2698179559234
1837.1765562745459 3133.654587518021
1837.8772227966747 2937.024213243546
1838.5777202927839 2948.2970249116247
1839.2780488054523 3049.1182079246378
1839.9782083772352 3000.2385367765146
1840.6781990506806 3097.920903071782
1841.378020868313 2936.836932426508
1842.0776738726418 3041.504156693779
1842.777158106157 3053.9665152506395
1843.4764736113375 2871.434388162614
1844.1756204306403 3037.6928756581106
1844.8745986065078 2962.9092264638066
1845.5734081813607 2822.750627932768
1846.2720491976124 2954.3407074968627
1846.970521697649 2840.1391361840624
1847.6688257238511 2957.2856738243604
1848.3669613185684 3073.0966729194283
1849.0649285241452 2726.0451030055233
1849.7627273829057 3058.4343660759882
1850.460357937156 2893.433427097686
1851.1578202291857 2754.9492199304686
1851.8551143012664 2964.133264654648
1852.5522401956569 2853.5709343601984
1853.2491979545957 3153.4615120093704
1853.9459876203055 2932.1378950711996
1854.6426092349902 2771.4591688195565
1855.3390628408451 2857.5648818866275
1856.0353484800362 3021.702206253235
1856.7314661947203 2941.0690558317983
1857.4274160270397 2846.5802223499322
1858.123198019115 2891.2079937401527
1858.8188122130487 2807.8224609274757
1859.5142586509319 2867.1927577731212
1860.209537374838 2947.437499405054
1860.9046484268183 2856.017895968348
1861.599591848917 2900.714962511208
1862.294367683151 2660.49458388683
1862.988975971528 2880.6445193419504
1863.6834167560355 2889.6663696638952
1864.3776900786452 3032.753248310038
1865.0717959813119 2934.7073874839252
1865.7657345059724 2749.3718895353895
1866.4595056945564 2915.455709823323
1867.1531095889586 2847.8764460019675
1867.846546231076 2738.3421818375496
1868.5398156627743 3017.0544488871406
1869.2329179259123 2841.0706127628728
1869.9258530623283 3041.5294149242045
1870.618621113843 2860.816523493087
1871.3112221222636 2821.890036887967
1872.0036561293764 2814.431431628872
1872.695923176956 2899.1868371278724
1873.3880233067594 3051.7715110724853
1874.0799565605212 2756.5362297088896
1874.7717229799673 2871.4191926171247
1875.4633226068036 2901.8971181854536
1876.1547554827175 2997.774543930306
1876.8460216493859 2780.3290803387454
1877.5371211484617 2817.94732511708
1878.2280540215852 2787.4966344660606
1878.9188203103804 2763.1504966389266
1879.6094200564548 2846.818432110982
1880.299853301396 2692.083254350914
1880.9901200867826 2986.033082501589
1881.6802204541673 3073.5047587078648
1882.3701544450942 2942.4664776318095
1883.059922101087 2768.5105218417166
1883.7495234636517 2872.7801041434764
1884.4389585742792 2669.942624327171
1885.1282274744517 2792.024978282886
1885.8173302056166 3071.182268499056
1886.506266809225 2926.0149919374135
1887.195037326701 2807.4713906560346
1887.8836417994517 2858.5714301842763
1888.5720802688702 3006.373902388965
1889.260352776333 2846.662423330235
1889.9484593632042 3033.3199453853963
1890.63640007082 2770.457717510017
1891.3241749405151 2543.099766021925
1892.0117840135954 2893.4858789542095
1892.6992273313572 2840.1993761910276
1893.3865049350788 2713.0754524359213
1894.0736168660223 2999.6230591144563
1894.7605631654333 2812.824645139958
1895.4473438745408 2675.179272431858
1896.133959034556 3049.4320229533414
1896.820408686679 2855.5255121877167
1897.506692872088 2961.0539110976088
1898.192811631945 2845.308053956544
1898.8787650073991 2753.865763541805
1899.5645530395832 2878.5842554733194
1900.2501757696118 2890.477274922056
1900.9356332385796 2745.8864195891165
1901.620925487574 2932.1743604679277
1902.3060525576602 2767.863357205671
1902.9910144898859 2820.510055098115
1903.6758113252872 2782.5106858471254
1904.3604431048789 2862.8684924714444
1905.0449098696663 2882.4228837236456
1905.7292116606295 2723.2528753522756
1906.4133485187394 2901.597487500095
1907.0973204849488 2600.3361234569666
1907.7811276001976 2740.39102936575
1908.4647699053967 2715.7471333781223
1909.1482474414588 2226.0119815491257
1909.8315602492694 2592.5260714894857
1910.5147083696957 2703.2481162728473
1911.1976918436012 2751.488323535513
1911.880510711815 2619.3082498441445
1912.5631650151681 2934.3688903782245
1913.2456547944657 2661.8583521299392
1913.927980090495 2697.861307794162
1914.6101409440362 2734.840682230061
1915.2921373958416 2787.5990798183225
1915.9739694866603 2737.893734352338
1916.655637257214 2874.9877951633807
1917.3371407482136 2812.3781072212305
1918.0184800003572 3019.202954037509
1918.6996550543154 2922.210729273954
1919.3806659507554 2777.648293768218
1920.0615127303208 2714.430573742098
1920.7421954336423 2891.5401977973343
1921.4227141013343 2839.2177024715756
1922.103068773993 2813.753543736451
1922.783259492202 2815.2744558629806
1923.4632862965227 2600.95939356101
1924.1431492275078 2691.063131076362
1924.8228483256917 2715.253946036132
1925.5023836315922 2549.3504277792345
1926.1817551857057 2446.7707675459396
1926.8609630285227 2841.0825029152747
1927.5400072005123 2915.490713747365
1928.218887742125 2537.27272651468
1928.8976046938005 2682.1053265103396
1929.5761580959588 2754.273142426486
1930.2545479890086 2687.85556006806
1930.9327744133352 2535.902482155538
1931.6108374093164 2783.530990008795
1932.2887370173066 2895.1587105851927
1932.9664732776473 2426.9805759165765
1933.6440462306673 2808.322041778357
1934.3214559166754 2664.8786337953334
1934.9987023759659 2868.290268658922
1935.675785648813 2709.3113626440613
1936.3527057754836 2385.017853398281
1937.029462796223 2937.0858142434618
1937.70605675126 2677.0516291925514
1938.3824876808085 2545.8844161059196
1939.058755625072 2566.8468160997177
1939.7348606242267 2626.0331820600477
1940.4108027184448 2666.2853597700787
1941.0865819478713 2715.2268378589215
1941.7621983526478 2681.034212822786
1942.4376519728921 2616.0871542343766
1943.1129428487038 2557.659749571559
1943.7880710201734 2641.109548322915
1944.4630365273733 2772.7118608420724
1945.1378394103576 2482.2103963009854
1945.8124797091714 2793.80784240408
1946.4869574638324 2404.247977940516
1947.161272714353 2576.320696717747
1947.8354255007234 2739.960026617227
1948.5094158629272 2478.5807570641714
1949.1832438409183 2650.099632498683
1949.8569094746435 2814.1728758030604
1950.530412804037 2760.4798665764874
1951.2037538690092 2886.129774917318
1951.8769327094578 2674.1117369623307
1952.5499493652678 2619.0664387774923
1953.222803876306 2651.3411297115695
1953.895496282421 2705.9284132051484
1954.5680266234522 2581.25661316956
1955.2403949392155 2714.5566415441385
1955.9126012695142 2598.303119724231
1956.5846456541403 2677.0391046765785
1957.2565281328643 2383.890454651735
1957.9282487454457 2870.147169751708
1958.5998075316202 2649.279712417051
1959.27120453112 2636.623858168161
1959.9424397836501 2680.8320376570246
1960.613513328908 2720.246251199788
1961.2844252065697 2724.3901161665563
1961.9551754563017 2462.4325660916547
1962.6257641177453 2631.239802598714
1963.29619123054 2407.9208475500996
1963.966456834296 2494.0411056166095
1964.6365609686181 2370.524328976012
1965.306503673086 2800.2446947819835
1965.976284987275 2501.213439527054
1966.645904950734 2678.9445940858013
1967.315363603002 2433.6340017267526
1967.9846609836077 2699.1104618995964
1968.6537971320486 2448.419035908032
1969.3227720878222 2614.1344372346425
1969.9915858904042 2572.4855463451395
1970.660238579252 2710.6871114067544
1971.3287301938108 2509.1286538600475
1971.997060773514 2666.6170169807883
1972.665230357772 2548.5197616698006
1973.3332389859843 2542.4566731554487
1974.0010866975335 2349.297108860591
1974.6687735317864 2653.8821626266085
1975.3362995280932 2629.384191810789
1976.003664725793 2539.149888761128
1976.6708691642052 2394.899681966696
1977.3379128826364 2493.043176750565
1978.004795920373 2763.3989077349042
1978.6715183166925 2835.7128224282087
1979.3380801108524 2316.0017007225842
1980.0044813420973 2536.814076673115
1980.6707220496555 2310.922292561487
1981.3368022727373 2670.1791578320563
1982.0027220505417 2512.4234536042163
1982.66848142225 2257.545233055641
1983.3340804270283 2344.8345802609815
1983.999519104027 2576.73946439552
1984.6647974923835 2419.798910342461
1985.329915631215 2462.4060147940572
1985.99487355963 2389.394389313769
1986.6596713167146 2534.5252283962777
1987.3243089415428 2499.5078959820526
1987.9887864731754 2654.9017410535257
1988.6531039506553 2336.2908941320884
1989.3172614130071 2359.494877053451
1989.9812588992481 2382.7760592120894
1990.645096448372 2311.044543736576
1991.3087740993633 2419.4594951365607
1991.9722918911848 2389.25594263126
1992.635649862792 2586.25942829847
1993.2988480531185 2645.591125537834
1993.9618865010852 2725.4552613429923
1994.6247652455968 2417.9471602807807
1995.287484325545 2376.777285262515
1995.9500437798033 2332.572871315518
1996.6124436472292 2323.070917956826
1997.2746839666706 2444.4349934813454
1997.936764776954 2506.757491787184
1998.598686116895 2326.3629857131573
1999.2604480252903 2569.1549620152623
1999.9220505409212 2570.0359905380365
2000.5834937025593 2258.22386719721
2001.2447775489582 2499.2992519877344
2001.9059021188514 2583.0361376850465
2002.5668674509616 2296.5572759055744
2003.2276735839987 2439.6897705972533
2003.8883205566508 2617.9895981928444
2004.5488084075987 2503.005697740795
2005.2091371755014 2526.4359201379943
2005.8693068990033 2273.7377181264346
2006.5293176167397 2511.6772930088578
2007.1891693673224 2392.6615757917043
2007.848862189354 2273.637229643498
2008.5083961214223 2356.057901239106
2009.1677712020955 2405.5576138130536
2009.8269874699254 2341.8559733989014
2010.4860449634598 2632.5594559953397
2011.1449437212177 2238.3942463727776
2011.8036837817108 2685.7586726219
2012.4622651834325 2370.381463697078
2013.1206879648653 2576.250253378543
2013.7789521644736 2603.264323280441
2014.4370578207036 2171.9034799709993
2015.0950049719922 2457.4426456722967
2015.7527936567585 2413.6537618952348
2016.4104239134067 2400.2858788130334
2017.067895780323 2711.5302880587733
2017.725209295886 2209.0098098825524
2018.3823644984514 2501.6345122753464
2019.0393614263648 2460.433362917488
2019.6962001179545 2252.1031658159927
2020.3528806115355 2578.915976685953
2021.0094029454067 2430.9778650732687
2021.6657671578487 2248.5024032150764
2022.321973287133 2438.835438352332
2022.9780213715148 2417.763166688398
2023.6339114492293 2392.4737063874845
2024.2896435585026 2410.222204896966
2024.9452177375442 2410.9340937194306
2025.600634024544 2532.479467046888
2026.2558924576842 2440.7030366276663
2026.9109930751292 2422.193251738866
2027.565935915025 2244.344369273372
2028.2207210155066 2571.618952773324
2028.8753484146964 2587.92751251107
2029.529818150695 2208.8932068074723
2030.1841302615903 2361.836216304596
2030.8382847854573 2400.356703755595
2031.4922817603601 2422.3254907336604
2032.1461212243357 2463.780847126462
2032.7998032154192 2194.69775877723
2033.4533277716218 2321.01871820913
2034.1066949309443 2283.619432287636
2034.7599047313688 2233.8547272968594
2035.4129572108704 2407.2753574144317
2036.0658524074006 2325.389766154162
2036.7185903589016 2441.795080704611
2037.3711711032956 2576.144865850373
2038.023594678496 2374.1860918698267
2038.675861122394 2229.552165357264
2039.3279704728757 2475.3853741762114
2039.9799227678031 2215.80599860166
2040.6317180450278 2491.409206369562
2041.2833563423865 2224.7665307107864
2041.9348376977014 2699.0525722235757
2042.5861621487784 2485.305774155474
2043.2373297334088 2192.8492611293964
2043.8883404893695 2338.0432603351715
2044.5391944544208 2355.987223056535
2045.1898916663158 2503.399084434148
2045.8404321627804 2678.787526152223
2046.4908159815368 2249.645212889656
2047.1410431602853 2114.374218292513
2047.7911137367173 2205.2146271628435
2048.441027748504 2495.648932916474
2049.090785233302 2074.960524731737
2049.7403862287592 2225.172928312634
2050.389830772503 2427.1966697994253
2051.0391189021466 2177.8323865631546
2051.688250655294 2148.645224591638
2052.337226069527 2190.426128708214
2052.986045182417 2359.622054563483
2053.634708031521 2254.4145388493343
2054.283214654375 2400.5865322421873
2054.931565088511 1906.2200596230578
2055.579759371436 2237.639714043513
2056.2277975406523 2303.9082513924777
2056.8756796336384 2362.155602668553
2057.5234056878617 2044.436650484434
2058.1709757407752 2365.8254439852562
2058.8183898298194 2354.1403450410317
2059.465647992416 2353.5139541969993
2060.1127502659747 2490.9392164450505
2060.759696687888 2052.6617274077807
2061.4064872955405 2524.345120713392
2062.053122126292 2564.402170770402
2062.699601217497 1907.3959029659068
2063.345924606485 2180.090446939963
2063.992092330587 2398.6292686443676
2064.638104427102 2143.0672966233274
2065.283960933324 2420.948239207969
2065.92966188653 2304.9789962164823
2066.5752073239855 2262.7879654446924
2067.2205972829397 2200.114100140966
2067.86583180062 2391.0080962556876
2068.5109109142522 2262.3877257610366
2069.15583466104 2249.77920388199
2069.8006030781708 2237.161238856718
2070.445216202821 2273.5136222150163
2071.089674072153 2387.3910666715924
2071.7339767233116 2435.2308502801575
2072.3781241934303 2349.6466745692906
2073.0221165196253 2503.7390285126935
2073.6659537390024 2188.6863120168478
2074.3096358886505 2380.735564684564
2074.953163005637 2121.4664697226717
2075.596535127028 1999.2269548985205
2076.2397522898664 2189.403304980945
2076.882814531182 2330.5726196513756
2077.5257218879924 2337.8015168240454
2078.1684743973 2050.2361533953194
2078.8110720960885 2110.0425198304793
2079.453515021336 2521.2925163637324
2080.095803209997 2209.033185787749
2080.7379366990135 2387.2747161406382
2081.37991552532 2363.190886686589
2082.0217397258275 2183.6864840846765
2082.6634093374414 2181.3518503826226
2083.3049243970418 2191.777016923512
2083.9462849415067 2396.033903117875
2084.587491007689 2434.6308662799847
2085.2285426324324 2296.832313573289
2085.869439852564 2328.7979598741504
2086.510182704902 2046.3263309054971
2087.1507712262483 2171.9653662101036
2087.791205453381 2099.679123369889
2088.4314854230743 2267.2291509405195
2089.0716111720867 2305.0589547539835
2089.7115827371617 1987.5961337163874
2090.351400155023 2368.241721808824
2090.991063462385 2269.189614041511
2091.6305726959527 2076.91580900341
2092.2699278924047 2318.0189915553424
2092.9091290884153 2144.267312674058
2093.548176320641 2145.4296431727007
2094.187069625721 2380.520109908045
2094.8258090402887 2038.9111680238225
2095.464394600951 2172.429559567289
2096.102826344313 2228.8023011712617
2096.741104306955 2492.062350754766
2097.379228525453 2129.098585141449
2098.017199036358 1923.0813163910298
2098.6550158762147 2311.7897807634554
2099.2926790815527 2369.77368499709
2099.9301886888825 2230.586904577828
2100.5675447347076 2171.476650684108
2101.2047472555114 2464.9670885214123
2101.841796287761 2001.901700746006
2102.47869186792 2351.6027747821827
2103.1154340324265 2027.5819443866894
2103.752022817709 2298.458434515814
2104.388458260184 2262.898351629497
2105.024740396251 2243.964304742271
2105.660869262292 2153.4520955041053
2106.296844894685 2188.1543768719644
2106.93266732978 2338.9551117028723
2107.5683366039284 2275.917530665008
2108.2038527534532 2197.2028115788244
2108.8392158146726 2459.107703687506
2109.4744258238843 2169.067936637743
2110.1094828173755 2011.8478901525996
2110.744386831422 2355.3298218549603
2111.3791379022787 2323.448521316005
2112.01373606619 2251.6520032900103
2112.648181359389 2439.6504612953895
2113.28247381809 2230.932457973082
2113.916613478492 2310.1435278880485
2114.550600376786 2404.000855713094
2115.1844345491445 2113.9151703245557
2115.818116031729 2068.8043166371476
2116.451644860679 2245.1314329570696
2117.085021072133 1968.1870234130238
2117.718244702204 1966.3856032487208
2118.3513157869984 2180.6623132655413
2118.984234362604 1988.152746178054
2119.617000465092 2058.2735005452564
2120.249614130529 2362.309386907228
2120.8820753949585 2242.8689855237053
2121.5143842944162 2129.441983560238
2122.14654086492 2085.9256984037215
2122.7785451424734 2397.6069434596207
2123.4103971630702 1915.6409986720187
2124.042096962681 2313.2826821641797
2124.6736445772767 2287.950855149779
2125.305040042802 1972.4910517272324
2125.936283395191 2221.2316228584214
2126.567374670365 2132.5246795401317
2127.198313904233 2076.867542212775
2127.8291011326855 1984.8478563568879
2128.4597363916037 1892.3997785453703
2129.0902197168507 2173.7926639283596
2129.720551144279 2163.050782703205
2130.3507307097225 2453.4517184287715
2130.980758449008 2148.5279115257968
2131.6106343979427 2041.3328559609793
2132.2403585923203 2441.5758399587967
2132.8699310679276 2346.706495273357
2133.499351860526 2186.7772485229943
2134.1286210058715 2099.1487169426046
2134.7577385397053 1836.517267286045
2135.3867044977487 2310.239102569179
2136.0155189157176 2307.92160524017
2136.644181829308 2198.067495817473
2137.2726932742025 2100.7201620468577
2137.901053286074 2035.9407268234474
2138.5292619005777 1971.141372921893
2139.1573191533535 2151.259928488975
2139.7852250800315 2261.334088790797
2140.4129797162295 2074.6358103989874
2141.0405830975433 1839.754123947628
2141.6680352595613 1937.334876032623
2142.2953362378576 2035.1246368836175
2142.9224860679915 1947.4074016230384
2143.549484785508 2152.9144523608566
2144.1763324259373 2127.1606536894287
2144.803029024799 2145.6425718484147
2145.429574617594 2030.8939175124185
2146.0559692398165 2234.3828663150516
2146.682212926942 2109.03541869284
2147.308305714432 2115.5291251166564
2147.9342476377333 2177.8647040318256
2148.5600387322847 2366.1997522392053
2149.185679033506 2335.7986216917297
2149.8111685768017 2119.4755765924583
2150.4365073975678 2039.4727987915521
2151.061695531187 2203.319403711702
2151.686733013021 2348.515180584689
2152.311619878423 2253.746801880473
2152.9363561627342 2243.298423965987
2153.560941901278 1856.0137661569183
2154.1853771293663 1944.9353387306867
2154.809661882293 2149.299035929687
2155.433796195348 2384.50203613059
2156.0577801037944 2099.2050201000097
2156.681613642895 2205.5577720815018
2157.3052968478896 2064.913599729378
2157.928829754006 2225.2188919861655
2158.552212396462 2249.2783650476185
2159.1754448104566 2113.832547780711
2159.7985270311783 1928.20032226204
2160.4214590938027 1741.2461804198604
2161.0442410334927 1791.6252542221987
2161.6668728853874 2083.7406689080353
2162.289354684628 1999.0076944517052
2162.911686466332 2310.060990522322
2163.533868265602 2237.0229981003135
2164.1559001175337 2154.7010857587675
2164.7777820572046 2068.25732394275
2165.399514119681 2155.5617851630013
2166.021096340013 1833.7321501833346
2166.6425287532384 1843.642608572411
2167.263811394385 1853.675601552092
2167.8849442984574 2183.6569052167833
2168.505927500455 2028.1564199994732
2169.126761035366 2133.6197975978666
2169.7474449381552 2100.9994209817523
2170.367979243778 1911.3937613101534
2170.9883639871823 2298.0113376127424
2171.608599203293 1962.5898759050547
2172.2286849270276 2257.016912869332
2172.8486211932886 2237.650801545372
2173.4684080369625 2214.1943704196447
2174.0880454929265 1943.892849187996
2174.7075335960417 1906.6847599481341
2175.3268723811543 2218.546956430654
2175.9460618831 1899.556830861772
2176.565102136701 2063.7695761458804
2177.1839931767627 2386.4533530964654
2177.802735038078 2055.9291376104115
2178.421327755432 1965.4738625833209
2179.0397713635866 1932.0596636547332
2179.658065897298 2133.39044154718
2180.276211391305 2047.8133046751373
2180.8942078803357 1925.8017586975704
2181.5120553991 2236.053346873311
2182.129753982299 1837.6153372744368
2182.7473036646206 1910.8198018574053
2183.3647044807367 2148.1987029219954
2183.9819564653044 1924.6964791771657
2184.599059652968 2072.542712867755
2185.216014078367 2107.4750363972335
2185.832819776113 1795.3728351400853
2186.4494767808137 2177.375488863515
2187.065985127063 2037.595454324517
2187.682344849436 2030.1035437525802
2188.298555982501 2246.1622766083005
2188.9146185608097 2037.6642156127182
2189.530532618901 2270.202637924221
2190.1462981912937 2214.9454963714597
2190.761915312507 2109.3303707157565
2191.377384017036 1927.3687451378723
2191.9927043393654 2084.53943329483
2192.6078763139667 1765.9631397541202
2193.2228999753006 1859.9105548174884
2193.837775357808 1954.0803953304353
2194.452502495922 1794.6019016535242
2195.0670814240602 2070.3919930003663
2195.6815121766285 1718.7134514418735
2196.2957947880186 1707.4039901015472
2196.9099292926057 1696.0776409280286
2197.523915724758 1953.643208404335
2198.137754118825 1980.500600672963
2198.7514445091456 2219.7615869947713
2199.3649869300443 1878.69959201584
2199.9783814158327 2381.064471777057
2200.5916280008096 2166.8023364860182
2201.2047267192593 2312.157501367009
2201.8176776054515 1860.2231600424893
2202.430480693649 1859.817050195105
2203.0431360180955 2188.9366211426795
2203.6556436130195 2163.9749836845967
2204.268003512645 1864.3990046308822
2204.8802157511727 1924.2403950100793
2205.492280362796 1971.7546267236448
2206.1041973816937 2019.4555920780876
2206.715966842032 1981.761183764357
2207.3275887779655 2102.5179885096372
2207.93906322363 2164.348877280925
2208.550390213153 2003.6251531686025
2209.1615697806465 2093.0121211841265
2209.7726019602105 1897.3789794757445
2210.3834867859277 1898.694660474846
2210.9942242918787 1826.328719142571
2211.6048145121167 2020.7020186699367
2212.2152574806914 2220.807465939211
2212.825553231638 1882.4368504946935
2213.435701798975 2248.3151923455725
2214.045703216707 2116.623306726441
2214.655557518832 1805.1563805292458
2215.2652647393297 1781.2499412345344
2215.874824912169 1868.250708741344
2216.4842380713 1955.6628187360188
2217.09350425067 1770.3007448751282
2217.7026234842033 2142.8876645101122
2218.311595805819 2098.519563029171
2218.9204212494133 1719.8062065292627
2219.52909984888 2169.206021166018
2220.137631638092 1789.4295121791026
2220.7460166509154 2023.2866817352347
2221.354254921198 1916.2507754693208
2221.9623464827764 2184.9827636898985
2222.5702913694713 1993.078110023983
2223.178089615096 2163.161403584326
2223.7857412534486 1839.918882243953
2224.39324631831 1766.714947431507
2225.000604843457 1667.3806499323175
2225.607816862641 2019.4781671075566
2226.214882409611 1755.3607728124553
2226.8218015180973 2106.409034945806
2227.4285742218217 2061.5145624171787
2228.0352005544864 2006.3063351841552
2228.6416805497847 1714.935085041508
2229.248014241399 1973.6959553555055
2229.8542016629945 1799.3583319456636
2230.460242848223 2009.17089851784
2231.0661378307304 2293.2844075641087
2231.671886644139 1824.2507802677894
2232.277489322065 1651.0532267616213
2232.8829458981127 1710.2602484435047
2233.48825640587 2005.2140061154391
2234.0934208789095 2230.693616491927
2234.6984393507955 2018.0644835064845
2235.3033118550793 2115.67405538476
2235.9080384252975 1774.4246915222552
2236.5126190949723 1832.7218592218494
2237.1170538976166 1897.0088876982845
2237.721342866729 1600.272121348529
2238.32548603579 1963.0385472759517
2238.9294834382763 1910.4355524478547
2239.533335107646 1623.2045010099316
2240.1370410773434 1809.3047675608352
2240.740601380803 1699.1489147007699
2241.3440160514474 2113.337187749542
2241.9472851226783 2262.0887330914866
2242.550408627896 2133.72699070833
2243.1533866004793 2005.1857477330846
2243.756219073799 2057.0378275838475
2244.3589060812064 1846.3832661810036
2244.961447656049 1867.232757334346
2245.5638438316564 1975.3697135006103
2246.166094641343 1929.8949039928236
2246.7682001184166 1791.0836541171168
2247.3701602961664 1866.9736761752579
2247.971975207871 1956.3696636240609
2248.5736448867974 1982.0343829106866
2249.175169366197 2031.4524509112175
2249.7765486793123 1991.5646633657593
2250.3777828593684 2002.106172191873
2250.9788719395783 2017.0007851250175
2251.579815953146 1899.076883008774
2252.1806149332606 1809.2637180436498
2252.781268913097 1995.525592031853
2253.381777925817 1792.0421415125952
2253.9821420045737 1918.7071006615784
2254.5823611825035 2027.6113897880125
2255.1824354927303 1948.0896492476963
2255.782364968365 1768.9110968509463
2256.38214964251 1589.5396688948367
2256.9817895482483 1851.7300334887138
2257.5812847186553 1890.69929071446
2258.180635186791 1847.160627383289
2258.779840985704 1969.020246578857
2259.37890214843 1856.3564222008995
2259.97781870799 2177.356523831543
2260.5765906973957 1978.785764168319
2261.175218149645 2037.9006080781535
2261.773701097718 2124.2732286933597
2262.3720395745895 1598.5085522269296
2262.970233613216 1707.234488372916
2263.568283246548 2043.1830943187808
2264.1661885075137 1835.5950888048114
2264.763949429038 1838.413475216645
2265.3615660440246 1854.8613837345424
2265.959038385374 1727.0920039554796
2266.5563664859637 1872.695837534442
2267.153550378669 1919.7630522060142
2267.7505900963424 1907.6761452393353
2268.3474856718312 1824.1061416713342
2268.9442371379664 1796.9186321273191
2269.5408445275643 1981.9390902292168
2270.1373078734377 1751.7845645284208
2270.7336272083758 1729.1774150428023
2271.32980256516 1695.7885091472315
2271.925833976562 1996.44888232226
2272.5217214753357 2141.1683684211007
2273.117465094223 2267.7042792422935
2273.7130648659586 1691.8539180062962
2274.308520823257 1779.6875083730422
2274.903832998827 1929.3049264732126
2275.4990014253563 1889.539487289657
2276.094026135528 1849.6623539344357
2276.6889071620117 1749.3995763040573
2277.2836445374614 1548.3779722005268
2277.878238294519 1721.4071791229758
2278.472688465812 1683.2462792951624
2279.066995083962 1644.971147527279
2279.6611581815705 1824.5255865306208
2280.255177791232 1675.3446302345396
2280.8490539455233 2088.293184796354
2281.442786677013 2093.186285001053
2282.0363760182554 2026.652661536412
2282.6298220017943 1723.3773241425156
2283.223124660155 1704.9279425719037
2283.816284025859 1686.5305440552925
2284.4093001314086 1908.8277727671677
2285.002173009292 1962.7060031605154
2285.5949026919952 2013.5756858127054
2286.1874892119777 1786.936124890984
2286.7799326016993 1664.8956139272454
2287.3722328936 1542.4852404045728
2287.964390120109 1396.1199161084505
2288.556404313642 1904.4248185359313
2289.1482755066027 2010.0546392937663
2289.7400037313873 1710.42079203069
2290.3315890203703 1670.7237977900888
2290.9230314059205 1706.805317755575
2291.5143309203904 1742.998417424865
2292.1054875961236 1917.0071771937576
2292.6965014654506 1914.0474045954488
2293.287372560684 1784.360079452597
2293.878100914131 2105.251161012523
2294.468686558086 1819.94805275242
2295.059129524827 1565.8656462763204
2295.649429846617 1627.2942868810273
2296.239587555716 1688.8094996421555
2296.8296026843636 1952.2176651283403
2297.419475264791 2230.4130132864434
2298.0092053292137 1847.1451899306655
2298.598792909839 1805.4916059765062
2299.1882380388597 1632.3516123736842
2299.777540748455 1801.7502366268322
2300.3667010707904 1971.2617208810811
2300.9557190380256 1909.8475403264777
2301.544594682302 1963.8605460136707
2302.1333280357503 1908.68971873252
2302.721919130485 1853.4935506497181
2303.3103679986198 2137.6135033034434
2303.898674672242 2065.102558629452
2304.486839183437 1643.2770949680453
2305.0748615642697 1801.1799479977776
2305.6627418468015 1772.3986480556723
2306.2504800630704 1890.6741895924465
2306.8380762451143 1784.4820410594723
2307.425530424949 1837.5350344113958
2308.012842634582 1890.6954840245373
2308.6000129060103 2008.0598734054322
2309.187041271214 1860.886234777899
2309.773927762164 1802.863613961302
2310.3606724108213 2021.5832036581983
2310.9472752491274 1622.957509020506
2311.5337363090184 1902.472268816396
2312.120055622414 1778.9879478869407
2312.706233221221 1836.8492664905953
2313.2922691373424 1864.5211848666418
2313.8781634026564 1892.238721026914
2314.463916049037 1804.197762292224
2315.049527108342 1701.1156140869775
2315.6349966124235 1772.274823422041
2316.2203245931123 1649.0614943289597
2316.8055110822315 1525.52230920167
2317.3905561115935 1532.1876271211684
2317.9754597129977 1649.667535205701
2318.560221918229 1581.977939762865
2319.1448427590603 1514.1691595598618
2319.729322267256 1522.6033850420404
2320.313660474563 1650.7770141764086
2320.8978574127195 2062.220674075709
2321.481913113452 1975.0323264239091
2322.0658276084705 1759.218100613048
2322.6496009294806 1607.9996379092847
2323.233233108165 1486.4764449691174
2323.8167241762058 1842.095909324802
2324.4000741652617 1738.9141167476894
2324.983283106987 1934.3679010482088
2325.5663510330232 1867.7389971556659
2326.1492779749933 1566.6875773276356
2326.7320639645204 1876.6339485115354
2327.3147090332004 2122.7947490859915
2327.897213212629 1598.5018085362942
2328.4795765343843 1794.6419023326969
2329.0617990300307 1763.6329739919572
2329.643880731124 2025.197833007503
2330.22582166921 1808.2506405494285
2330.807621875816 1600.437581725533
2331.3892813824623 1843.3298312606196
2331.9708002206517 1639.7176468208731
2332.5521784218818 1744.926368609317
2333.133416017634 1811.324499840623
2333.7145130393765 1792.815345963052
2334.295469518571 2043.490022292511
2334.876285486658 1922.919957813765
2335.456960975076 1576.728986943121
2336.037496015242 1829.7835929805249
2336.6178906385667 1582.0265862434749
2337.198144876451 1948.8156864927726
2337.778258760278 1918.5144014971436
2338.3582323214214 1876.1139707874104
2338.938065591243 1833.5678854471776
2339.517758601087 2024.9596288511161
2340.0973113822965 1763.509922960075
2340.676723966193 1755.0054463224646
2341.255996384094 1955.3718898319835
2341.835128667295 2173.417690189368
2342.4141208470883 2054.5118760913074
2342.992972954751 1734.4624336280417
2343.5716850215467 1822.903753290672
2344.1502570787306 1663.3006155435146
2344.7286891575386 1503.3085984223271
2345.3069812892045 1824.5101868886618
2345.885133504944 1740.704953025132
2346.4631458359618 1667.0927546281237
2347.04101831345 1502.6735770838986
2347.6187509685915 1810.4564426772733
2348.196343832553 1663.2690944902613
2348.7737969364935 1645.0783749372163
2349.351110311558 1626.898885731287
2349.9282839888765 1687.3954763901183
2350.5053179995757 1457.7120261929779
2351.0822123747585 1576.0875294763262
2351.658967145526 1873.4156344861774
2352.2355823429643 1747.0544468874632
2352.812057998144 1759.200704282349
2353.3883941421263 1574.7186627002193
2353.9645908059647 1854.1651224112861
2354.540648020693 1762.843287588732
2355.116565817336 1496.90640798094
2355.6923442269126 1974.8863723135914
2356.2679832804224 2028.2728208481956
2356.8434830088518 1826.2435922688637
2357.41884344318 1623.7140543021349
2357.994064614377 1839.682047736503
