#exp_cfg={"servo_angle": 0.0, "laser_lim": 100.0, "servo_angle_to": 18.0, "laser_wup": 0.0, "bt_dev": "EnSpectr-25AE3", "laser_wdn_max": 0.0, "frames": 10.0, "servo_used": 0, "servo_calib_use": 0, "laser_wdn_min": 0.0, "servo_pix_from": 90.0, "cooler_tout": 300.0, "servo_angle_from": 0.0, "servo_calib": "[-1.9174921013161362e-09, 3.9322238269163779e-05, -0.27385609119055809, 653.59552119713567]", "laser_autoctl": 0, "servo_pix_to": 3682.0, "laser_pw": 100.0, "cooler_on": 0, "laser_volt": 4.0, "cooler_autoctl": 0, "cooler_curr": 70.0, "cooler_startup": 10.0, "laser_fixed_pw": 0, "gain": 1.3, "offset": 2.53059635486, "servo_calib_degree": 3.0, "laser_curr": 55.0, "shutter": 8200.0, "servo_calib_step": 1.0, "laser_fixed_curr": 0, "exp": 2000.0, "ccd_volt": 4.7, "bt_addr": "00:06:66:62:5A:E3", "servo_delay": 500.0, "laser_autooff": 1}
#proc_cfg={"flat_auto_wnd": 200.0, "flat_auto_fr": 200.0, "flat_auto_shift": 5.0, "yconv": 1, "flatten": 1, "flatten_strength": 100.0, "xfrom": 300.0, "auto_max_frame": 2000.0, "auto_signal": 48000.0, "flat_auto_tol": 0.1, "autoclip": 1, "xrel_range": 0.0, "flat_auto_to": 4000.0, "intensity_adj": 1.0, "xrel": 7852.0, "rmhot": 1, "flat_auto_slit": 4.999999999999997, "auto_ini_exp": 300.0, "auto_off": 0, "xto": 2860.0, "flat_auto_ref": "", "flat_auto_rank": 1, "autobackg": 0, "xrel_adj": 0.0, "auto_black_lvl": 1, "base_wnd": 100.0, "sub_baseline": 0, "xconv": 2, "auto_max_exp": 1000.0, "auto_total_exp": 10000.0, "auto_exp": 0, "rmripple": 0, "black_lvl": 8234.85, "shutter_clip_adj": 0.0, "auto_bckg": 0, "flat_auto_thr": 0.9, "subbackg": 1}
316.8218498245369 15291.42305407886
317.89969571804795 15129.243626921696
318.977263876126 15148.19825755359
320.05455438786703 14995.633670516423
321.1315673423287 14899.053781512825
322.2083028285215 14855.37178006076
323.2847609354267 14815.10823557938
324.3609417519747 14733.047107999964
325.43684536705587 14700.673639574414
326.5124718695279 14627.118406230158
327.58782134820103 14504.718387222261
328.66289389184385 14534.704566520948
329.7376895891921 14425.518607308724
330.8122085289342 14427.328937383189
331.88645079971866 14365.885862346235
332.9604164901575 14300.131329352123
334.03410568881554 14277.396365511482
335.1075184842266 14297.78679463251
336.18065496487543 14231.736628454872
337.2535152192122 14045.589706713115
338.32609933564163 14091.929379222081
339.39840740253203 14078.163203840804
340.4704395082099 14012.8081584503
341.5421957409617 13977.623263749274
342.6136761890357 14006.90044236495
343.6848809406365 13895.65506925516
344.75581008392874 13888.212548230222
345.82646370703696 13728.505801533907
346.8968418980512 13815.0084896568
347.96694474501055 13852.19196964988
349.0367723359268 13816.378505178127
350.106324758759 13773.632151645299
351.1756021014353 13739.257125617394
352.2446044518383 13749.310424127825
353.31333189781435 13768.277982550102
354.38178452716966 13722.43006347505
355.449962427665 13699.868438388768
356.51786568702846 13600.15734456681
357.58549439294256 13685.35794460563
358.6528486330535 13728.96748606396
359.71992849496564 13602.762066734402
360.7867340662433 13721.357846138804
361.8532654344144 13696.6212249745
362.9195226869597 13739.878733251808
363.9855059113288 13646.649184297363
365.05121519492604 13609.77912752065
366.11665062511565 13711.580911343723
367.1818122892273 13633.003622139524
368.2467002745434 13634.55016482879
369.31131466831175 13703.451405668471
370.375655557742 13677.617072944826
371.4397230299983 13752.379756924482
372.5035171722102 13671.379741850129
373.5670380714637 13650.874976178171
374.6302858148101 13619.367062566584
375.6932604892554 13596.89971926949
376.7559621817709 13638.473851348204
377.81839097928605 13559.445433349003
378.8805469686886 13544.52570734386
379.94243023683157 13805.665310323451
381.0040408705263 13477.374234263529
382.0653789565458 13460.238189627396
383.1264445816196 13549.78283599017
384.1872378324406 13456.455009879475
385.2477587956637 13429.700028675896
386.3080075579037 13423.918357774679
387.3679842057336 13227.785124045124
388.4276888256918 13383.596129828182
389.48712150426945 13304.469543401623
390.54628232792857 13294.07851968677
391.6051713830857 13284.440074035132
392.66378875611736 13201.489986423252
393.7221345333637 13214.717830512958
394.7802088011249 13077.059192971374
395.838011645661 13177.023105795824
396.89554315319765 13074.541569774901
397.9528034099112 12988.048702627875
399.00979250194723 12975.52924312911
400.06651051541485 12945.21654804574
401.1229575363741 12945.290916988935
402.17913365085224 12957.546540885287
403.23503894483656 12985.963426401338
404.2906735042761 12869.572749429175
405.3460374150818 12792.652376441663
406.401130763119 12832.217986267475
407.455953634224 12823.070643152636
408.5105061141876 12734.448706181565
409.56478828876243 12646.272233779975
410.6188002436629 12649.228391057874
411.6725420645689 12593.504329739333
412.72601383711117 12622.320990571377
413.77921564689314 12652.236941692569
414.8321475794728 12576.514181025253
415.88480972036814 12453.804816750398
416.93720215506437 12487.980828938065
417.9893249690049 12508.739263304
419.04117824759123 12416.430394086583
420.09276207619223 12360.725611407277
421.144076540133 12395.881397196441
422.1951217247042 12325.258583193852
423.24589771515275 12377.915436220472
424.2964045966928 12292.16174174756
425.34664245449494 12290.607421597399
426.3966113736933 12227.75939223822
427.4463114393875 12214.272610067614
428.49574273662984 12231.690545548707
429.5449053504417 12195.79269896421
430.5937993658026 12194.577229308667
431.6424248676558 12109.53151789909
432.6907819409007 12110.824496084395
433.73887067040596 12067.775289425024
434.7866911409965 12135.470824157665
435.8342434374608 12087.64317592626
436.88152764455117 12024.654888503992
437.9285438469724 11999.74747423022
438.9752921294057 11959.108963682897
440.02177257648145 11987.858833719925
441.06798527279716 11881.068177565927
442.1139303029122 11918.778958686451
443.1596077513459 11968.523705062707
444.2050177025794 11998.128759364967
445.25016024105753 11904.647331684015
446.2950354511886 11979.009682526532
447.33964341733736 12043.15473226842
448.383984223834 11904.958163089457
449.4280579549686 11867.83147167229
450.471864694995 11964.436514497787
451.5154045281306 11898.262835815625
452.5586775385509 11918.309018181657
453.60168381039693 11868.698924765235
454.64442342776783 12025.816577043257
455.6868964747264 11960.44917825959
456.7291030353008 11931.749656666527
457.77104319347563 11940.856377913173
458.8127170332027 11929.61093563707
459.854124638392 11976.784291705724
460.895266092919 12172.347248795635
461.93614148061897 12188.175182037872
462.97675088529104 12095.412503337298
464.01709439069236 12121.209699667896
465.0571720805492 12162.134451771697
466.0969840385442 12245.06947887379
467.1365303483253 12331.009728277013
468.17581109350067 12256.144270240577
469.2148263576437 12258.996208359527
470.2535762242878 12326.26499264431
471.29206077693016 12390.165221991569
472.33028009902773 12394.321208300978
473.3682342740012 12444.387518872396
474.40592338523857 12459.935046400857
475.4433475160804 12537.344032268931
476.4805067498364 12533.557188948516
477.51740116978 12511.404095121043
478.5540308591426 12657.849412291613
479.59039590112116 12748.340799007306
480.6264963788726 12806.764430538064
481.6623323755193 13007.11335515049
482.6979039741436 13033.404161593471
483.7332112577915 13204.772913260449
484.76825430947247 13366.470673846838
485.80303321215797 13525.815770760315
486.837548048783 13540.764696336346
487.8717989022425 13867.616278344309
488.90578585539697 13707.956737074335
489.9395089910686 13909.874881081309
490.97296839203955 13703.895218233705
492.00616414106116 13698.975365152743
493.0390963208429 13634.745647920387
494.0717650140559 13568.713824019573
495.10417030333883 13376.154585708562
496.1363122712901 13183.739260505856
497.16819100046814 13062.945752949945
498.1998065734024 12919.127869350088
499.2311590725767 12779.470443877388
500.26224858044407 12622.09040291887
501.2930751794156 12506.59479637147
502.3236389518679 12443.379898943464
503.35393998014115 12230.219284597224
504.38397834653733 12231.993427322062
505.4137541333221 12101.845693539462
506.4432674227228 12059.14358424282
507.4725182969323 12027.743291294877
508.5015068381035 11991.704909992652
509.53023312835467 11934.019722807448
510.55869724976765 11870.296442707131
511.58689928438434 11793.3598569598
512.6148393142121 11743.136751513543
513.6425174212218 11842.831289237216
514.6699336873462 11811.603620233298
515.6970881944835 11739.654566467098
516.7239810244901 11732.405926683245
517.7506122591931 11668.894579536209
518.7769819803761 11687.39330544959
519.8030902697901 11771.158890899611
520.8289372091476 11770.094884142454
521.8545228801249 11817.521426222735
522.8798473643619 11694.230478304687
523.9049107434621 11645.670295119196
524.9297130989908 11687.546998804424
525.9542545124805 11643.859220206612
526.9785350654201 11581.555607934468
528.0025548392696 11601.415184032237
529.0263139154504 11537.468464260317
530.0498123753423 11549.689939327978
531.073050300296 11535.366809691783
532.0960277716204 11536.764684723577
533.1187448705896 11509.859866659066
534.1412016784416 11451.213107980155
535.1633982763833 11342.610647225243
536.1853347455726 11340.286379404937
537.2070111671401 11292.905867489462
538.2284276221817 11238.096875385409
539.2495841917516 11170.546421632233
540.2704809568677 11119.023523111819
541.2911179985167 11171.43191918715
542.3114953976419 11108.54041981251
543.3316132351592 11062.946126313695
544.3514715919409 10962.784203978827
545.3710705488247 10914.554725788625
546.3904101866156 10994.355753737285
547.4094905860784 10949.103441553521
548.4283118279418 10918.086118097346
549.4468739929034 10959.482110138402
550.4651771616191 10935.682007842985
551.4832214147063 10871.44747963391
552.501006832761 10867.773306543717
553.5185334963226 10780.998357017445
554.5358014859103 10895.75515792322
555.5528108820035 10862.733827653263
556.5695617650363 10901.551193843166
557.5860542154242 10962.57438822135
558.6022883135283 10909.473349956696
559.6182641396881 10878.324942665895
560.6339817741991 10912.13196597429
561.6494412973225 10829.404710104365
562.6646427892883 10973.445324914706
563.6795863302796 10949.758974576078
564.694272000459 10827.776698985104
565.7086998799423 10947.134015312384
566.7228700488104 10901.20869812196
567.7367825871115 10872.36083151191
568.7504375748576 10886.543511567037
569.7638350920224 10889.410122211193
570.7769752185486 10877.772560354222
571.7898580343353 10965.143566217737
572.802483619258 10859.296051747351
573.8148520531431 10959.74841944309
574.8269634157932 10956.47686135217
575.8388177869692 10925.106007581344
576.8504152463938 10962.788402838305
577.8617558737587 11030.739439047804
578.8728397487175 10940.986488747558
579.883666950891 11127.848297793933
580.8942375598654 11235.16011476317
581.9045516551851 11286.254484083525
582.9146093163617 11398.995742194598
583.924410622878 11405.121384022192
584.9339556541727 11428.373805315856
585.9432444896538 11429.788833969296
586.9522772086875 11413.648862144266
587.9610538906127 11464.471479422247
588.9695746147318 11381.270180842688
589.9778394603054 11399.4521443723
590.985848506567 11310.343858044278
591.9936018327098 11248.819067796872
593.0010995178891 11106.698648942642
594.0083416412344 11211.622641207794
595.0153282818283 11009.705177753025
596.0220595187293 10879.416774324
597.0285354309508 10834.723119312512
598.0347560974806 10731.64219748698
599.0407215972609 10737.78613212056
600.0464320092051 10725.637152500154
601.0518874121954 10649.068902232719
602.0570878850685 10713.9020606245
603.062033506636 10620.111247256524
604.0667243556636 10663.594316679086
605.0711605108936 10596.928378496254
606.0753420510264 10797.840445778209
607.0792690547278 10689.019416755269
608.082941600629 10641.578179818003
609.0863597673306 10638.321995146622
610.0895236333909 10825.751703418526
611.0924332773357 10901.241434815518
612.0950887776617 10926.731841598259
613.0974902128219 10943.992954962283
614.0996376612384 11078.145045269855
615.1015312013005 11307.271481808546
616.1031709113595 11383.674554172057
617.1045568697336 11438.338980978388
618.1056891547069 11667.820459918878
619.1065678445229 11814.543342386456
620.1071930173985 11981.740823789914
621.1075647515099 12116.927054486285
622.1076831250048 12267.426152827327
623.1075482159849 12452.43448473256
624.1071601025305 12580.96594372438
625.1065188626781 12760.043008481427
626.105624574433 13036.167357343304
627.1044773157682 13160.071845192928
628.1030771646128 13193.527790749407
629.1014241988742 13337.405513634392
630.0995184964158 13480.43747346042
631.0973601350688 13555.166376000372
632.0949491926294 13781.589575510236
633.0922857468631 13518.959555925243
634.089369875499 13579.633168288154
635.0862016562278 13596.841506517823
636.0827811667077 13449.50239646449
637.0791084845641 13435.967829768018
638.0751836873878 13284.473526379277
639.0710068527369 13157.53227127535
640.0665780581294 13025.79109508281
641.0618973810506 12756.318390573639
642.0569648989604 12681.057029070918
643.0517806892676 12424.159847597355
644.0463448293649 12267.844376949262
645.040657396592 12138.459904920817
646.0347184682723 12058.543939148072
647.0285281216875 11856.633457679087
648.0220864340772 11694.769478128186
649.0153934826558 11524.721367425469
650.0084493446047 11473.006962316531
651.0012540970674 11337.998429476533
651.9938078171526 11261.958638702725
652.9861105819346 11211.747419836965
653.9781624684565 11229.510717443552
654.9699635537254 11081.195830671782
655.9615139147136 11105.080087494971
656.9528136283589 10842.049684858976
657.9438627715699 10935.753130021043
658.9346614212154 10760.451284737368
659.925209654135 10647.518079718535
660.9155075471263 10658.39376082114
661.9055551769616 10558.659485476785
662.895352620375 10660.550155395369
663.8848999540678 10446.017355302209
664.8741972547068 10309.9339403728
665.863244598926 10369.505219620994
666.8520420633213 10345.160519537658
667.8405897244611 10223.786121199653
668.8288876588758 10160.0688612107
669.8169359430613 10214.224465279212
670.8047346534822 10203.853410910731
671.7922838665672 10114.642315880083
672.7795836587156 10072.360028243582
673.766634106285 10112.119410598023
674.7534352856092 10031.846913895657
675.7399872729766 9936.113973811847
676.7262901446538 9999.10732923514
677.712343976862 9931.018598126871
678.6981488457986 10041.65646563021
679.6837048276229 9921.151126074383
680.6690119984596 9942.401652059769
681.6540704344043 9966.727379410584
682.6388802115107 9865.858690781797
683.6234414058108 9942.88940085185
684.6077540932874 9871.410175450324
685.591818349907 9837.883587432874
686.575634251587 9810.098013255461
687.5592018742263 9726.929917235471
688.5425212936734 9680.833495999734
689.5255925857564 9735.00748134207
690.5084158262707 9678.657125639718
691.4909910909646 9671.93776431135
692.4733184555644 9575.271806273273
693.4553979957618 9601.704920593655
694.4372297872123 9617.140131345775
695.4188139055404 9551.561767625886
696.4001504263324 9532.655287827189
697.3812394251509 9542.193929975008
698.3620809775111 9604.572814916912
699.3426751589104 9566.91046486564
700.3230220448004 9577.100766983462
701.3031217106054 9601.731035537528
702.2829742317172 9655.88196925901
703.2625796834873 9614.391947382699
704.2419381412474 9565.2506659795
705.22104968028 9621.314907807942
706.1999143758458 9661.481200626464
707.178532303169 9610.243091441469
708.1569035374378 9817.726924370461
709.1350281538107 9846.841007266601
710.1129062274158 9902.434788707651
711.0905378333373 10044.258987389283
712.0679230466376 10135.93987319966
713.0450619423427 10293.920484625232
714.0219545954424 10488.463383303852
714.9986010808989 10552.469820635797
715.9750014736292 10835.856325549381
716.9511558485392 10964.988167609083
717.9270642804786 11188.407822985262
718.9027268442787 11318.451350175475
719.8781436147328 11396.991774941593
720.8533146666014 11480.842718314969
721.828240074612 11439.00643811929
722.8029199134635 11384.43732856186
723.7773542578125 11183.929743103385
724.751543182294 11037.141806717398
725.7254867615029 10979.085690996622
726.6991850700015 10732.454823393555
727.6726381823228 10648.516624700944
728.6458461729599 10579.087496514107
729.6188091163858 10551.063794207192
730.5915270870246 10624.724182925882
731.5640001592856 10492.03688940663
732.536228407529 10474.527329353383
733.5082119060917 10649.476088137979
734.4799507292755 10653.695390101308
735.4514449513481 10750.157898477792
736.4226946465496 10877.251855475442
737.3936998890786 10755.868346953517
738.3644607531078 10619.326677685121
739.3349773127793 10473.3674962212
740.3052496421951 10443.254206844782
741.27527781543 10186.710018862272
742.2450619065221 10136.939016472728
743.2146019894826 9930.851488500097
744.183898138288 9802.89187707833
745.1529504268801 9782.552910607696
746.1217589291682 9488.854226312636
747.0903237190341 9371.730444534714
748.058644870318 9352.799938806435
749.0267224568397 9259.241256494712
749.994556552374 9098.302065918975
750.9621472306771 9037.814265348718
751.9294945654583 9095.824298697824
752.8965986304011 8999.541120473492
753.8634594991636 8930.037771473735
754.8300772453586 8948.346374295712
755.7964519425768 9012.405490663978
756.762583664371 8941.902901035715
757.7284724842611 8929.827907080125
758.6941184757416 8872.5491148016
759.6595217122667 8896.276434463329
760.6246822672638 8917.519053625021
761.5896002141235 8854.07902633301
762.5542756262093 8828.02075794687
763.5187085768503 8908.033961326502
764.4828991393406 8796.989652660977
765.4468473869474 8826.270387808063
766.4105533929032 8801.452560441912
767.3740172304078 8750.75509113249
768.3372389726283 8784.036986688901
769.3002186926988 8549.567396448767
770.2629564637282 8597.656881228193
771.2254523587872 8468.571080556478
772.1877064509154 8477.344295881985
773.1497188131179 8472.75306809066
774.1114895183728 8419.49358314246
775.0730186396268 8417.369939973974
776.0343062497905 8284.638094622276
776.9953524217381 8269.708531061748
777.9561572283274 8350.90594991337
778.9167207423689 8286.560796294836
779.8770430366476 8255.815747908611
780.8371241839159 8258.44222823632
781.7969642568951 8248.559676241217
782.7565633282757 8472.450897213701
783.7159214707099 8334.635201058418
784.6750387568281 8324.218816232316
785.6339152592227 8213.663908355387
786.5925510504512 8246.156005697616
787.5509462030477 8277.570021506672
788.5091007895098 8243.265818788383
789.4670148823006 8263.979435920228
790.4246885538596 8260.254844133884
791.3821218765861 8283.665027269259
792.3393149228505 8210.275483098387
793.2962677649975 8265.44419816662
794.2529804753303 8294.330276174902
795.20945312613 8249.849781610168
796.1656857896378 8236.263534808862
797.1216785380675 8281.033192963714
798.0774314435985 8312.756832335295
799.0329445783846 8468.8880050851
799.9882180145414 8484.891660116164
800.9432518241574 8520.525489371315
801.89804607929 8604.455678010807
802.852600851962 8642.133009549956
803.8069162141637 8733.089945070693
804.760992237856 8805.176421795088
805.714828994971 8811.566174260632
806.6684265574077 8900.345230926783
807.6217849970271 8825.052168152431
808.574904385674 8754.258514230225
809.527784795142 8823.308980231075
810.4804262972102 8816.133918769245
811.4328289636178 8627.513524145887
812.3849928660748 8513.244791893618
813.3369180762638 8498.186792935743
814.2886046658241 8429.787833590297
815.2400527063783 8346.474031034768
816.1912622695108 8272.55979354526
817.1422334267718 8199.81223844963
818.0929662496856 8087.030506618535
819.0434608097457 7977.858213776344
819.9937171784059 8004.675055721028
820.9437354271013 7950.197582864816
821.8935156272255 7879.399623829925
822.8430578501484 7835.060838217364
823.7923621672016 7690.707884341311
824.7414286496896 7714.293583869352
825.6902573688876 7760.632129236388
826.6388483960363 7722.682039794496
827.5872018023492 7656.2060503539615
828.5353176590033 7737.095361700408
829.4831960371503 7647.751727773997
830.4308370079016 7670.179196041882
831.3782406423525 7731.800974509225
832.3254070115545 7683.56097506099
833.2723361865319 7589.5893781554305
834.2190282382799 7518.240791096434
835.1654832377644 7689.7276336415325
836.1117012559116 7649.798365257589
837.0576823636256 7622.074980869936
838.003426631778 7517.030984023161
838.9489341312074 7539.653125102617
839.8942049327197 7584.252329681889
840.8392391070975 7622.793809302985
841.7840367250865 7518.787067445992
842.7285978573982 7457.912378263492
843.672922574724 7604.801986181327
844.6170109477152 7569.725734969649
845.560863046996 7513.576201378058
846.5044789431595 7517.418062111111
847.4478587067697 7493.770640337467
848.3910024083561 7623.960902036296
849.333910118421 7524.98651527523
850.2765819074339 7464.612909780638
851.2190178458332 7538.442647551796
852.161218004032 7543.833095871113
853.1031824524016 7532.021934215789
854.0449112612987 7453.379662544375
854.9864045010327 7503.662889841503
855.9276622418947 7518.180008471492
856.8686845541379 7533.494740700511
857.8094715079915 7454.986353592874
858.7500231736467 7535.609909388525
859.690339621271 7561.934470856436
860.6304209209939 7562.044073566188
861.5702671429244 7465.539703880459
862.5098783571284 7536.527888876182
863.4492546336569 7577.924306228738
864.3883960425155 7544.069908539012
865.3273026536863 7552.063190302583
866.2659745371238 7547.30370637773
867.2044117627465 7664.880069527848
868.1426144004472 7538.276048393583
869.0805825200823 7686.975064226201
870.0183161914847 7710.665276212431
870.9558154844526 7768.785539940512
871.8930804687552 7758.647061978962
872.8301112141307 7774.74698908898
873.7669077902865 7861.809702701308
874.7034702669062 7903.563594177872
875.6397987136315 7901.810038299646
876.5758932000863 7913.826486999501
877.5117537958522 7894.807601351061
878.4473805704911 7979.572820856648
879.3827735935283 7945.430878829649
880.3179329344603 7979.266774458013
881.2528586627541 8068.066695385074
882.1875508478479 8117.539390284606
883.1220095591489 7998.636013776512
884.0562348660296 8027.710238455115
884.9902268378391 8013.339904360022
885.9239855438955 8042.592400744552
886.8575110534839 7914.807239505516
887.7908034358588 7918.171734190383
888.7238627602474 7844.804562127177
889.6566890958475 7870.082900863294
890.5892825118208 7760.959940876302
891.5216430773125 7683.563334102051
892.4537708614189 7706.099589179568
893.3856659332196 7574.854726076
894.3173283617652 7521.720360562515
895.2487582160684 7546.557402947932
896.179955565116 7519.335332265839
897.110920477864 7416.354021002345
898.0416530232451 7366.558717269791
898.9721532701478 7361.246539836454
899.9024212874428 7355.871239508631
900.8324571439662 7328.223231600547
901.7622609085302 7267.079882637625
902.6918326499072 7209.763078261215
903.6211724368477 7301.348436375721
904.5502803380696 7311.263596846727
905.4791564222614 7290.921527058037
906.4078007580792 7184.0602500211335
907.3362134141571 7202.4211124968815
908.2643944590909 7280.150217155478
909.1923439614493 7168.006471574314
910.1200619897754 7160.411120191899
911.0475486125779 7217.985193989475
911.9748038983344 7227.165802731928
912.9018279155007 7125.712397063728
913.8286207324982 7076.608658238709
914.7551824177117 7149.286244973536
915.6815130395116 7044.530360270233
916.6076126662283 6978.249744429233
917.533481366163 7045.85761810173
918.4591192075914 7066.867571020899
919.3845262587565 7153.72513123989
920.3097025878706 6935.81761151914
921.2346482631237 6964.768834298136
922.1593633526682 7021.847662610851
923.0838479246304 6993.368837726526
924.0081020471061 7030.410247318179
924.9321257881656 6954.989591469198
925.8559192158464 6951.869512632782
926.7794823981512 6908.476835689253
927.7028154030686 6893.470260778583
928.6259182985414 6867.702742594059
929.5487911524906 6989.556493574397
930.4714340328119 6934.228100581476
931.3938470073608 6792.852384408898
932.3160301439748 6868.747168439443
933.2379835104548 6880.406342726657
934.1597071745709 6880.166725893336
935.0812012040769 6889.789289723174
936.002465666681 6815.2709853226825
936.9235006300696 6942.601022645904
937.8443061619055 6890.240233072448
938.7648823298077 6747.099996847706
939.6852292013809 6763.384034089322
940.6053468441951 6864.0501964535015
941.5252353257874 6827.954729050385
942.4448947136698 6879.061315187784
943.364325075323 6828.6211064360805
944.2835264782043 6802.511904367797
945.2024989897309 6821.573102834642
946.1212426773054 6863.141727608816
947.0397576082851 6884.035916039815
947.9580438500125 6969.386281189368
948.8761014697939 6937.793956380265
949.7939305349064 6958.336839410085
950.7115311125999 6912.468325821476
951.6289032700952 6909.570594631235
952.5460470745875 6993.669538726385
953.4629625932339 6839.90123683155
954.3796498931715 6970.840331817853
955.2961090415029 6939.676377197026
956.2123401053068 6945.551072314154
957.1283431516276 6909.22467002624
958.0441182474842 6869.209261318225
958.9596654598663 6955.060202774841
959.8749848557309 6858.237873814367
960.7900765020167 6853.057651471463
961.7049404656209 6764.391827563694
962.6195768134185 6874.043430118802
963.5339856122537 6899.68085129366
964.4481669289453 6861.242502731632
965.3621208302793 6746.374310293191
966.2758473830145 6809.401964193147
967.1893466538822 6841.79632562175
968.1026187095813 6784.689214842132
969.0156636167867 6799.701598249294
969.9284814421426 6905.080182902789
970.8410722522622 6749.89313633891
971.753436113735 6733.873278236228
972.6655730931161 6689.949590686339
973.5774832569368 6744.756957905204
974.4891666716958 6723.908438617623
975.4006234038698 6784.544876030768
976.3118535198955 6677.79038730082
977.2228570861935 6744.5600208384
978.1336341691494 6713.030142047501
979.0441848351202 6646.089524741193
979.9545091504333 6712.364667250663
980.864607181391 6682.600102259491
981.7744789942699 6744.1601429813645
982.6841246553086 6717.610866827464
983.5935442307236 6728.34614597755
984.5027377867027 6721.518431197401
985.4117053894024 6773.203893117185
986.3204471049557 6723.087303735412
987.2289629994648 6746.713103655455
988.1372531390007 6827.3596688626
989.0453175896091 6811.762061347874
989.9531564173067 6821.443352275675
990.860769688079 6754.13767016426
991.7681574678918 6729.799950436114
992.6753198226706 6786.827054875559
993.582256818323 6801.469437104232
994.4889685207218 6812.30765387056
995.3954549957143 6921.0531461022665
996.301716309119 6745.757555580205
997.2077525267232 6855.2766105574465
998.1135637142943 6793.298793590402
999.0191499375615 6962.960240628997
999.924511262232 6885.177912001444
1000.8296477539861 6943.994482233761
1001.7345594784656 6820.709803775882
1002.6392465012996 6858.341000428611
1003.5437088880753 6939.673633572728
1004.4479467043584 6962.846701106404
1005.3519600156869 6891.681948656774
1006.2557488875718 6991.662761058045
1007.1593133854858 6818.834790047664
1008.0626535748888 6811.515848680579
1008.9657695212009 6774.422017954947
1009.8686612898182 6894.850648218837
1010.7713289461135 6924.108131120067
1011.6737725554212 6874.513425233903
1012.5759921830577 6837.973191717012
1013.4779878943027 6802.882014130931
1014.379759754418 6718.5716372107145
1015.2813078286254 6791.67218698277
1016.18263218213 6663.354314259249
1017.0837328801026 6692.404688574372
1017.9846099876886 6703.273348289523
1018.8852635700023 6630.956874087034
1019.7856936921362 6552.581124423947
1020.6859004191447 6592.094419429914
1021.5858838160675 6637.581767060442
1022.4856439479063 6516.721416804226
1023.3851808796389 6515.8279336119285
1024.2844946762143 6669.784089086859
1025.183585402554 6586.129834494287
1026.082453123554 6368.1492151215625
1026.9810979040776 6476.674259060813
1027.8795198089647 6358.879282381431
1028.777718903024 6462.636697695472
1029.6756952510368 6361.550499503763
1030.5734489177648 6441.953819956135
1031.4709799679313 6433.920037356644
1032.3682884662358 6415.714507731107
1033.2653744773506 6308.261528330556
1034.1622380659192 6288.747758515628
1035.058879296559 6367.698925514111
1035.9552982338591 6389.842737039746
1036.8514949423825 6428.051385775391
1037.7474694866614 6416.712138662837
1038.6432219312028 6376.671114891157
1039.5387523404825 6537.181712145134
1040.4340607789582 6492.193768029136
1041.3291473110476 6526.971930527004
1042.2240120011465 6559.764930660453
1043.1186549136273 6589.780030087849
1044.0130761128294 6584.794366431512
1044.9072756630649 6593.920485840908
1045.8012536286205 6684.429082621088
1046.6950100737577 6651.891260871082
1047.588545062701 6764.367015704722
1048.481858659663 6737.665157052268
1049.3749509288118 6865.049382000546
1050.2678219343034 6739.28865835436
1051.1604717402515 6753.412925223808
1052.0529004107575 6727.572389773342
1052.9451080098825 6802.853566670841
1053.8370946016694 6785.567778674219
1054.7288602501267 6769.2685788592735
1055.6204050192446 6751.9841629397615
1056.511728972977 6725.207228237237
1057.402832175254 6687.300072859938
1058.2937146899785 6684.478479081057
1059.1843765810263 6602.231844045475
1060.0748179122456 6683.254843633984
1060.9650387474576 6646.755625448999
1061.855039150456 6686.992279147
1062.7448191850071 6630.144037752543
1063.6343789148505 6665.2060002061025
1064.5237184037014 6714.455782482069
1065.412837715241 6618.698859588895
1066.3017369131267 6526.735068668083
1067.190416060992 6518.753534264973
1068.0788752224398 6485.5759454854015
1068.9671144610438 6496.282902638184
1069.8551338403558 6499.5219688338675
1070.7429334239023 6491.587345420037
1071.6305132751695 6452.842512376596
1072.517873457633 6504.816422849431
1073.4050140347335 6452.389521682088
1074.2919350698776 6429.390934754443
1075.1786366264623 6419.467846858591
1076.0651187678395 6425.298244351002
1076.95138155735 6399.027560954328
1077.8374250582929 6365.099449808137
1078.7232493339507 6388.12299695488
1079.608854447577 6302.709935026887
1080.4942404623907 6350.69551221715
1081.3794074415982 6353.774073500705
1082.2643554483657 6321.1786620845405
1083.149084545841 6283.270925104441
1084.033594797138 6293.510844481594
1084.9178862653516 6404.745472643358
1085.8019590135427 6379.517116272971
1086.6858131047484 6355.368863836506
1087.5694486019802 6404.79165505628
1088.4528655682225 6391.39548120137
1089.3360640664287 6433.984599953035
1090.2190441595321 6438.415530497679
1091.1018059104317 6469.087853044826
1091.98434938201 6499.353232966896
1092.866674637111 6528.096547469986
1093.748781738559 6458.07432749736
1094.6306707491512 6356.615696323402
1095.5123417316554 6441.082463986264
1096.3937947488157 6411.554700452333
1097.2750298633455 6414.830899390345
1098.156047137938 6419.774609550945
1099.0368466352556 6379.651338982021
1099.9174284179317 6428.615537543494
1100.7977925485757 6204.956548571488
1101.6779390897755 6306.690115983414
1102.5578681040806 6302.494463766096
1103.4375796540226 6312.168705752118
1104.3170738021054 6296.652048538266
1105.1963506108077 6159.6709798443135
1106.0754101425773 6148.559966277444
1106.9542524598382 6226.563629052898
1107.8328776249855 6187.365188396928
1108.7112857003904 6116.3923096355475
1109.5894767483987 6254.763991487411
1110.4674508313292 6222.727797495824
1111.3452080114657 6200.366435995181
1112.2227483510815 6229.2469605061015
1113.1000719124077 6289.431024341082
1113.9771787576592 6190.509428605472
1114.854068949022 6244.295037743139
1115.7307425486542 6313.719549968128
1116.6071996186893 6359.9058209592695
1117.483440221229 6600.976420285256
1118.3594644183577 6386.481649279949
1119.235272272128 6490.325560518221
1120.1108638445658 6510.5497919664585
1120.9862391976712 6658.499272968578
1121.8613983934229 6712.5120051520835
1122.7363414937627 6688.534180263067
1123.6110685606182 6827.743470010854
1124.485579655884 6877.329455364263
1125.359874841426 6966.989068470213
1126.2339541790916 7002.681577274068
1127.1078177306936 7075.525339430975
1127.9814655580267 7022.533967768682
1128.854897722851 7091.081304055018
1129.7281142869106 7065.377865445937
1130.6011153119125 7108.727331807105
1131.473900859548 7197.789749183996
1132.3464709914697 7089.462147898569
1133.2188257693178 7123.669584179026
1134.0909652546961 6937.849673772784
1134.96288950919 6916.065854783463
1135.8345985943506 6990.825827955098
1136.7060925717087 6803.890987379231
1137.57737150277 6801.3677412764055
1138.4484354490069 6880.1231447928
1139.3192844718778 6625.557409480495
1140.1899186327992 6471.746747471188
1141.060337993178 6555.60710540594
1141.930542614382 6463.964181981115
1142.8005325577597 6382.093450232027
1143.670307884635 6241.117336538515
1144.5398686563003 6304.579907812847
1145.409214934025 6245.119941759525
1146.2783467790541 6163.7727743270825
1147.1472642526023 6116.932525740604
1148.0159674158622 6092.472870716828
1148.8844563300026 5949.793495922883
1149.7527310561618 5969.247131132308
1150.6207916554504 5917.264247724068
1151.4886381889592 5933.399538930606
1152.3562707177498 5887.288530593715
1153.2236893028585 5804.280109835843
1154.090894005296 5829.474962355561
1154.9578848860474 5813.288355229977
1155.8246620060709 5778.657494296449
1156.6912254262988 5613.0191299728385
1157.5575752076438 5721.4862359062845
1158.42371141098 5814.42506226212
1159.2896340971656 5756.067949745247
1160.1553433270346 5617.812043611325
1161.0208391613887 5711.126208640053
1161.8861216610057 5681.642478084925
1162.75119088664 5666.986392239754
1163.6160468990201 5692.825826590679
1164.4806897588442 5609.0935396261375
1165.3451195267917 5649.150134196299
1166.2093362635114 5680.844858071894
1167.0733400296285 5666.718321221679
1167.9371308857444 5608.665633239997
1168.8007088924278 5599.726156744951
1169.6640741102328 5577.16032084601
1170.5272265996773 5570.196943553683
1171.390166421259 5468.194542810691
1172.252893635452 5688.010024434372
1173.1154083026995 5696.3449471856875
1173.977710483421 5634.50377673939
1174.8398002380145 5600.124749371505
1175.7016776268483 5677.674287758614
1176.563342710264 5627.50133371763
1177.4247955485826 5543.5965521828275
1178.2860362020947 5675.2354596049945
1179.147064731069 5570.675102553748
1180.0078811957483 5721.36748892686
1180.8684856563486 5610.47904574864
1181.7288781730604 5634.221429085679
1182.589058806052 5676.620418366261
1183.4490276154593 5763.135110589066
1184.3087846614017 5699.147597800329
1185.1683300039676 5741.767728772706
1186.027663703222 5850.554496007929
1186.8867858192025 5855.219407901112
1187.7456964119228 5898.281863188664
1188.6043955413716 5972.703968682485
1189.4628832675116 5966.06448142823
1190.3211596502842 6048.641528879056
1191.179224749596 6031.197693611235
1192.0370786253388 6010.415791935007
1192.8947213373758 6178.307939001273
1193.7521529455407 6148.342050989274
1194.6093735096438 6057.764215053876
1195.466383089477 6152.486278115242
1196.3231817447977 6170.41982390461
1197.1797695353398 6276.460837551923
1198.0361465208189 6143.333887981832
1198.8923127609214 6173.14399260072
1199.7482683153048 6255.529347032638
1200.6040132436028 6326.740211786824
1201.459547605431 6201.922486643489
1202.3148714603722 6163.95523214236
1203.1699848679855 6288.442764740286
1204.0248878878065 6306.771104848909
1204.8795805793507 6138.546371658195
1205.7340630020935 6219.895577192225
1206.5883352155033 6241.118604917169
1207.4423972790064 6198.283280310371
1208.2962492520237 6056.19392312676
1209.1498911939307 6055.585665765365
1210.0033231640937 6047.409502899134
1210.8565452218427 6102.015832987978
1211.7095574264913 5838.92675479885
1212.5623598373222 5877.156740286451
1213.4149525135963 5778.010544460158
1214.2673355145507 5909.672806817907
1215.1195088993936 5751.820486611979
1215.9714727273113 5729.043595151999
1216.8232270574663 5965.218584081929
1217.6747719489904 5664.139110177602
1218.5261074609934 5707.476228740676
1219.3772336525653 5798.500329954011
1220.2281505827668 5827.850868860539
1221.0788583106296 5752.967587474579
1221.9293568951707 5630.91222396356
1222.7796463953746 5533.797858764644
1223.629726870202 5658.231268794798
1224.4795983785934 5579.184752098166
1225.3292609794553 5525.6632000618065
1226.1787147316809 5522.186846856874
1227.0279596941327 5583.873063561904
1227.8769959256424 5579.046351148832
1228.7258234850306 5489.143286530161
1229.5744424310833 5418.146982513443
1230.422852822563 5559.314553784194
1231.2710547182105 5557.050037482262
1232.119048176739 5504.936018777453
1232.9668332568417 5373.74385097385
1233.8144100171812 5493.220598199733
1234.6617785163999 5513.248973092692
1235.508938813111 5424.726347426384
1236.3558909659114 5404.740539834502
1237.2026350333617 5495.04596086143
1238.049171074008 5507.525046684912
1238.8954991463652 5357.555606608786
1239.741619308932 5395.380857677529
1240.587531620169 5472.5546032701
1241.4332361385277 5548.478237638848
1242.2787329224248 5385.704184147803
1243.1240220302534 5335.771399203904
1243.9691035203869 5388.086242749407
1244.813977451171 5652.75345861948
1245.6586438809263 5460.590162637732
1246.5031028679496 5326.7099266781825
1247.3473544705157 5337.775681860987
1248.1913987468706 5373.2878405008405
1249.0352357552383 5305.1927712008055
1249.8788655538228 5375.964282515737
1250.7222882007918 5472.193292350241
1251.565503754302 5442.06669529799
1252.4085122724755 5259.439759606602
1253.2513138134182 5402.99224930609
1254.0939084352049 5379.684621210949
1254.9362961958905 5384.620654139351
1255.7784771535007 5405.981031451203
1256.6204513660432 5435.64013936871
1257.4622188915 5453.233320590861
1258.3037797878242 5436.506158264811
1259.1451341129468 5327.3971593059405
1259.9862819247755 5454.587472344645
1260.8272232811978 5425.917956815447
1261.6679582400666 5439.812196397243
1262.5084868592203 5309.665020665402
1263.34880919647 5353.630780266866
1264.1889253095997 5369.855776590006
1265.0288352563712 5384.244456206401
1265.8685390945266 5298.772828917159
1266.7080368817751 5392.358685481302
1267.5473286758115 5455.991644735394
1268.386414534294 5393.240720620689
1269.2252945148703 5274.91164364619
1270.0639686751547 5414.603497206364
1270.9024370727402 5386.272663346381
1271.7406997651997 5347.996867175466
1272.5787568100714 5331.847876762796
1273.4166082648808 5357.506488625498
1274.2542541871244 5308.075646319186
1275.091694634275 5448.624006637422
1275.9289296637817 5236.5697537569595
1276.7659593330663 5468.435692548598
1277.6027836995308 5399.272429523428
1278.4394028205552 5359.679520243409
1279.2758167534867 5334.330696783052
1280.112025555658 5317.530116848665
1280.9480292843746 5239.958759388669
1281.7838279969128 5240.398934496677
1282.6194217505326 5308.409747016571
1283.4548106024686 5160.967793703721
1284.289994609926 5274.35838126929
1285.1249738300921 5261.749227525743
1285.959748320127 5239.926060308842
1286.7943181371702 5241.59813055364
1287.6286833383328 5225.745818498324
1288.4628439807038 5354.77090657565
1289.2968001213521 5262.59628710383
1290.1305518173194 5253.556842804728
1290.9640991256183 5358.306970028154
1291.7974421032523 5329.526182106129
1292.630580807183 5286.347060635016
1293.463515294361 5332.615986196873
1294.29624562171 5295.657574761024
1295.12877184613 5340.491243599686
1295.961094024493 5278.767433334866
1296.79321221365 5383.42805611311
1297.6251264704333 5495.699971627861
1298.4568368516466 5592.327369928973
1299.2883434140658 5498.404377574998
1300.1196462144526 5352.747532841708
1300.9507453095375 5556.814732090585
1301.7816407560313 5620.199937764088
1302.6123326106172 5567.858366309518
1303.4428209299622 5567.204773314162
1304.2731057707024 5663.209360678178
1305.1031871894502 5613.724151756627
1305.933065242798 5685.395932461359
1306.7627399873181 5566.729902414399
1307.5922114795467 5787.841575569444
1308.4214797760123 5718.392087471878
1309.2505449332057 5629.628904926476
1310.0794070076026 5770.229438602524
1310.9080660556538 5726.223812311312
1311.736522133786 5730.698197710537
1312.5647752983987 5714.925279516396
1313.3928256058734 5681.912280621808
1314.2206731125661 5780.156174763317
1315.048317874809 5853.823038660771
1315.8757599489109 5763.794350528957
1316.7029993911547 5784.625048163184
1317.5300362578055 5873.176433639141
1318.356870605101 5731.565000176151
1319.183502489257 5797.1147088988855
1320.0099319664623 5967.613543013249
1320.836159092889 5879.79798248574
1321.66218392468 5927.830909197735
1322.4880065179532 5814.32661937465
1323.3136269288134 5900.814377427599
1324.1390452133292 6052.643104489745
1324.9642614275563 5914.900554111145
1325.7892756275214 5852.755940113356
1326.6140878692295 5857.684986284176
1327.4386982086617 5982.324143509871
1328.2631067017755 5837.918154732518
1329.0873134045069 5949.477895342066
1329.911318372764 5806.255396035527
1330.735121662441 5825.237004212084
1331.558723329399 5765.126147154519
1332.3821234294774 5668.337972445848
1333.2053220185007 5708.178213034662
1334.0283191522612 5606.938420598593
1334.851114886529 5671.894232482603
1335.6737092770582 5611.688745842117
1336.4961023795695 5568.996686714972
1337.3182942497697 5574.238084297582
1338.1402849433325 5530.752686153559
1338.962074515921 5410.637141896384
1339.7836630231632 5366.227127217798
1340.6050505206676 5634.397051207533
1341.426237064028 5495.782449531735
1342.2472227088037 5349.740669541053
1343.0680075105338 5267.0604621116245
1343.888591524741 5369.972314219606
1344.7089748069138 5430.054261641255
1345.5291574125276 5276.734805860438
1346.3491393970307 5201.986678544954
1347.168920815846 5322.7530004561795
1347.9885017243778 5317.97523633899
1348.8078821780036 5227.370785239387
1349.6270622320844 5267.106319221664
1350.4460419419447 5207.417578033047
1351.2648213629054 5222.077780498688
1352.0834005502438 5162.728727721024
1352.90177955923 5183.674853273706
1353.7199584451064 5192.726761772022
1354.5379372630887 5197.733036503721
1355.355716068374 5102.52120970184
1356.1732949161305 5076.399354955718
1356.9906738615155 5122.674922688757
1357.8078529596478 5073.80834002923
1358.6248322656375 5213.903077808216
1359.441611834567 5001.4913142116075
1360.2581917214866 5213.003157999375
1361.0745719814367 5132.401937080028
1361.890752669433 5042.1511274285185
1362.7067338404577 5094.525025687134
1363.5225155494845 5141.070952757566
1364.3380978514506 5225.577784449171
1365.1534808012839 4974.875955678553
1365.9686644538815 4884.989775415939
1366.783648864117 5176.144164215209
1367.5984340868417 5215.333216976778
1368.413020176893 5076.189076362703
1369.2274071890715 4932.927630912297
1370.0415951781652 5091.526109252773
1370.8555841989346 5087.453652898302
1371.6693743061223 4879.446413741831
1372.48296555444 4868.472710727887
1373.2963579985844 5025.657599151889
1374.1095516932255 5005.011576580704
1374.9225466930166 4896.903417823524
1375.7353430525782 4928.470082682413
1376.5479408265164 4893.408705782275
1377.36034006941 4957.682896357908
1378.1725408358216 5005.5078661846865
1378.9845431802805 4898.3538052443055
1379.796347157304 5031.283518858624
1380.6079528213813 5022.510333235539
1381.4193602269788 4881.9521633549975
1382.230569428546 4879.485655201814
1383.0415804805016 4959.0620149228325
1383.852393437246 4848.76252208883
1384.6630083531563 4944.506093142363
1385.4734252825892 4951.145619923797
1386.2836442798798 4857.227308443326
1387.0936653993322 4888.965069719787
1387.9034886952395 4871.679142798861
1388.713114221864 4971.089175230398
1389.5225420334482 4897.607979526258
1390.331772184214 4846.595397150825
1391.1408047283585 4769.584021951323
1391.9496397200564 4924.895578442511
1392.758277213461 4897.882154296326
1393.5667172627054 4938.782949227052
1394.3749599218918 4863.509437624038
1395.1830052451114 4810.237688034829
1395.9908532864265 4840.630368731099
1396.7985040998774 4918.571808576846
1397.6059577394808 4862.436778176545
1398.4132142592352 4844.70902736387
1399.2202737131156 4841.14828090529
1400.027136155073 4920.102744910151
1400.8338016390353 4729.128355226682
1401.6402702189134 4726.466097988539
1402.446541948586 4907.099295482868
1403.2526168819204 4841.5314115201045
1404.058495072757 4751.875042502887
1404.8641765749107 4791.818644277823
1405.6696614421799 4795.5380888570235
1406.4749497283356 4951.85819315168
1407.280041487129 4667.630144877587
1408.084936772295 4687.383261166988
1408.8896356375335 4801.048101937138
1409.6941381365323 4804.888165487829
1410.498444322955 4538.256893921172
1411.3025542504402 4758.416463993711
1412.106467972606 4691.103458531561
1412.9101855430508 4686.376635465918
1413.7137070153458 4570.692532508139
1414.5170324430437 4686.424670609627
1415.320161879672 4763.76675414137
1416.1230953787435 4806.940488976429
1416.925832993742 4580.186657152792
1417.7283747781275 4640.010673022164
1418.5307207853439 4640.104247309751
1419.3328710688093 4696.021724839181
1420.134825681922 4497.962123376565
1420.9365846780584 4536.372941059399
1421.7381481105713 4723.765248944632
1422.539516032788 4573.094324696743
1423.3406884980232 4580.205566454559
1424.1416655595604 4596.391571013142
1424.942447270665 4513.503145947591
1425.7430336845828 4654.053917254751
1426.5434248545298 4521.791173223811
1427.3436208337116 4688.737785461168
1428.143621675301 4661.794909255846
1428.9434274324558 4728.848749710794
1429.7430381583108 4563.904879661138
1430.5424539059713 4687.157126497042
1431.3416747285337 4801.740222629802
1432.1407006790632 4707.353341555548
1432.9395318106053 4657.248853229043
1433.7381681761835 4538.780088461046
1434.5366098288014 4772.069963056588
1435.3348568214424 4720.4186361493375
1436.1329092070573 4675.296666415021
1436.9307670385879 4799.781542156294
1437.7284303689503 4762.445426660664
1438.5258992510335 4870.8249040992705
1439.3231737377118 4730.383101440248
1440.1202538818306 4749.501216304676
1440.9171397362225 4722.78483141834
1441.7138313536925 4660.857422520652
1442.5103287870243 4609.149943458351
1443.3066320889775 4528.792990514864
1444.1027413122956 4780.742021267447
1444.8986565096966 4666.42524845126
1445.694377733882 4633.5464042171725
1446.4899050375207 4568.266512757984
1447.2852384732687 4720.0657654439565
1448.0803780937622 4543.411305802142
1448.8753239516063 4428.884201287227
1449.6700760993954 4450.31618251905
1450.464634589689 4557.995561711029
1451.2589994750397 4678.986171997422
1452.0531708079689 4444.344120522611
1452.8471486409799 4389.311005391865
1453.6409330265524 4530.455700726997
1454.4345240171442 4386.901167136145
1455.2279216651987 4362.235165191918
1456.0211260231263 4373.431111226071
1456.8141371433194 4654.522158330402
1457.6069550781594 4444.701630658202
1458.3995798799897 4227.092307399843
1459.1920116011424 4308.0578958805945
1459.98425029393 4149.866296086835
1460.7762960106338 4295.354235318815
1461.5681488035225 4340.364160787644
1462.3598087248392 4165.907295901791
1463.1512758268036 4361.556454207906
1463.942550161617 4180.902643596404
1464.7336317814625 4179.028863620918
1465.524520738496 4235.514181514092
1466.3152170848552 4179.954113867734
1467.1057208726506 4194.427451452333
1467.8960321539817 4046.2848676840013
1468.6861509809169 3969.196133348353
1469.4760774055085 4147.086144223993
1470.265811479785 4063.695011826643
1471.055353255755 3880.9925958475687
1471.844702785409 3966.540140938956
1472.6338601207044 3891.445963809325
1473.4228253135934 4085.7520952307336
1474.2115984159936 3956.972958316368
1475.0001794798063 3849.4708671426006
1475.7885685569145 3889.650361387967
1476.576765699172 3924.781203413599
1477.3647709584238 3938.256608480356
1478.1525843864802 4027.6957565854914
1478.9402060351367 3969.123312930917
1479.7276359561693 4015.841295874829
1480.514874201328 3863.4769969231047
1481.3019208223468 3906.2288497587842
1482.0887758709323 3863.8399249169534
1482.8754393987747 3986.8785803188935
1483.6619114575406 3848.0836652640696
1484.4481920988783 3882.6101133865304
1485.2342813744108 3842.692866339386
1486.0201793357446 4023.216943824744
1486.8058860344572 3755.366462864801
1487.591401522117 3869.25896327805
1488.3767258502594 3795.234592905712
1489.1618590704056 3883.292425181863
1489.9468012340494 3693.3579670060826
1490.7315523926754 3939.654503945568
1491.5161125977356 3908.908593887588
1492.3004819006637 3909.0073508864866
1493.084660352877 3826.198146865993
1493.8686480057622 3917.912043571574
1494.6524449106964 3973.8921311111676
1495.4360511190262 4003.642643443135
1496.219466682087 3885.315276884861
1497.0026916511779 3900.101502904956
1497.7857260775945 3928.056635077741
1498.5685700125996 3966.2042549724183
1499.3512235074395 3778.1355454943855
1500.133686613337 3725.241140739774
1500.9159593814966 3840.1655922092878
1501.698041863101 3951.1463543782984
1502.4799341093094 3763.0020352107413
1503.2616361712662 3699.696986856104
1504.043148100087 3788.5956518366984
1504.8244699468742 3898.3175270070487
1505.6056017626997 3711.647236720216
1506.3865435986281 3709.855711750185
1507.1672955056893 3859.049629073983
1507.9478575348967 3767.6721960175005
1508.7282297372512 4012.241693918359
1509.5084121637192 3779.089445248598
1510.2884048652577 3785.141063945482
1511.0682078927948 3765.3763014876945
1511.8478212972423 3781.578393098594
1512.6272451294917 3726.3283826658517
1513.4064794404076 3818.23060937044
1514.1855242808433 3917.1953247607576
1514.9643797016215 3752.167673324093
1515.743045753552 3855.1841844559517
1516.5215224874191 3862.8319756138917
1517.2998099539836 3610.125517445819
1518.077908203999 3771.591500779283
1518.8558172881785 3780.561849447472
1519.633537257234 3853.8437804183654
1520.4110681618404 3868.8618216695622
1521.1884100526604 3805.276956694181
1521.9655629803365 3843.741384445736
1522.7425269954856 3957.509858416461
1523.5193021487103 4005.2915813111335
1524.2958884905856 3731.4257785433488
1525.0722860716687 3873.9887137524483
1525.848494942502 3770.044045955817
1526.624515153595 3810.7848672070854
1527.4003467554485 3909.915410183022
1528.175989798534 3942.139135326518
1528.9514443333064 3866.6990107383026
1529.726710410203 4015.219160882916
1530.5017880796331 3805.9507046468834
1531.276677391992 3787.446352908019
1532.0513783976457 3989.690846573424
1532.825891146953 3864.9357380554598
1533.6002156902414 3915.97299973771
1534.3743520778207 3791.5279273611545
1535.1483003599806 3906.24760911085
1535.9220605869923 3890.659265539968
1536.6956328091019 4031.852461331774
1537.4690170765407 3887.870868179694
1538.242213439511 4048.953138883923
1539.015221948208 3879.741292989519
1539.78804265279 3943.2341166755987
1540.560675603405 3761.316366668182
1541.3331208501804 3913.0081368649016
1542.1053784432224 4034.2161798695024
1542.8774484326168 3941.087273810475
1543.649330868422 3937.438938808199
1544.4210258006842 3949.952720307425
1545.1925332794308 3973.8172950961393
1545.9638533546604 3899.874340248927
1546.7349860763552 3917.371788657873
1547.5059314944829 4090.364933287935
1548.27668965898 3989.6005576073053
1549.0472606197673 3974.0140486017235
1549.817644426752 3966.576825780595
1550.5878411298072 4011.208790033869
1551.3578507787988 3931.981960256041
1552.1276734235635 3825.5074187241626
1552.8973091139233 3992.798596502951
1553.6667578996767 4053.237756444695
1554.436019830604 3898.6049719065495
1555.20509495646 3982.96721635401
1555.9739833269869 3956.681105664543
1556.7426849919011 3877.5969441038806
1557.511200000903 4053.8572498568706
1558.2795284036674 4150.912238574346
1559.0476702498509 4004.514647649484
1559.8156255890954 4054.5454668493285
1560.5833944710157 4228.539701313439
1561.3509769452048 4027.055061821612
1562.1183730612447 4004.2305735533155
1562.8855828686865 3965.819272760299
1563.6526064170703 4172.823352962985
1564.4194437559127 4080.880511321472
1565.1860949347047 4034.821267817507
1565.9525600029283 4141.356761786211
1566.7188390100328 4221.796197422091
1567.4849320054564 3920.0250755762236
1568.250839038612 4058.9100819399305
1569.0165601588997 4109.926176648199
1569.7820954156887 3952.165279372616
1570.5474448583373 4020.6799345003155
1571.31260853618 3965.73546652414
1572.0775864985299 3776.8746070141815
1572.8423787946813 4036.4713247519276
1573.6069854739108 3949.417411573887
1574.371406585471 4039.8384508071786
1575.1356421785986 4154.697630520083
1575.899692302506 3993.7238011563154
1576.6635570063845 4032.6946279279887
1577.4272363394157 4058.517478347265
1578.190730350747 4022.3932982713022
1578.9540390895163 3999.216770605612
1579.7171626048384 3788.5752426201907
1580.480100945806 3952.7344857161233
1581.2428541614918 3966.922483200521
1582.0054223009538 3891.8747356196554
1582.767805413223 3977.464366512304
1583.5300035473156 3941.205764364905
1584.292016752228 4111.837577939617
1585.0538450769309 3953.3723698475214
1585.8154885703807 3875.8178117792004
1586.5769472815136 3731.360129168668
1587.3382212592405 3989.227694545585
1588.099310552463 4034.3538234481834
1588.8602152100484 3798.0749570923713
1589.6209352808564 3918.0944313070986
1590.3814708137234 3887.826365080831
1591.14182185746 3779.918107348904
1591.9019884608679 3809.360086578779
1592.6619706727215 3747.9461622956333
1593.4217685417734 3886.7011213263067
1594.1813821167616 3984.711911084357
1594.9408114464022 3737.1547553013393
1595.7000565793933 3886.624703308047
1596.459117564409 3889.007653058915
1597.2179944501113 3746.045332704408
1597.9766872851324 3785.533949940039
1598.735196118092 3843.7662948249517
1599.4935209975883 3818.849474535166
1600.2516619721973 3917.388446869176
1601.0096190904787 3773.481761683424
1601.7673924009723 3809.3353874719965
1602.524981952196 3698.373568400938
1603.2823877926476 3763.345714220589
1604.0396099708087 3773.645975289589
1604.7966485351371 3609.2339254076483
1605.5535035340745 3769.018024402313
1606.3101750160404 3789.4629322417068
1607.0666630294363 3723.740822148205
1607.822967622642 3691.2306637511842
1608.5790888440224 3766.8121626046895
1609.3350267419137 3815.5675555489142
1610.0907813646445 3722.359644669267
1610.8463527605145 3675.0098084893375
1611.601740977805 3800.1360965506997
1612.356946064785 3700.926994677945
1613.1119680696902 3641.1555287553483
1613.8668070407512 3687.236166725769
1614.6214630261748 3680.461861521407
1615.375936074137 3693.1404495836805
1616.1302262328118 3674.928962363768
1616.8843335503425 3686.1177120356906
1617.638258074854 3601.892863017571
1618.391999854457 3837.7099333087817
1619.1455589372363 3709.791203150396
1619.8989353712623 3759.960104583839
1620.65212920458 3546.4854544935756
1621.4051404852235 3703.0035429790078
1622.1579692611976 3610.0081389738943
1622.9106155804966 3524.1001215392535
1623.663079491087 3571.170683505485
1624.4153610409248 3748.0581042961953
1625.1674602779385 3579.8191614466073
1625.9193772500403 3600.328029288876
1626.6711120051277 3653.015641878677
1627.4226645910676 3579.3970658249214
1628.174035055721 3508.617013119835
1628.9252234469168 3682.8125236003966
1629.676229812474 3586.368718742666
1630.4270542001905 3755.827509943871
1631.1776966578382 3616.662807696289
1631.9281572331747 3641.2967116860464
1632.678435973945 3870.1665071223556
1633.4285329278573 3785.2084232407806
1634.1784481426203 3540.2181436255028
1634.9281816659113 3603.525323545914
1635.677733545388 3821.005844268144
1636.4271038286934 3645.7422044140503
1637.176292563452 3768.045362291821
1637.9252997972635 3727.368405859243
1638.674125577716 3888.6551573666447
1639.4227699523672 3855.3618534969173
1640.171232968767 3632.346660538596
1640.9195146744423 3713.587780577872
1641.6676151168977 3864.3036147019716
1642.4155343436178 3954.606063014937
1643.1632724020765 3734.409952265037
1643.9108293397167 3861.8657672406966
1644.658205203974 3818.1865302586775
1645.4054000422566 4155.968491108958
1646.1524139019566 3830.247304581005
1646.8992468304423 3797.957906578854
1647.6458988750728 3817.347806467054
1648.3923700831765 3935.5758789237743
1649.1386605020743 3842.045538415674
1649.8847701790564 3840.656374829695
1650.6306991614038 3814.0332326211746
1651.3764474963682 3879.7780166282946
1652.1220152311944 3677.8639634693473
1652.867402413096 4007.602616617588
1653.6126090892776 3887.046312448124
1654.3576353069184 3928.20956380618
1655.1024811131829 3843.7097504058306
1655.8471465552066 3858.0059821505333
1656.5916316801213 4072.4712384195336
1657.3359365350298 3927.0694684168097
1658.0800611670165 3827.0084285099174
1658.824005623148 3829.749354856152
1659.5677699504722 3814.490153681195
1660.3113541960192 3809.825833928951
1661.054758406799 3785.5069785385335
1661.7979826297997 3736.4332113228907
1662.5410269119966 3693.4290895414406
1663.283891300338 3678.3153553815755
1664.0265758417645 3780.0935864444073
1664.7690805831826 3756.8560458091647
1665.5114055714948 3754.5529967657153
1666.2535508535748 3790.2039023864395
1666.9955164762814 3542.2343313737824
1667.7373024864555 3684.2564391519445
1668.478908930916 3765.177628898609
1669.220335856462 3644.967225520467
1669.9615833098778 3694.9649637738707
1670.7026513379296 3484.681839944121
1671.44353998736 3608.5822377131385
1672.1842493048916 3581.1298555522817
1672.9247793372379 3516.828616105818
1673.6651301310812 3568.2764297979948
1674.4053017330934 3539.474833670607
1675.1452941899242 3582.3170897193713
1675.885107548207 3280.606881332968
1676.6247418545518 3224.573902190322
1677.3641971555535 3409.858667114094
1678.1034734977893 3399.4291661815996
1678.8425709278108 3416.0105205324676
1679.5814894921605 3439.5525293433725
1680.320229237359 3362.2313044590824
1681.0587902098978 3481.7986330637555
1681.7971724562685 3412.753626738888
1682.5353760229264 3200.881168447653
1683.2734009563173 3420.583525210578
1684.0112473028657 3036.746746621839
1684.7489151089794 3294.9470482092884
1685.4864044210462 3316.643562841622
1686.2237152854377 3053.717874782242
1686.960847748498 3226.782091315603
1687.6978018565642 3153.4089136799785
1688.434577655944 3053.9776693499125
1689.1711751929379 3114.0437068212054
1689.9075945138156 3092.2381601277352
1690.6438356648396 3116.8826885382155
1691.3798986922448 2836.760413210234
1692.1157836422499 3002.951764843187
1692.851490561059 3014.0469303200853
1693.587019494853 2992.8439858884726
1694.3223704897991 2772.9808214865993
1695.0575435920364 2836.5840603392367
1695.792538847696 3108.2258746863745
1696.527356302886 2930.7407633896264
1697.2619960036936 2731.122130166662
1697.9964579961907 2839.95127446081
1698.730742326432 2600.682316521461
1699.4648490404488 2804.1090878983828
1700.1987781842563 2868.6488998187992
1700.9325298038548 2878.3589585884215
1701.6661039452174 3008.3993148675386
1702.3995006543082 2826.844857779154
1703.1327199770658 2899.2226031818
1703.865761959416 2722.749479197518
1704.598626647261 2865.2953312910586
1705.3313140864866 2693.2343217248813
1706.0638243229587 2720.59717182201
1706.7961574025303 2793.7651719840246
1707.528313371029 2726.8351916288193
1708.260292274268 2621.282204737684
1708.9920941580403 2716.417674631793
1709.7237190681226 2686.505539411101
1710.4551670502697 2744.432961572812
1711.18643815022 2499.4438457231035
1711.9175324136959 2868.320953378021
1712.6484498863938 2709.868765781193
1713.379190614005 2555.0775040328526
1714.109754642188 2663.778623837695
1714.8401420165883 2636.1615012680677
1715.570352782839 3042.89899545775
1716.3003869865497 2698.0900747958885
1717.0302446733076 2623.8402015861075
1717.7599258886876 2672.437924816544
1718.4894306782444 2944.9300934689177
1719.2187590875183 2453.802984011553
1719.9479111620203 2767.5966925696875
1720.6768869472544 2505.1080736029935
1721.4056864887025 2679.4722822107233
1722.1343098318284 2676.54502886831
1722.8627570220742 2672.123920659572
1723.591028104871 2552.0566061658137
1724.3191231256242 2510.596769896162
1725.0470421297232 2564.4201522216613
1725.7747851625427 2621.9005796886627
1726.5023522694337 2674.725998154876
1727.2297434957363 2556.4163729508355
1727.9569588867635 2338.3690922572287
1728.6839984878152 2579.3308149562304
1729.4108623441734 2316.6603809680564
1730.1375505011038 2601.258341846748
1730.8640630038426 2516.3779277655904
1731.5903998976264 2354.5775749062564
1732.316561227657 2662.884631555151
1733.0425470391274 2448.412620356609
1733.7683573772065 2561.3742954568916
1734.4939922870508 2417.8384840930753
1735.2194518137949 2528.6978252171803
1735.9447360025606 2471.3868791330565
1736.669844898439 2544.880329653316
1737.3947785465189 2348.214201811943
1738.1195369918605 2327.389322887327
1738.8441202795093 2453.0873169246656
1739.5685284544943 2444.167856045027
1740.292761561821 2590.4570180323813
1741.0168196464838 2462.631208739039
1741.7407027534518 2489.3953255082947
1742.464410927687 2441.060392793492
1743.187944214118 2466.3928026447347
1743.9113026576688 2547.9391931767177
1744.634486303241 2460.7259381915264
1745.3574951957125 2598.867171785232
1746.0803293799509 2631.9685718224614
1746.8029889008048 2521.203386374783
1747.5254738031017 2377.1591253756415
1748.2477841316504 2443.611119550455
1748.969919931249 2397.387058627647
1749.6918812466665 2381.226204541575
1750.4136681226646 2477.313839798884
1751.1352806039777 2510.072661995055
1751.856718735331 2243.4819253508754
1752.5779825614281 2331.3701311571267
1753.2990721269507 2584.3880806568604
1754.0199874765676 2389.5938219470017
1754.7407286549314 2309.663872886745
1755.4612957066693 2440.8690376783074
1756.1816886763954 2426.083397699573
1756.9019076087097 2479.7787894766084
1757.6219525481865 2365.8705958365167
1758.3418235393856 2419.8130657765314
1759.061520626854 2383.536649961536
1759.7810438551096 2541.3785684012805
1760.5003932686614 2277.5698462695755
1761.2195689119999 2440.1549282172746
1761.938570829594 2450.764351661698
1762.657399065898 2401.8659234732936
1763.376053665348 2241.528719498634
1764.0945346723602 2366.508112552935
1764.812842131334 2449.369873411845
1765.5309760866512 2301.837442092633
1766.2489365826787 2213.288055106251
1766.9667236637597 2290.333032626892
1767.684337374223 2197.074473282184
1768.401777758383 2193.821586276096
1769.1190448605284 2303.7979915345904
1769.836138724937 2282.5896332991883
1770.5530593958665 2355.75827960659
1771.2698069175603 2494.992379427898
1771.9863813342326 2384.1202572428
1772.702782690094 2157.514566989351
1773.4190110293293 2459.9626382756096
1774.1350663961111 2364.1685662134414
1774.8509488345844 2279.9651077684293
1775.5666583888924 2423.0237978423575
1776.2821951031437 2439.1170609403584
1776.9975590214362 2416.797738913955
1777.7127501878585 2466.4913219212212
1778.4277686464684 2457.0895145643462
1779.1426144413108 2465.4483873891486
1779.8572876164162 2331.208930815047
1780.571788215797 2102.1459513686204
1781.2861162834415 2351.6849568879707
1782.0002718633277 2316.2199712629986
1782.7142549994132 2437.6842628381446
1783.4280657356376 2357.003557521234
1784.141704115922 2268.768179301554
1784.855170184177 2253.6876469883755
1785.5684639842839 2321.653539008722
1786.2815855601148 2071.869881438221
1786.9945349555237 2298.2798015178896
1787.707312214343 2142.1076420297914
1788.4199173803918 2475.304349865288
1789.132350497468 2175.0001125981034
1789.8446116093583 2284.340030281504
1790.556700759822 2272.9654509137645
1791.2686179926077 2213.650654705632
1791.9803633514493 2252.8098694158643
1792.6919368800554 2212.924695857885
1793.4033386221236 2407.218224544965
1794.1145686213295 2494.8089092711984
1794.8256269213307 2365.727873792267
1795.536513565774 2301.869165220697
1796.247228598284 2125.544779145439
1796.9577720624693 2227.882080988762
1797.6681440019165 2302.465954683535
1798.3783444602013 2178.9335833767914
1799.0883734808776 2369.5233188142843
1799.7982311074884 2380.719732259816
1800.5079173835475 2447.03962627716
1801.2174323525633 2330.9321062804966
1801.9267760580187 2323.529683721442
1802.635948543386 2187.9128057402463
1803.3449498521113 2249.6811078501473
1804.0537800276325 2350.369712993782
1804.7624391133668 2345.195637364818
1805.47092715271 2040.1306083951781
1806.1792441890484 2237.108869768371
1806.8873902657433 2173.0905271446763
1807.5953654261448 2263.449011171563
1808.3031697135812 2151.262492806054
1809.0108031713662 2220.975928530893
1809.71826584279 2081.090287216498
1810.425557771141 2204.003095044474
1811.1326789996747 2487.719203334045
1811.839629571632 2144.875026572695
1812.5464095302468 2195.1391389192368
1813.2530189187182 2248.692234139192
1813.959457780249 2237.1300258870388
1814.6657261580076 2255.5882352077583
1815.371824095153 2126.2286783499603
1816.0777516348262 2321.874118600609
1816.78350882015 2001.085674761452
1817.4890956942272 2129.2435714026633
1818.1945123001533 2062.5999720022814
1818.8997586809928 2068.775164583052
1819.6048348798067 2110.9916364516675
1820.3097409396287 2226.1486925555987
1821.0144769034796 2407.607143332968
1821.7190428143622 2146.8963961048075
1822.423438715261 2338.306078851205
1823.1276646491478 2188.787944947469
1823.8317206589727 2148.2662469039747
1824.5356067876692 2221.9079959916126
1825.2393230781581 2133.3349437340494
1825.942869573335 2027.0405071226603
1826.646246316086 2066.9918170061037
1827.3494533492758 2128.8412718756667
1828.052490715756 2147.8581920750994
1828.7553584583547 2305.7618430764933
1829.458056619891 2281.1904078641114
1830.1605852431585 2119.4600005419506
1830.8629443709433 2101.7241237575026
1831.5651340460063 2094.1877616901647
1832.2671543110919 2101.934380151451
1832.9690052089318 2287.778221007321
1833.6706867822395 1998.0276990766997
1834.3721990737104 2154.8449327282137
1835.0735421260233 2312.187322841667
1835.774715981841 2020.0913326753616
1836.4757206838058 2097.992409461922
1837.1765562745459 2125.7626720436992
1837.8772227966747 1997.8585673243851
1838.5777202927839 2152.8110013438436
1839.2780488054523 2084.4329782189952
1839.9782083772352 2087.066642018159
1840.6781990506806 2227.0579961355957
1841.378020868313 2156.7589414243107
1842.0776738726418 2071.810890971853
1842.777158106157 2021.1890154835542
1843.4764736113375 2036.1148995964763
1844.1756204306403 2236.2214868515903
1844.8745986065078 2081.3919078766626
1845.5734081813607 2014.8044979802758
1846.2720491976124 2129.328660257817
1846.970521697649 1980.1316592188662
1847.6688257238511 2197.3626297877427
1848.3669613185684 2160.0599393903703
1849.0649285241452 1920.827427086587
1849.7627273829057 2127.100326433618
1850.460357937156 2110.9745690502896
1851.1578202291857 1965.1522486437098
1851.8551143012664 2007.5532835504819
1852.5522401956569 2036.5814848610203
1853.2491979545957 2252.018931288386
1853.9459876203055 2011.494719447423
1854.6426092349902 1918.4746600475657
1855.3390628408451 2023.9131255993993
1856.0353484800362 2133.131199332215
1856.7314661947203 2189.114167238214
1857.4274160270397 2000.7228866388475
1858.123198019115 2080.9995811004924
1858.8188122130487 1943.3153931960921
1859.5142586509319 2003.7383110565042
1860.209537374838 2029.5696965043276
1860.9046484268183 2090.115642388271
1861.599591848917 2222.78006442136
1862.294367683151 2043.7359157840012
1862.988975971528 2055.654879859373
1863.6834167560355 2074.526303283912
1864.3776900786452 2117.785169538471
1865.0717959813119 2039.1302021801287
1865.7657345059724 1882.7925384446892
1866.4595056945564 2133.736434804762
1867.1531095889586 2120.558173846893
1867.846546231076 1928.2822855807888
1868.5398156627743 2165.1989022036537
1869.2329179259123 1881.6819865222471
1869.9258530623283 2241.651479562451
1870.618621113843 1974.3300531104996
1871.3112221222636 1911.8665641488715
1872.0036561293764 2004.7012128315498
1872.695923176956 1964.0308441685588
1873.3880233067594 2160.7758367025085
1874.0799565605212 1867.5102445210573
1874.7717229799673 1994.923590859306
1875.4633226068036 2159.602602508864
1876.1547554827175 2066.0539287662573
1876.8460216493859 2039.478316162329
1877.5371211484617 1978.3906967831686
1878.2280540215852 2198.464315083321
1878.9188203103804 1797.4337411610327
1879.6094200564548 2029.1782923272053
1880.299853301396 1852.5354004375963
1880.9901200867826 2248.7717711591067
1881.6802204541673 2127.029781553095
1882.3701544450942 2050.390924526101
1883.059922101087 1878.4634274465527
1883.7495234636517 2104.0173632747264
1884.4389585742792 1837.432531209711
1885.1282274744517 1967.8666526898185
1885.8173302056166 2258.066547868516
1886.506266809225 2006.1808494204492
1887.195037326701 1850.405504047904
1887.8836417994517 2050.0454053432272
1888.5720802688702 2058.6779413002
1889.260352776333 1993.1054901968369
1889.9484593632042 2085.0821580707825
1890.63640007082 1937.0743728113223
1891.3241749405151 1773.616871226524
1892.0117840135954 2027.3195486551492
1892.6992273313572 1976.0057024477524
1893.3865049350788 1844.5698678671201
1894.0736168660223 2083.6230447937073
1894.7605631654333 1977.16666602254
1895.4473438745408 1755.1023503311233
1896.133959034556 2152.1821777803516
1896.820408686679 2030.8064751408288
1897.506692872088 2036.5251957022072
1898.192811631945 2034.9844667617995
1898.8787650073991 1901.4854674058424
1899.5645530395832 2108.8926936148923
1900.2501757696118 2043.3318166197212
1900.9356332385796 1835.610606947148
1901.620925487574 2135.374916374858
1902.3060525576602 2058.359833899585
1902.9910144898859 2023.1243255518912
1903.6758113252872 1895.200775917931
1904.3604431048789 2049.237478347434
1905.0449098696663 1995.0022416794775
1905.7292116606295 1955.2553146122143
1906.4133485187394 1967.4633369874168
1907.0973204849488 1776.7144667227228
1907.7811276001976 1823.457369209161
1908.4647699053967 1885.8098624305167
1909.1482474414588 1590.5735088944443
1909.8315602492694 1750.8772919797993
1910.5147083696957 2001.410742386337
1911.1976918436012 2053.659991433929
1911.880510711815 1860.195991325978
1912.5631650151681 2061.4196139455603
1913.2456547944657 1753.2612406975084
1913.927980090495 1894.6759439786717
1914.6101409440362 1956.9265984751978
1915.2921373958416 1899.2268376093193
1915.9739694866603 2022.6183464225294
1916.655637257214 2039.8626584040492
1917.3371407482136 1876.6542383679262
1918.0184800003572 2092.965143417461
1918.6996550543154 2039.7945113161913
1919.3806659507554 1883.497271356095
1920.0615127303208 1868.9084517038627
1920.7421954336423 2025.0939359781873
1921.4227141013343 2352.3569419458895
1922.103068773993 1996.5836846701866
1922.783259492202 1893.4774482899768
1923.4632862965227 1826.6226422539355
1924.1431492275078 1859.4302666847639
1924.8228483256917 1891.445374572247
1925.5023836315922 1761.3163947816931
1926.1817551857057 1714.1337585191784
1926.8609630285227 2062.080718471272
1927.5400072005123 2075.9906619504236
1928.218887742125 1812.1120751983694
1928.8976046938005 1766.097424209624
1929.5761580959588 1974.211230495616
1930.2545479890086 1791.4734777308367
1930.9327744133352 1727.761607761142
1931.6108374093164 1953.7347335386542
1932.2887370173066 2108.6528597522984
1932.9664732776473 1637.6740333033674
1933.6440462306673 1952.0349045413636
1934.3214559166754 1908.7929421913682
1934.9987023759659 1926.8987508810242
1935.675785648813 1920.3806367944883
1936.3527057754836 1983.5346134854094
1937.029462796223 2046.8422963514452
1937.70605675126 1761.1447262657625
1938.3824876808085 1840.1376467624973
1939.058755625072 1886.9689859629805
1939.7348606242267 1768.0482988379147
1940.4108027184448 1969.5732730320822
1941.0865819478713 1896.3526946241225
1941.7621983526478 1873.6565956648187
1942.4376519728921 1718.7171217622913
1943.1129428487038 1866.3922594403953
1943.7880710201734 1885.7269000950837
1944.4630365273733 1918.502559896445
1945.1378394103576 1809.878697174531
1945.8124797091714 1700.008270302015
1946.4869574638324 1589.8602549123327
1947.161272714353 1750.5498272078457
1947.8354255007234 1981.9883097449226
1948.5094158629272 1846.5369252988617
1949.1832438409183 1921.7167465797756
1949.8569094746435 1779.168710590929
1950.530412804037 1998.811532573211
1951.2037538690092 1907.475523305365
1951.8769327094578 1720.8098037315171
1952.5499493652678 1838.8789335261542
1953.222803876306 2026.1125530125132
1953.895496282421 1914.775697343001
1954.5680266234522 1761.2951012491897
1955.2403949392155 1874.552812622847
1955.9126012695142 1773.3627541342266
1956.5846456541403 1773.5117248888232
1957.2565281328643 1734.6261752302926
1957.9282487454457 1973.2376295031213
1958.5998075316202 1881.7702222496791
1959.27120453112 1727.618258577491
1959.9424397836501 1855.3250239836464
1960.613513328908 1886.2301566632257
1961.2844252065697 1881.8578052127323
1961.9551754563017 1789.0752118408534
1962.6257641177453 1755.0194497137243
1963.29619123054 1671.6774366600268
1963.966456834296 1812.4172798969023
1964.6365609686181 1728.849506722248
1965.306503673086 1866.7066953148255
1965.976284987275 1716.947696516417
1966.645904950734 1779.9248242588521
1967.315363603002 1719.6143294452618
1967.9846609836077 1820.991471176258
1968.6537971320486 1678.5492763117832
1969.3227720878222 1833.146422805492
1969.9915858904042 1844.5889977392612
1970.660238579252 1794.8151316989613
1971.3287301938108 1838.0301787429307
1971.997060773514 1753.8864815577695
1972.665230357772 1711.4237591896213
1973.3332389859843 1721.5846252462804
1974.0010866975335 1584.244017618543
1974.6687735317864 1758.2194064543328
1975.3362995280932 1880.870645950882
1976.003664725793 1752.259966768997
1976.6708691642052 1688.9527379558047
1977.3379128826364 1833.3852084368166
1978.004795920373 1917.1480520975733
1978.6715183166925 2057.717703172989
1979.3380801108524 1644.221032561411
1980.0044813420973 1793.816485326098
1980.6707220496555 1570.43160411175
1981.3368022727373 1733.3848008107664
1982.0027220505417 1780.781253799194
1982.66848142225 1567.2690280948004
1983.3340804270283 1600.819187591887
1983.999519104027 1727.725520222016
1984.6647974923835 1831.8297326097659
1985.329915631215 1814.582858312914
1985.99487355963 1783.169533996989
1986.6596713167146 1786.8418585005943
1987.3243089415428 1564.8129426625167
1987.9887864731754 1801.061145514987
1988.6531039506553 1613.9054866150673
1989.3172614130071 1624.3736499437612
1989.9812588992481 1634.8854532837263
1990.645096448372 1501.7901015794685
1991.3087740993633 1722.8784310009607
1991.9722918911848 1666.6958923225357
1992.635649862792 1796.0716110131907
1993.2988480531185 1810.986359257026
1993.9618865010852 1966.2562349739717
1994.6247652455968 1816.6876489204255
1995.287484325545 1623.0966563560487
1995.9500437798033 1671.8503664129803
1996.6124436472292 1686.0720722962938
1997.2746839666706 1824.0469365674248
1997.936764776954 1631.8133533330263
1998.598686116895 1580.4949070223447
1999.2604480252903 1802.915762817728
1999.9220505409212 1906.6497430740485
2000.5834937025593 1688.703958966015
2001.2447775489582 1788.2002111764
2001.9059021188514 1841.3926951766578
2002.5668674509616 1550.1552184175903
2003.2276735839987 1562.7015548389586
2003.8883205566508 1892.164937486484
2004.5488084075987 1722.9596226869733
2005.2091371755014 1874.06680352991
2005.8693068990033 1566.0522933573125
2006.5293176167397 1832.4170257857288
2007.1891693673224 1529.3340864028849
2007.848862189354 1428.131829725591
2008.5083961214223 1592.7327914258908
2009.1677712020955 1685.0276323367518
2009.8269874699254 1615.243607670093
2010.4860449634598 1584.9953336168148
2011.1449437212177 1554.761204265572
2011.8036837817108 1784.8003438503151
2012.4622651834325 1724.5799283225683
2013.1206879648653 1804.7314778874995
2013.7789521644736 1768.6264536072813
2014.4370578207036 1758.7114450335564
2015.0950049719922 1748.7434367275098
2015.7527936567585 1834.6800901561703
2016.4104239134067 1615.5503733962032
2017.067895780323 1852.6862073036468
2017.725209295886 1497.2567464951542
2018.3823644984514 1854.6634984872157
2019.0393614263648 1809.3940517410635
2019.6962001179545 1535.3043099762735
2020.3528806115355 1815.3523608440057
2021.0094029454067 1626.917488709066
2021.6657671578487 1501.0040087719485
2022.321973287133 1798.296068008637
2022.9780213715148 1552.4450666363223
2023.6339114492293 1800.4392035963315
2024.2896435585026 1628.1673777501499
2024.9452177375442 1503.849313347462
2025.600634024544 1784.4780964363276
2026.2558924576842 1721.658303714575
2026.9109930751292 1853.3351061838282
2027.565935915025 1617.0818434736784
2028.2207210155066 1816.2978839771708
2028.8753484146964 1766.0989814159088
2029.529818150695 1517.4698178702633
2030.1841302615903 1746.75126869827
2030.8382847854573 1551.6740283556744
2031.4922817603601 1699.3401935501643
2032.1461212243357 1719.0537810296937
2032.7998032154192 1499.546793306242
2033.4533277716218 1620.7545209710765
2034.1066949309443 1678.2937580847938
2034.7599047313688 1458.675590934638
2035.4129572108704 1762.451034554913
2036.0658524074006 1651.4445510928767
2036.7185903589016 1759.6189675154055
2037.3711711032956 1708.0997991893607
2038.023594678496 1611.3579683594673
2038.675861122394 1458.2330715022947
2039.3279704728757 1727.5630098164322
2039.9799227678031 1509.1877017376257
2040.6317180450278 1756.1790516256083
2041.2833563423865 1621.8482074450053
2041.9348376977014 1829.6211571230542
2042.5861621487784 1742.8242400696076
2043.2373297334088 1830.683267654009
2043.8883404893695 1779.1081712551345
2044.5391944544208 1691.5138037126592
2045.1898916663158 1839.4544136357413
2045.8404321627804 1795.0414599300427
2046.4908159815368 1579.1108570338015
2047.1410431602853 1396.3733702978866
2047.7911137367173 1580.9677469364037
2048.441027748504 1845.2957313400439
2049.090785233302 1567.9131267277767
2049.7403862287592 1547.2875597233033
2050.389830772503 1862.4205774454945
2051.0391189021466 1558.8547148702894
2051.688250655294 1641.7467746217637
2052.337226069527 1459.393640103422
2052.986045182417 1750.7758308432744
2053.634708031521 1342.1028251139403
2054.283214654375 1707.3468007775725
2054.931565088511 1354.5438535473972
2055.579759371436 1514.9575378427894
2056.2277975406523 1760.33707265677
2056.8756796336384 1804.6119474763677
2057.5234056878617 1716.2997227746014
2058.1709757407752 1627.650540266845
2058.8183898298194 1711.9991010215701
2059.465647992416 1576.4203097638915
2060.1127502659747 1668.4158618179215
2060.759696687888 1419.29203385612
2061.4064872955405 1544.1152566444612
2062.053122126292 1406.0679655639917
2062.699601217497 1268.054425479322
2063.345924606485 1381.8083602698891
2063.992092330587 1630.7077289710755
2064.638104427102 1560.9672369381494
2065.283960933324 1673.9942805883645
2065.92966188653 1504.3304760500043
2066.5752073239855 1587.9213792594333
2067.2205972829397 1551.0992680685106
2067.86583180062 1643.90247183928
2068.5109109142522 1745.9105278291677
2069.15583466104 1686.9608981579781
2069.8006030781708 1627.9581258989804
2070.445216202821 1265.2548012502398
2071.089674072153 1606.6498563330774
2071.7339767233116 1702.0315715365748
2072.3781241934303 1570.4718630910763
2073.0221165196253 1648.8507316422674
2073.6659537390024 1606.307170388649
2074.3096358886505 1536.3546862905155
2074.953163005637 1593.2972819394583
2075.596535127028 1403.2272171010611
2076.2397522898664 1422.4431420314777
2076.882814531182 1516.1502194629206
2077.5257218879924 1582.4632988143028
2078.1684743973 1414.8557894825
2078.8110720960885 1477.7112326536756
2079.453515021336 1517.641955361823
2080.095803209997 1557.5770256953965
2080.7379366990135 1507.8280902836937
2081.37991552532 1590.2705245811608
2082.0217397258275 1573.8021763487836
2082.6634093374414 1383.4683109021653
2083.3049243970418 1585.8502914262435
2083.9462849415067 1645.6296601176443
2084.587491007689 1849.8205201906978
2085.2285426324324 1594.960304709999
2085.869439852564 1574.3416604724928
2086.510182704902 1450.8093007641953
2087.1507712262483 1457.8638397184159
2087.791205453381 1362.9559577335353
2088.4314854230743 1585.5458760053239
2089.0716111720867 1671.5539372988646
2089.7115827371617 1732.7500604052734
2090.351400155023 1794.1071064078872
2090.991063462385 1557.245642782485
2091.6305726959527 1417.8489559974216
2092.2699278924047 1610.4822187439663
2092.9091290884153 1479.1571516388276
2093.548176320641 1398.9868959326463
2094.187069625721 1643.7846971355088
2094.8258090402887 1417.2785235719552
2095.464394600951 1442.2793177798274
2096.102826344313 1615.1867948075374
2096.741104306955 1614.6314473617188
2097.379228525453 1525.8772612813366
2098.017199036358 1403.9560557390796
2098.6550158762147 1753.1974885183135
2099.2926790815527 1694.9394235560328
2099.9301886888825 1553.843891032736
2100.5675447347076 1534.2155419188673
2101.2047472555114 1616.333051712711
2101.841796287761 1320.6285793238421
2102.47869186792 1607.918313297266
2103.1154340324265 1426.7811888754975
2103.752022817709 1553.159046876308
2104.388458260184 1563.1946802697141
2105.024740396251 1345.7084093347378
2105.660869262292 1381.8114737516562
2106.296844894685 1698.6388900578434
2106.93266732978 1477.061771975286
2107.5683366039284 1395.0402692647363
2108.2038527534532 1589.6857839764436
2108.8392158146726 1552.0628536951183
2109.4744258238843 1462.7148338596335
2110.1094828173755 1400.8277547488035
2110.744386831422 1425.5289898886288
2111.3791379022787 1450.3179297965785
2112.01373606619 1669.623623504912
2112.648181359389 1594.4380597753195
2113.28247381809 1575.9332916595358
2113.916613478492 1645.8266613877527
2114.550600376786 1608.989495627964
2115.1844345491445 1518.5006677851502
2115.818116031729 1508.013643825042
2116.451644860679 1592.410563738325
2117.085021072133 1322.131594992946
2117.718244702204 1442.966901193259
2118.3513157869984 1439.3730030782037
2118.984234362604 1450.3743508989808
2119.617000465092 1455.2197801692973
2120.249614130529 1712.2553477838792
2120.8820753949585 1520.0076356292727
2121.5143842944162 1502.8650042705663
2122.14654086492 1471.064366613577
2122.7785451424734 1628.5574114240028
2123.4103971630702 1670.3337862332205
2124.042096962681 1712.3910534948816
2124.6736445772767 1551.8637255127142
2125.305040042802 1221.8192547026702
2125.936283395191 1380.5128800314105
2126.567374670365 1585.3683237569655
2127.198313904233 1388.9686013649653
2127.8291011326855 1429.5930478828557
2128.4597363916037 1470.132603345031
2129.0902197168507 1488.8245734000848
2129.720551144279 1599.4833183044948
2130.3507307097225 1710.1866642620826
2130.980758449008 1605.3804292709879
2131.6106343979427 1396.8859667036313
2132.2403585923203 1721.9428191516301
2132.8699310679276 1521.8844396508039
2133.499351860526 1684.9336027587517
2134.1286210058715 1467.1477921964304
2134.7577385397053 1577.2598639377234
2135.3867044977487 1687.5632701604832
2136.0155189157176 1682.3560561121794
2136.644181829308 1496.9428938653693
2137.2726932742025 1474.2555392897902
2137.901053286074 1395.804907151952
2138.5292619005777 1317.2844324473444
2139.1573191533535 1405.1223650585312
2139.7852250800315 1625.1742469572087
2140.4129797162295 1368.6696910309906
2141.0405830975433 1387.5904771880428
2141.6680352595613 1394.584792998141
2142.2953362378576 1401.6083781599332
2142.9224860679915 1337.2781800222106
2143.549484785508 1442.2843322692063
2144.1763324259373 1432.2950301035228
2144.803029024799 1370.297068214245
2145.429574617594 1306.8484920557607
2146.0559692398165 1580.8137806627026
2146.682212926942 1349.5540376323363
2147.308305714432 1417.8199776606994
2147.9342476377333 1645.0632473682494
2148.5600387322847 1723.6489876148048
2149.185679033506 1760.3442987230778
2149.8111685768017 1538.5409783868606
2150.4365073975678 1334.411806610361
2151.061695531187 1460.63732834119
2151.686733013021 1657.493630764513
2152.311619878423 1535.1597067456337
2152.9363561627342 1438.1943888588246
2153.560941901278 1293.5635102898184
2154.1853771293663 1343.4907586500558
2154.809661882293 1506.298335210175
2155.433796195348 1423.1711307451471
2156.0577801037944 1339.764290616727
2156.681613642895 1489.4968070573366
2157.3052968478896 1358.8702257883522
2157.928829754006 1576.8165962222088
2158.552212396462 1504.0776963743433
2159.1754448104566 1406.9144018279262
2159.7985270311783 1276.2861256821957
2160.4214590938027 1171.4145637331926
2161.0442410334927 1071.6685292867242
2161.6668728853874 1124.8890165369894
2162.289354684628 1178.2535753903596
2162.911686466332 1357.8795166748637
2163.533868265602 1467.8768802614889
2164.1559001175337 1436.0893585597742
2164.7777820572046 1404.1870899097812
2165.399514119681 1374.1331122641093
2166.021096340013 1276.4588141912952
2166.6425287532384 1300.228401161836
2167.263811394385 1324.1120965849705
2167.8849442984574 1449.095660920059
2168.505927500455 1509.2802225414976
2169.126761035366 1552.7915562648693
2169.7474449381552 1327.3081609748247
2170.367979243778 1298.9657606712558
2170.9883639871823 1564.1712530049167
2171.608599203293 1611.6088887776366
2172.2286849270276 1659.14850030789
2172.8486211932886 1671.8846434305262
2173.4684080369625 1554.144239169842
2174.0880454929265 1370.083715041686
2174.7075335960417 1132.7003639960337
2175.3268723811543 1216.1132241517112
2175.9460618831 1299.7534082111135
2176.565102136701 1398.2219125701035
2177.1839931767627 1290.5220121477182
2177.802735038078 1182.5560152960988
2178.421327755432 1252.019247519528
2179.0397713635866 1223.0018482364487
2179.658065897298 1508.8471674176108
2180.276211391305 1359.696586325349
2180.8942078803357 1519.1683536111095
2181.5120553991 1516.8764421153978
2182.129753982299 1263.7952882792222
2182.7473036646206 1347.096497853897
2183.3647044807367 1515.2885474374502
2183.9819564653044 1456.5361567417535
2184.599059652968 1586.2971647543575
2185.216014078367 1627.3730190252486
2185.832819776113 1600.3135233066625
2186.4494767808137 1573.0982303210772
2187.065985127063 1367.7022171926262
2187.682344849436 1299.9436748149997
2188.298555982501 1551.9648194261479
2188.9146185608097 1367.3207824034057
2189.530532618901 1587.0960071282668
2190.1462981912937 1599.2533475392718
2190.761915312507 1508.0857602698693
2191.377384017036 1348.7411080030467
2191.9927043393654 1449.4921742856782
2192.6078763139667 1571.6398335159067
2193.2228999753006 1694.0711620401776
2193.837775357808 1351.3066998621032
2194.452502495922 1292.4760014196283
2195.0670814240602 1475.9772550686976
2195.6815121766285 1157.9783672840986
2196.2957947880186 1166.69317516862
2196.9099292926057 1175.4296364246295
2197.523915724758 1429.7088855625864
2198.137754118825 1374.7763457028573
2198.7514445091456 1591.315870492002
2199.3649869300443 1434.4457427538653
2199.9783814158327 1767.7298954204864
2200.5916280008096 1536.1187373691723
2201.2047267192593 1611.4381358035355
2201.8176776054515 1447.0617285593535
2202.430480693649 1507.9175523396082
2203.0431360180955 1568.9508011334296
2203.6556436130195 1334.3540810496957
2204.268003512645 1304.0947848644817
2204.8802157511727 1382.6960680172176
2205.492280362796 1421.0403354027278
2206.1041973816937 1459.531144151068
2206.715966842032 1507.943685616496
2207.3275887779655 1413.203793437088
2207.93906322363 1502.24141959298
2208.550390213153 1316.8062038475366
2209.1615697806465 1297.7080244780277
2209.7726019602105 1278.3752830545918
2210.3834867859277 1186.1218838698255
2210.9942242918787 1408.466120198861
2211.6048145121167 1354.0213290655024
2212.2152574806914 1381.4353405436607
2212.825553231638 1408.88950590468
2213.435701798975 1596.3029024808955
2214.045703216707 1476.9566903123946
2214.655557518832 1135.271709278949
2215.2652647393297 1201.4997365139673
2215.874824912169 960.0695851216024
2216.4842380713 1194.1948683813275
2217.09350425067 1158.6841096485696
2217.7026234842033 1282.6523812995595
2218.311595805819 1406.9163990507768
2218.9204212494133 1435.7450184548168
2219.52909984888 1480.2671180311622
2220.137631638092 1534.077822406956
2220.7460166509154 1587.9026765456933
2221.354254921198 1202.283140985662
2221.9623464827764 1440.21032282955
2222.5702913694713 1505.4702350953714
2223.178089615096 1570.8554415958629
2223.7857412534486 1373.7101525118383
2224.39324631831 1148.8193818083896
2225.000604843457 1266.643377584643
2225.607816862641 1435.1273545181298
2226.214882409611 1309.186643126027
2226.8218015180973 1327.4920527279714
2227.4285742218217 1345.7196827845378
2228.0352005544864 1360.9925497836707
2228.6416805497847 1166.2753087443912
2229.248014241399 1374.0451313580968
2229.8542016629945 1315.3442571540572
2230.460242848223 1561.1476318884504
2231.0661378307304 1384.2960096910886
2231.671886644139 1207.27415712494
2232.277489322065 1173.1621673959276
2232.8829458981127 1256.777333925015
2233.48825640587 1340.506701707823
2234.0934208789095 1540.806194743149
2234.6984393507955 1536.0122689457937
2235.3033118550793 1264.503117114088
2235.9080384252975 1428.8025363786048
2236.5126190949723 1329.1727010078112
2237.1170538976166 1382.8304498340708
2237.721342866729 1173.4049476394903
2238.32548603579 1191.9264943437638
2238.9294834382763 1434.5429532826781
2239.533335107646 1352.1360367349505
2240.1370410773434 1256.3826974742176
2240.740601380803 1203.0477115155513
2241.3440160514474 1418.5024060984106
2241.9472851226783 1662.2653261896733
2242.550408627896 1563.5742420811937
2243.1533866004793 1464.7438653045424
2243.756219073799 1283.2186528681789
2244.3589060812064 1173.6885687435356
2244.961447656049 1244.1450036511783
2245.5638438316564 1518.7334840737985
2246.166094641343 1384.057636096238
2246.7682001184166 1249.1584412156794
2247.3701602961664 1241.4990452458167
2247.971975207871 1474.209631332926
2248.5736448867974 1313.744114418624
2249.175169366197 1468.0944392076676
2249.7765486793123 1329.5077481894418
2250.3777828593684 1326.1126280223982
2250.9788719395783 1352.4290648817944
2251.579815953146 1244.4895480703387
2252.1806149332606 1240.8085213079396
2252.781268913097 1304.2821715492296
2253.381777925817 1227.3775159210852
2253.9821420045737 1444.8934309535257
2254.5823611825035 1433.8289423981628
2255.1824354927303 1524.5674938356847
2255.782364968365 1616.9691698761337
2256.38214964251 1180.4208067469172
2256.9817895482483 1187.297308698348
2257.5812847186553 1264.7822162091666
2258.180635186791 1187.6817454701763
2258.779840985704 1308.9835327359228
2259.37890214843 1287.5503778609532
2259.97781870799 1289.448477986631
2260.5765906973957 1291.3605463194745
2261.175218149645 1598.8564404193482
2261.773701097718 1351.0464582082107
2262.3720395745895 1072.5379209693306
2262.970233613216 1329.099305930197
2263.568283246548 1402.813495909481
2264.1661885075137 1065.9577113752753
2264.763949429038 1248.6693102456063
2265.3615660440246 1378.5093856518895
2265.959038385374 1174.4870949476904
2266.5563664859637 1391.107491668163
2267.153550378669 1115.4185445165494
2267.7505900963424 1391.8283399223112
2268.3474856718312 1182.8746126689628
2268.9442371379664 1357.862459323789
2269.5408445275643 1270.7306224718734
2270.1373078734377 1360.7057992368173
2270.7336272083758 1297.9107970708842
2271.32980256516 1215.0646713772364
2271.925833976562 1585.7393301117158
2272.5217214753357 1522.8984498825225
2273.117465094223 1295.5567435403632
2273.7130648659586 1212.269496766481
2274.308520823257 1259.6220942362513
2274.903832998827 1411.8133360847944
2275.4990014253563 1178.805886087983
2276.094026135528 1466.9968750265919
2276.6889071620117 1250.5228385832636
2277.2836445374614 1086.174150130058
2277.878238294519 1196.9287740224704
2278.472688465812 1148.2970420078088
2279.066995083962 1099.5532277412515
2279.6611581815705 1165.4941110579707
2280.255177791232 1231.5543642787165
2280.8490539455233 1454.650415182398
2281.442786677013 1654.8832013246963
2282.0363760182554 1625.2900465279774
2282.6298220017943 1245.2941721985571
2283.223124660155 1570.931033681571
2283.816284025859 1553.9456531331462
2284.4093001314086 1536.98581754409
2285.002173009292 1408.9316971519459
2285.5949026919952 1440.352287143313
2286.1874892119777 1402.810038913925
2286.7799326016993 1380.8222478448868
2287.3722328936 1253.3981829944819
2287.964390120109 1349.0221317704022
2288.556404313642 1444.729282006484
2289.1482755066027 1561.0009273057092
2289.7400037313873 1303.5908336011667
2290.3315890203703 1235.1616149000242
2290.9230314059205 1250.360533583421
2291.5143309203904 1265.622979215243
2292.1054875961236 1326.8621105727416
2292.6965014654506 1367.699971134767
2293.287372560684 1273.9342023347913
2293.878100914131 1231.6259913834747
2294.468686558086 1189.2670857075886
2295.059129524827 1278.0629006747745
2295.649429846617 1216.564452500378
2296.239587555716 1154.8982195653275
2296.8296026843636 1336.3839955412393
2297.419475264791 1465.4461368233892
2298.0092053292137 1438.7889184292521
2298.598792909839 1411.993435413363
2299.1882380388597 1169.6968699297174
2299.777540748455 1414.0800034000818
2300.3667010707904 1347.6451437348776
2300.9557190380256 1435.0678845567568
2301.544594682302 1487.2167935686668
2302.1333280357503 1451.065925532333
2302.721919130485 1414.902039639839
2303.3103679986198 1441.489732094617
2303.898674672242 1545.4831322628395
2304.486839183437 1475.0945736419228
2305.0748615642697 1404.7571561542038
2305.6627418468015 1146.436860944346
2306.2504800630704 1123.4806633088451
2306.8380762451143 1291.3363101997065
2307.425530424949 1394.8225626040355
2308.012842634582 1498.5354765949182
2308.6000129060103 1449.933024405478
2309.187041271214 1594.5521597071058
2309.773927762164 1515.8896087618234
2310.3606724108213 1437.0817517823975
2310.9472752491274 1186.1132294216545
2311.5337363090184 1520.5902662326148
2312.120055622414 1254.4342233736222
2312.706233221221 1146.3559540523743
2313.2922691373424 1101.8975091539005
2313.8781634026564 1213.985719694319
2314.463916049037 1326.3291657932027
2315.049527108342 1179.9170593751737
2315.6349966124235 1522.1209538442101
2316.2203245931123 1433.2319303495028
2316.8055110822315 1159.2773142740023
2317.3905561115935 1061.4521737856735
2317.9754597129977 1310.720242271338
2318.560221918229 1192.1492684024468
2319.1448427590603 1073.3351004474969
2319.729322267256 1145.9719461778363
2320.313660474563 1099.2025113584846
2320.8978574127195 1672.9870508058095
2321.481913113452 1683.5726606011365
2322.0658276084705 1448.1667347112802
2322.6496009294806 1212.1345409994788
2323.233233108165 1232.264398699689
2323.8167241762058 1341.2292880809541
2324.4000741652617 1254.1405557680978
2324.983283106987 1368.326683301322
2325.5663510330232 1371.658604991677
2326.1492779749933 1374.8375435083112
2326.7320639645204 1404.815623763673
2327.3147090332004 1294.6570409126384
2327.897213212629 1338.6437163691176
2328.4795765343843 1382.5889965850342
2329.0617990300307 1202.5874678601044
2329.643880731124 1610.9408098039744
2330.22582166921 1124.616601949197
2330.807621875816 1060.2541714771437
2331.3892813824623 995.8790972958116
2331.9708002206517 1073.13862677535
2332.5521784218818 1087.7793920255663
2333.133416017634 1102.4991500173817
2333.7145130393765 1294.2733390494463
2334.295469518571 1304.18768136307
2334.876285486658 1348.250547504213
2335.456960975076 1397.5528130630871
2336.037496015242 1446.989489305087
2336.6178906385667 1263.8243623184978
2337.198144876451 1184.773710388265
2337.778258760278 1132.9902316301657
2338.3582323214214 1276.0022246536262
2338.938065591243 1419.3145772130526
2339.517758601087 1508.6879793342218
2340.0973113822965 1248.403482562027
2340.676723966193 1287.6580288024766
2341.255996384094 1159.474340987628
2341.835128667295 1383.6241252520217
2342.4141208470883 1414.4436727866887
2342.992972954751 1289.4536921536062
2343.5716850215467 1302.894533053976
2344.1502570787306 1254.7154561856782
2344.7286891575386 1206.3815372043691
2345.3069812892045 1436.9199399330394
2345.885133504944 1196.2113127554476
2346.4631458359618 1224.9360954431854
2347.04101831345 1196.1277317696602
2347.6187509685915 1250.920250492633
2348.196343832553 1227.2538136730504
2348.7737969364935 1211.416557815694
2349.351110311558 1195.5845532127128
2349.9282839888765 1014.600193222724
2350.5053179995757 1102.7670731334651
2351.0822123747585 1023.0839574972308
2351.658967145526 1055.4454278795365
2352.2355823429643 1087.9230100168559
2352.812057998144 1338.128847948417
2353.3883941421263 1355.2483561578126
2353.9645908059647 1245.8547701768919
2354.540648020693 1294.710092263883
2355.116565817336 1393.9259435955248
2355.6923442269126 1152.0078620921445
2356.2679832804224 1272.4859362578504
2356.8434830088518 1155.3943849920274
2357.41884344318 1299.9446533250689
2357.994064614377 1224.1663990234595
