#exp_cfg={"servo_angle": 0.0, "laser_lim": 100.0, "servo_angle_to": 18.0, "laser_wup": 0.0, "bt_dev": "EnSpectr-25AE3", "laser_wdn_max": 0.0, "frames": 10.0, "servo_used": 0, "servo_calib_use": 0, "laser_wdn_min": 0.0, "servo_pix_from": 90.0, "cooler_tout": 300.0, "servo_angle_from": 0.0, "servo_calib": "[-1.9174921013161362e-09, 3.9322238269163779e-05, -0.27385609119055809, 653.59552119713567]", "laser_autoctl": 0, "servo_pix_to": 3682.0, "laser_pw": 100.0, "cooler_on": 0, "laser_volt": 4.0, "cooler_autoctl": 0, "cooler_curr": 70.0, "cooler_startup": 10.0, "laser_fixed_pw": 0, "gain": 1.3, "offset": 2.53059635486, "servo_calib_degree": 3.0, "laser_curr": 55.0, "shutter": 8200.0, "servo_calib_step": 1.0, "laser_fixed_curr": 0, "exp": 2000.0, "ccd_volt": 4.7, "bt_addr": "00:06:66:62:5A:E3", "servo_delay": 500.0, "laser_autooff": 1}
#proc_cfg={"flat_auto_wnd": 200.0, "flat_auto_fr": 200.0, "flat_auto_shift": 5.0, "yconv": 1, "flatten": 1, "flatten_strength": 100.0, "xfrom": 300.0, "auto_max_frame": 2000.0, "auto_signal": 48000.0, "flat_auto_tol": 0.1, "autoclip": 1, "xrel_range": 0.0, "flat_auto_to": 4000.0, "intensity_adj": 1.0, "xrel": 7852.0, "rmhot": 1, "flat_auto_slit": 4.999999999999997, "auto_ini_exp": 300.0, "auto_off": 0, "xto": 2860.0, "flat_auto_ref": "", "flat_auto_rank": 1, "autobackg": 0, "xrel_adj": 0.0, "auto_black_lvl": 1, "base_wnd": 100.0, "sub_baseline": 0, "xconv": 2, "auto_max_exp": 1000.0, "auto_total_exp": 10000.0, "auto_exp": 0, "rmripple": 0, "black_lvl": 8233.1125, "shutter_clip_adj": 0.0, "auto_bckg": 0, "flat_auto_thr": 0.9, "subbackg": 1}
316.8218498245369 12905.454338258181
317.89969571804795 12599.162199186354
318.977263876126 12641.534081114896
320.05455438786703 12505.306414589804
321.1315673423287 12508.194555790034
322.2083028285215 12429.341611940612
323.2847609354267 12435.285373025778
324.3609417519747 12396.1018804707
325.43684536705587 12383.443962751158
326.5124718695279 12341.613959635182
327.58782134820103 12376.735178204926
328.66289389184385 12322.571356000084
329.7376895891921 12238.683969673355
330.8122085289342 12278.367937248513
331.88645079971866 12221.077708529776
332.9604164901575 12204.507107010992
334.03410568881554 12109.546935545866
335.1075184842266 12258.191515563052
336.18065496487543 12077.027687300844
337.2535152192122 12093.591632573996
338.32609933564163 12145.792242084019
339.39840740253203 12062.976063635047
340.4704395082099 11991.897873919364
341.5421957409617 11995.837743235448
342.6136761890357 12059.767090370016
343.6848809406365 11876.484715041934
344.75581008392874 11892.599879916525
345.82646370703696 11756.906908880075
346.8968418980512 11784.094988733488
347.96694474501055 11873.604014787068
349.0367723359268 11914.610506842651
350.106324758759 11739.902601037345
351.1756021014353 11681.540515407833
352.2446044518383 11680.568024928285
353.31333189781435 11700.613704325424
354.38178452716966 11654.167151903443
355.449962427665 11659.844163197513
356.51786568702846 11571.479385634104
357.58549439294256 11640.146330625743
358.6528486330535 11661.477723713919
359.71992849496564 11492.447088559344
360.7867340662433 11548.065391594515
361.8532654344144 11526.01666823682
362.9195226869597 11577.686850060316
363.9855059113288 11477.191533783775
365.05121519492604 11411.655929786391
366.11665062511565 11490.573490094544
367.1818122892273 11411.645561726697
368.2467002745434 11526.394986299538
369.31131466831175 11359.296719794944
370.375655557742 11407.226906330212
371.4397230299983 11380.035443676872
372.5035171722102 11363.390948032018
373.5670380714637 11346.828319848613
374.6302858148101 11376.123809833562
375.6932604892554 11391.806060592779
376.7559621817709 11305.12478606057
377.81839097928605 11276.886468734217
378.8805469686886 11260.99543678491
379.94243023683157 11361.435830789025
381.0040408705263 11197.114619061242
382.0653789565458 11171.577442744725
383.1264445816196 11140.063591822163
384.1872378324406 11134.364179051177
385.2477587956637 11173.858513753095
386.3080075579037 11042.508345987495
387.3679842057336 11079.903603240402
388.4276888256918 11126.496736826706
389.48712150426945 10990.947352856614
390.54628232792857 11065.890043257747
391.6051713830857 11092.197328687733
392.66378875611736 11002.20455647877
393.7221345333637 11058.039723054175
394.7802088011249 10911.61901259072
395.838011645661 10965.272671411672
396.89554315319765 10922.42010377742
397.9528034099112 10831.209740878969
399.00979250194723 10792.898298424863
400.06651051541485 10793.128048436662
401.1229575363741 10838.18359877519
402.17913365085224 10802.20901206734
403.23503894483656 10792.119558212611
404.2906735042761 10779.986971470298
405.3460374150818 10688.924011108906
406.401130763119 10728.72523650138
407.455953634224 10711.430069558108
408.5105061141876 10666.977746371447
409.56478828876243 10546.899581236783
410.6188002436629 10561.435717583268
411.6725420645689 10598.79415873693
412.72601383711117 10639.838938599696
413.77921564689314 10616.603317347164
414.8321475794728 10543.085280602962
415.88480972036814 10545.294052439229
416.93720215506437 10524.044776030629
417.9893249690049 10393.544373152912
419.04117824759123 10484.157282478447
420.09276207619223 10386.507312757221
421.144076540133 10439.442218377404
422.1951217247042 10409.428959360324
423.24589771515275 10467.121346561904
424.2964045966928 10382.73110071268
425.34664245449494 10400.74438886888
426.3966113736933 10315.917913102816
427.4463114393875 10266.369152016521
428.49574273662984 10233.84422157823
429.5449053504417 10275.083561208152
430.5937993658026 10340.506521108013
431.6424248676558 10256.318434649813
432.6907819409007 10193.284172981508
433.73887067040596 10300.873195149856
434.7866911409965 10281.484894701496
435.8342434374608 10197.79923667131
436.88152764455117 10201.882019832017
437.9285438469724 10273.256699493093
438.9752921294057 10151.976051074691
440.02177257648145 10127.269058254637
441.06798527279716 10114.08807009383
442.1139303029122 10270.91455109897
443.1596077513459 10138.43697694074
444.2050177025794 10187.84953282667
445.25016024105753 10168.619825222966
446.2950354511886 10172.560408483361
447.33964341733736 10114.204019047245
448.383984223834 10228.434292955806
449.4280579549686 10112.732993993846
450.471864694995 10132.73839973522
451.5154045281306 10107.831061884292
452.5586775385509 10200.739641249897
453.60168381039693 10118.782923774093
454.64442342776783 10220.967978732813
455.6868964747264 10195.276900335204
456.7291030353008 10140.361563813458
457.77104319347563 10165.043176900102
458.8127170332027 10193.733879270963
459.854124638392 10211.707916443298
460.895266092919 10229.347135046042
461.93614148061897 10300.440493758819
462.97675088529104 10317.27081706344
464.01709439069236 10279.881252648196
465.0571720805492 10310.608858582505
466.0969840385442 10329.69054985634
467.1365303483253 10393.46261997418
468.17581109350067 10344.987788304783
469.2148263576437 10350.7705040769
470.2535762242878 10319.484862006926
471.29206077693016 10426.988163257492
472.33028009902773 10376.106486804858
473.3682342740012 10377.403239095971
474.40592338523857 10357.286846802785
475.4433475160804 10347.760188409293
476.4805067498364 10268.697520321366
477.51740116978 10286.398701462784
478.5540308591426 10260.526680932482
479.59039590112116 10231.498109471288
480.6264963788726 10179.890490621183
481.6623323755193 10259.441573143025
482.6979039741436 10118.263699011015
483.7332112577915 10278.41095863554
484.76825430947247 10264.544782186731
485.80303321215797 10231.519784160879
486.837548048783 10208.319673425995
487.8717989022425 10219.54622019321
488.90578585539697 10159.270537127832
489.9395089910686 10234.872407706724
490.97296839203955 10140.392927392717
492.00616414106116 10056.751030569187
493.0390963208429 10023.602733926935
494.0717650140559 10091.20159207981
495.10417030333883 9974.569520467014
496.1363122712901 9978.951693764346
497.16819100046814 9876.509486936306
498.1998065734024 9871.138848377643
499.2311590725767 9804.415824822154
500.26224858044407 9769.322454780398
501.2930751794156 9843.608375923812
502.3236389518679 9787.594882621495
503.35393998014115 9757.124897787893
504.38397834653733 9688.614174588081
505.4137541333221 9732.450026399769
506.4432674227228 9715.67304349261
507.4725182969323 9636.527950405974
508.5015068381035 9619.487462936273
509.53023312835467 9590.693041843417
510.55869724976765 9538.00927666773
511.58689928438434 9557.885435832173
512.6148393142121 9484.192115441043
513.6425174212218 9539.72392396401
514.6699336873462 9545.017050256713
515.6970881944835 9558.626324757077
516.7239810244901 9433.412013756863
517.7506122591931 9454.793120072909
518.7769819803761 9442.3590641793
519.8030902697901 9511.342435143064
520.8289372091476 9477.20222894982
521.8545228801249 9534.941947952746
522.8798473643619 9454.442659364251
523.9049107434621 9521.805025525535
524.9297130989908 9577.001307797651
525.9542545124805 9439.507469031836
526.9785350654201 9462.00148463681
528.0025548392696 9516.327386535939
529.0263139154504 9353.131835321965
530.0498123753423 9492.384501807914
531.073050300296 9401.551373763574
532.0960277716204 9327.448083560845
533.1187448705896 9331.53273675928
534.1412016784416 9382.529887433542
535.1633982763833 9351.13725697404
536.1853347455726 9273.605764688149
537.2070111671401 9297.342065525227
538.2284276221817 9292.352483589242
539.2495841917516 9230.462922657507
540.2704809568677 9242.849255349925
541.2911179985167 9250.014706902342
542.3114953976419 9134.673142337559
543.3316132351592 9120.820660954476
544.3514715919409 9064.049589220358
545.3710705488247 9035.228687906481
546.3904101866156 9062.453039693986
547.4094905860784 9060.154372164807
548.4283118279418 9066.657444949447
549.4468739929034 9033.056051046195
550.4651771616191 9036.521760579666
551.4832214147063 8952.62210603397
552.501006832761 9011.973865046097
553.5185334963226 8966.597153880683
554.5358014859103 9019.954254380393
555.5528108820035 8986.192111234954
556.5695617650363 8931.037339630802
557.5860542154242 9016.5480670777
558.6022883135283 8957.093347412334
559.6182641396881 8994.820681164314
560.6339817741991 8969.998933192128
561.6494412973225 8979.128547857512
562.6646427892883 9006.882433403753
563.6795863302796 8889.157493002276
564.694272000459 8841.70125754524
565.7086998799423 8994.093106883614
566.7228700488104 8883.316629206747
567.7367825871115 8861.688797448594
568.7504375748576 8852.500141326567
569.7638350920224 8868.029167867066
570.7769752185486 8884.486717841088
571.7898580343353 8938.58216643056
572.802483619258 8781.322396953949
573.8148520531431 8877.719934649442
574.8269634157932 8835.516720873373
575.8388177869692 8778.851769329165
576.8504152463938 8774.454084162855
577.8617558737587 8918.95541882878
578.8728397487175 8779.9739339485
579.883666950891 8800.467445281512
580.8942375598654 8824.909154150959
581.9045516551851 8788.701729155133
582.9146093163617 8799.841403172508
583.924410622878 8789.761508117841
584.9339556541727 8791.868942320225
585.9432444896538 8828.90505103624
586.9522772086875 8740.335140318477
587.9610538906127 8842.699989209716
588.9695746147318 8736.65779852775
589.9778394603054 8830.089098866874
590.985848506567 8719.669094337618
591.9936018327098 8715.676162467813
593.0010995178891 8624.522244297767
594.0083416412344 8682.877195879573
595.0153282818283 8626.932110605327
596.0220595187293 8581.56126401397
597.0285354309508 8600.247741884237
598.0347560974806 8484.831972432848
599.0407215972609 8527.111436712372
600.0464320092051 8506.047672623845
601.0518874121954 8544.175061871852
602.0570878850685 8534.62974764405
603.062033506636 8514.925046097098
604.0667243556636 8567.79598234261
605.0711605108936 8481.292740952671
606.0753420510264 8654.050607997313
607.0792690547278 8551.150145140822
608.082941600629 8499.015861733234
609.0863597673306 8463.69052928426
610.0895236333909 8577.493497766192
611.0924332773357 8663.684347890625
612.0950887776617 8582.277128686446
613.0974902128219 8613.598275907167
614.0996376612384 8689.431076014604
615.1015312013005 8745.849750379093
616.1031709113595 8752.431518478861
617.1045568697336 8684.703645880974
618.1056891547069 8824.444480609016
619.1065678445229 8872.098131768325
620.1071930173985 9018.053547346379
621.1075647515099 8934.79336987257
622.1076831250048 8918.830658736533
623.1075482159849 8907.626474178047
624.1071601025305 8987.259654869336
625.1065188626781 8929.238463830316
626.105624574433 9114.907717470072
627.1044773157682 8941.383362963166
628.1030771646128 9064.258252127722
629.1014241988742 9066.977131814885
630.0995184964158 9041.511891527278
631.0973601350688 9114.740124403703
632.0949491926294 9225.957469793475
633.0922857468631 9043.396627494221
634.089369875499 9037.11149191638
635.0862016562278 9027.691797539106
636.0827811667077 8868.69768912409
637.0791084845641 8929.511071345247
638.0751836873878 8871.501106640118
639.0710068527369 8930.906802368816
640.0665780581294 8909.0848531836
641.0618973810506 8793.137933199425
642.0569648989604 8828.370404568097
643.0517806892676 8727.241746624557
644.0463448293649 8717.04813584198
645.040657396592 8742.052059788646
646.0347184682723 8753.364405242011
647.0285281216875 8641.487394392025
648.0220864340772 8569.746904643187
649.0153934826558 8522.035171022882
650.0084493446047 8583.051201104734
651.0012540970674 8514.611873573662
651.9938078171526 8563.446402911733
652.9861105819346 8495.625555969273
653.9781624684565 8552.261658193836
654.9699635537254 8441.824107417908
655.9615139147136 8527.189760148032
656.9528136283589 8361.225683089977
657.9438627715699 8577.142114109763
658.9346614212154 8434.812344018985
659.925209654135 8335.77452980266
660.9155075471263 8410.781317607902
661.9055551769616 8379.936902405156
662.895352620375 8393.183707354827
663.8848999540678 8324.486178036725
664.8741972547068 8190.921107216274
665.863244598926 8292.381509864501
666.8520420633213 8319.444752248193
667.8405897244611 8196.666681582323
668.8288876588758 8170.7891278494835
669.8169359430613 8180.7519222756555
670.8047346534822 8170.714763807193
671.7922838665672 8097.547830725273
672.7795836587156 8140.667988622709
673.766634106285 8277.30150442208
674.7534352856092 8040.408359299629
675.7399872729766 8091.15642962735
676.7262901446538 8090.983724588344
677.712343976862 8089.325099324119
678.6981488457986 8159.522646029041
679.6837048276229 8033.056777111917
680.6690119984596 7987.105186317065
681.6540704344043 8044.020900267465
682.6388802115107 7964.733494149608
683.6234414058108 8016.613425251929
684.6077540932874 7935.326128131368
685.591818349907 7976.132709333028
686.575634251587 7959.739740820469
687.5592018742263 7873.660175244823
688.5425212936734 7756.609260112818
689.5255925857564 7948.962923186252
690.5084158262707 7822.9985900967495
691.4909910909646 7821.914949240626
692.4733184555644 7799.897949304056
693.4553979957618 7810.457499416753
694.4372297872123 7859.467685039968
695.4188139055404 7758.924301126843
696.4001504263324 7781.103024308288
697.3812394251509 7784.996862366507
698.3620809775111 7789.113982573847
699.3426751589104 7818.119634962796
700.3230220448004 7747.283272971763
701.3031217106054 7837.268883940744
702.2829742317172 7882.447502577796
703.2625796834873 7836.3993691141
704.2419381412474 7748.487916580826
705.22104968028 7807.405768587234
706.1999143758458 7810.062399760715
707.178532303169 7877.949978984475
708.1569035374378 7885.527302523132
709.1350281538107 8007.098471792141
710.1129062274158 7999.954339438938
711.0905378333373 8150.680613171191
712.0679230466376 8180.653935780132
713.0450619423427 8284.677826702324
714.0219545954424 8404.508610553577
714.9986010808989 8407.113732679316
715.9750014736292 8499.694452549862
716.9511558485392 8668.754899553443
717.9270642804786 8691.952381285639
718.9027268442787 8705.007262946045
719.8781436147328 8711.240509228905
720.8533146666014 8708.324160319638
721.828240074612 8627.065482962802
722.8029199134635 8587.580076787122
723.7773542578125 8526.312817486789
724.751543182294 8411.393448731444
725.7254867615029 8349.767513172173
726.6991850700015 8263.734958067407
727.6726381823228 8234.518862805484
728.6458461729599 8219.054648227533
729.6188091163858 8219.926080844863
730.5915270870246 8234.299122350518
731.5640001592856 8244.349745200296
732.536228407529 8127.950567671377
733.5082119060917 8290.648094454229
734.4799507292755 8216.019070421407
735.4514449513481 8324.10549212751
736.4226946465496 8241.436998168985
737.3936998890786 8294.671503853006
738.3644607531078 8181.73725235263
739.3349773127793 8118.534063936383
740.3052496421951 8101.798733510613
741.27527781543 7939.4553056661225
742.2450619065221 7853.745181729173
743.2146019894826 7777.539536163368
744.183898138288 7710.831299606418
745.1529504268801 7641.303441308586
746.1217589291682 7475.753108743125
747.0903237190341 7460.370931191207
748.058644870318 7519.30893157449
749.0267224568397 7407.836832571879
749.994556552374 7294.902691779064
750.9621472306771 7306.621451763615
751.9294945654583 7265.971970931241
752.8965986304011 7272.768971039952
753.8634594991636 7201.92831162
754.8300772453586 7253.401977699716
755.7964519425768 7282.215184766137
756.762583664371 7187.926984002826
757.7284724842611 7241.582036738339
758.6941184757416 7157.324084578812
759.6595217122667 7188.048928667389
760.6246822672638 7224.937326070237
761.5896002141235 7104.669828927721
762.5542756262093 7139.24669031371
763.5187085768503 7236.847068505556
764.4828991393406 7144.796580162212
765.4468473869474 7154.524077456338
766.4105533929032 7181.344867552271
767.3740172304078 7140.849921614778
768.3372389726283 7145.42125342787
769.3002186926988 7033.842745536323
770.2629564637282 7065.160057339669
771.2254523587872 7070.628866146792
772.1877064509154 7034.446312775313
773.1497188131179 6962.359775559123
774.1114895183728 6957.920864848615
775.0730186396268 6878.487107228981
776.0343062497905 6927.06274780122
776.9953524217381 6986.351738990644
777.9561572283274 7009.478785144094
778.9167207423689 6919.494538057998
779.8770430366476 6937.036839038851
780.8371241839159 6941.043301229128
781.7969642568951 6894.337190487701
782.7565633282757 6970.693705695939
783.7159214707099 6907.277916895468
784.6750387568281 6887.999521527527
785.6339152592227 6840.9328078580675
786.5925510504512 6727.383732502114
787.5509462030477 6834.828444753536
788.5091007895098 6821.673999810499
789.4670148823006 6868.2999292521
790.4246885538596 6914.200120927033
791.3821218765861 6853.011832158001
792.3393149228505 6830.426539748749
793.2962677649975 6901.426968049853
794.2529804753303 6863.860975656835
795.20945312613 6837.261295189504
796.1656857896378 6802.301113767937
797.1216785380675 6752.695558754958
798.0774314435985 6855.613822812746
799.0329445783846 6887.37563365945
799.9882180145414 6834.649418355273
800.9432518241574 6814.911593568644
801.89804607929 6873.323812429604
802.852600851962 6904.954312408273
803.8069162141637 6897.708322634094
804.760992237856 6911.697214226157
805.714828994971 6946.05036543592
806.6684265574077 6890.137508242022
807.6217849970271 6885.845501342068
808.574904385674 6826.724307561747
809.527784795142 6904.169811026845
810.4804262972102 6941.753131031799
811.4328289636178 6835.78411011768
812.3849928660748 6712.745038619112
813.3369180762638 6735.802253469525
814.2886046658241 6719.659102114914
815.2400527063783 6729.605576054581
816.1912622695108 6683.898381888599
817.1422334267718 6716.035972016153
818.0929662496856 6609.846306146132
819.0434608097457 6601.883520433516
819.9937171784059 6633.323999688597
820.9437354271013 6617.702660655428
821.8935156272255 6641.53254953593
822.8430578501484 6573.532006956219
823.7923621672016 6481.843439091601
824.7414286496896 6583.895603759991
825.6902573688876 6545.5545568121215
826.6388483960363 6594.8672427199435
827.5872018023492 6477.8200373078125
828.5353176590033 6585.520258023702
829.4831960371503 6477.6616826784575
830.4308370079016 6545.748247085492
831.3782406423525 6456.87715599838
832.3254070115545 6496.930350457581
833.2723361865319 6428.515407526095
834.2190282382799 6384.571751005751
835.1654832377644 6487.79213011055
836.1117012559116 6442.4548361395655
837.0576823636256 6497.776424038515
838.003426631778 6348.660398834367
838.9489341312074 6390.312951272326
839.8942049327197 6428.156583221133
840.8392391070975 6481.766136292243
841.7840367250865 6392.254493764384
842.7285978573982 6318.489834327569
843.672922574724 6412.670789341562
844.6170109477152 6410.646711287769
845.560863046996 6470.784022574369
846.5044789431595 6389.348832562993
847.4478587067697 6376.28124513613
848.3910024083561 6475.194799193923
849.333910118421 6408.215858642763
850.2765819074339 6371.830630104542
851.2190178458332 6430.81820365034
852.161218004032 6472.739305395389
853.1031824524016 6407.121715509974
854.0449112612987 6321.381727448045
854.9864045010327 6463.279741147961
855.9276622418947 6350.643702161424
856.8686845541379 6359.6886179963385
857.8094715079915 6371.728954605022
858.7500231736467 6463.992046272046
859.690339621271 6409.586582309842
860.6304209209939 6343.22457005958
861.5702671429244 6258.812076943927
862.5098783571284 6392.372441673611
863.4492546336569 6336.1397260438935
864.3883960425155 6267.34104181982
865.3273026536863 6281.784551373983
866.2659745371238 6239.793880175785
867.2044117627465 6330.213265257133
868.1426144004472 6319.570361570492
869.0805825200823 6341.663050701425
870.0183161914847 6289.685044818822
870.9558154844526 6288.535239265225
871.8930804687552 6263.030190453145
872.8301112141307 6249.728092461086
873.7669077902865 6315.702265995551
874.7034702669062 6382.466308172034
875.6397987136315 6374.139572868242
876.5758932000863 6329.634928421982
877.5117537958522 6414.761744065208
878.4473805704911 6344.472352776993
879.3827735935283 6341.418803145752
880.3179329344603 6366.867331037064
881.2528586627541 6463.062941791317
882.1875508478479 6404.663367322244
883.1220095591489 6344.737864475372
884.0562348660296 6248.729907036403
884.9902268378391 6387.736084456262
885.9239855438955 6344.1913486302965
886.8575110534839 6283.86208079623
887.7908034358588 6304.378313964651
888.7238627602474 6257.964905675444
889.6566890958475 6330.368531166249
890.5892825118208 6201.7553785594355
891.5216430773125 6264.980815667314
892.4537708614189 6265.55187240037
893.3856659332196 6135.040479256096
894.3173283617652 6172.8263654740385
895.2487582160684 6220.1529358598955
896.179955565116 6172.8685811453215
897.110920477864 6152.736199622382
898.0416530232451 6136.415404812563
898.9721532701478 6194.1561941476875
899.9024212874428 6218.347765773819
900.8324571439662 6153.197101947402
901.7622609085302 6098.146893826707
902.6918326499072 6098.443360744521
903.6211724368477 6165.849539075951
904.5502803380696 6248.856060992233
905.4791564222614 6200.47584208637
906.4078007580792 6148.581120759405
907.3362134141571 6084.026141182339
908.2643944590909 6232.1965290997705
909.1923439614493 6108.112803447699
910.1200619897754 6131.473416527918
911.0475486125779 6198.7414199147925
911.9748038983344 6143.557898758417
912.9018279155007 6105.517060085051
913.8286207324982 6117.8788297052215
914.7551824177117 6194.270261899428
915.6815130395116 6129.2948078572135
916.6076126662283 6062.359600767952
917.533481366163 6047.024290754419
918.4591192075914 6123.16464290984
919.3845262587565 6138.6951393887775
920.3097025878706 6029.371461053754
921.2346482631237 6039.032019948555
922.1593633526682 6061.920403989248
923.0838479246304 6060.363068697197
924.0081020471061 6115.432643285278
924.9321257881656 6015.992294566509
925.8559192158464 5968.893233268144
926.7794823981512 5971.344682600235
927.7028154030686 5970.016659303956
928.6259182985414 5975.548200178533
929.5487911524906 6087.460772659762
930.4714340328119 6017.146314804191
931.3938470073608 5942.807458827338
932.3160301439748 5934.225448377127
933.2379835104548 5998.6395234025185
934.1597071745709 6031.843290202335
935.0812012040769 6019.6615475479275
936.002465666681 6020.2707072598405
936.9235006300696 6078.745279611276
937.8443061619055 6056.2753912682865
938.7648823298077 5893.9225577196175
939.6852292013809 5932.442432175064
940.6053468441951 6022.990891235617
941.5252353257874 5881.426060585116
942.4448947136698 5967.2857146373335
943.364325075323 5964.898218913242
944.2835264782043 6000.52494639132
945.2024989897309 5963.929665273614
946.1212426773054 5980.315089711911
947.0397576082851 5969.495839295377
947.9580438500125 6047.947671846843
948.8761014697939 6018.324203114696
949.7939305349064 6042.901099971941
950.7115311125999 5943.607376894559
951.6289032700952 5973.491024818454
952.5460470745875 6034.562701624711
953.4629625932339 6008.4528332528425
954.3796498931715 6095.167504098556
955.2961090415029 6070.647020509682
956.2123401053068 5974.055612654314
957.1283431516276 5989.919449180912
958.0441182474842 5969.823980826937
958.9596654598663 5959.667386612538
959.8749848557309 5931.222498780963
960.7900765020167 5869.368888244002
961.7049404656209 5902.168468414305
962.6195768134185 6005.676686453062
963.5339856122537 5908.381250794535
964.4481669289453 5909.462483052929
965.3621208302793 5895.942150174319
966.2758473830145 5897.957113201743
967.1893466538822 5975.2568204530435
968.1026187095813 5897.420504837089
969.0156636167867 5854.8201995517475
969.9284814421426 5946.752043878077
970.8410722522622 5877.0486142704685
971.753436113735 5856.606638849059
972.6655730931161 5834.063680827031
973.5774832569368 5872.582587394394
974.4891666716958 5864.405688542128
975.4006234038698 5868.1655695351255
976.3118535198955 5848.903512497576
977.2228570861935 5906.67484296353
978.1336341691494 5840.908938981271
979.0441848351202 5760.359062089761
979.9545091504333 5904.562125375439
980.864607181391 5892.45210613853
981.7744789942699 5889.12929110832
982.6841246553086 5934.71290028686
983.5935442307236 5810.444563636384
984.5027377867027 5811.365995697624
985.4117053894024 5904.991250799479
986.3204471049557 5782.257122785421
987.2289629994648 5889.851774503744
988.1372531390007 5922.125636662603
989.0453175896091 5864.775652346881
989.9531564173067 5949.369257899707
990.860769688079 5815.074381824605
991.7681574678918 5845.8856625789485
992.6753198226706 5830.7747688186355
993.582256818323 5794.07779498412
994.4889685207218 5831.66877781768
995.3954549957143 5930.564921777038
996.301716309119 5862.5816996920275
997.2077525267232 5850.398119384571
998.1135637142943 5890.588478523544
999.0191499375615 5982.602441225758
999.924511262232 5854.197731627368
1000.8296477539861 5879.4657602350035
1001.7345594784656 5879.801814538254
1002.6392465012996 5821.4774485797325
1003.5437088880753 5908.566160876458
1004.4479467043584 5786.562706589435
1005.3519600156869 5736.41383108594
1006.2557488875718 5841.57015756449
1007.1593133854858 5866.051030225396
1008.0626535748888 5802.35894059925
1008.9657695212009 5673.300607236909
1009.8686612898182 5797.75754444591
1010.7713289461135 5849.5026370009455
1011.6737725554212 5822.428965288158
1012.5759921830577 5786.291715919504
1013.4779878943027 5878.556632307718
1014.379759754418 5813.381404023276
1015.2813078286254 5771.416557121399
1016.18263218213 5764.428893968498
1017.0837328801026 5782.71394221277
1017.9846099876886 5735.52340332989
1018.8852635700023 5720.899267636788
1019.7856936921362 5687.88581864014
1020.6859004191447 5753.757775275777
1021.5858838160675 5776.683746125272
1022.4856439479063 5681.539934805156
1023.3851808796389 5686.502117606748
1024.2844946762143 5723.894499283336
1025.183585402554 5690.462854302002
1026.082453123554 5540.299090709298
1026.9810979040776 5662.238274455473
1027.8795198089647 5608.4842961530985
1028.777718903024 5688.203885501519
1029.6756952510368 5627.1526037442
1030.5734489177648 5561.04514631771
1031.4709799679313 5728.332414239903
1032.3682884662358 5655.360557191096
1033.2653744773506 5593.427639781205
1034.1622380659192 5515.621020656652
1035.058879296559 5665.341903068899
1035.9552982338591 5661.37772123719
1036.8514949423825 5644.0117799550935
1037.7474694866614 5634.634687221298
1038.6432219312028 5592.781086953854
1039.5387523404825 5672.458630135134
1040.4340607789582 5610.457189876286
1041.3291473110476 5576.310460581943
1042.2240120011465 5661.163095804293
1043.1186549136273 5772.682258348121
1044.0130761128294 5754.731133875224
1044.9072756630649 5653.087342372368
1045.8012536286205 5751.512054547315
1046.6950100737577 5741.019338522731
1047.588545062701 5812.600138653708
1048.481858659663 5750.270117239887
1049.3749509288118 5776.571322003884
1050.2678219343034 5738.221376030024
1051.1604717402515 5741.483110685934
1052.0529004107575 5691.35946619677
1052.9451080098825 5809.871401391631
1053.8370946016694 5752.188233128889
1054.7288602501267 5774.240101243968
1055.6204050192446 5732.310497085178
1056.511728972977 5665.485187106693
1057.402832175254 5637.985122060488
1058.2937146899785 5621.349754164779
1059.1843765810263 5582.802192218116
1060.0748179122456 5713.409987387194
1060.9650387474576 5557.0491683644495
1061.855039150456 5701.417751886479
1062.7448191850071 5656.8170122400825
1063.6343789148505 5564.523570199631
1064.5237184037014 5715.017078496502
1065.412837715241 5620.754778326339
1066.3017369131267 5579.917946037833
1067.190416060992 5605.725133119222
1068.0788752224398 5495.970020065908
1068.9671144610438 5555.299589677363
1069.8551338403558 5515.7062832648035
1070.7429334239023 5586.66592455727
1071.6305132751695 5512.7928030228595
1072.517873457633 5568.365724095796
1073.4050140347335 5527.639521213651
1074.2919350698776 5535.325294185235
1075.1786366264623 5538.594812053062
1076.0651187678395 5547.496060335045
1076.95138155735 5514.944989681661
1077.8374250582929 5592.973964185994
1078.7232493339507 5579.7548140388735
1079.608854447577 5472.053076449499
1080.4942404623907 5559.269970721953
1081.3794074415982 5589.117789037516
1082.2643554483657 5596.570019959184
1083.149084545841 5512.4342412355345
1084.033594797138 5465.02647170781
1084.9178862653516 5550.199216491563
1085.8019590135427 5608.083868419315
1086.6858131047484 5524.98126873573
1087.5694486019802 5650.623762391276
1088.4528655682225 5573.909655221358
1089.3360640664287 5653.610991108014
1090.2190441595321 5598.968089622009
1091.1018059104317 5642.441778298388
1091.98434938201 5729.985434318165
1092.866674637111 5738.139195485459
1093.748781738559 5654.187951954328
1094.6306707491512 5619.172589821464
1095.5123417316554 5630.103730234021
1096.3937947488157 5640.190126665655
1097.2750298633455 5637.649843464268
1098.156047137938 5533.077974760838
1099.0368466352556 5567.668717823455
1099.9174284179317 5688.28525605958
1100.7977925485757 5539.579968594048
1101.6779390897755 5484.013587105486
1102.5578681040806 5537.329355396525
1103.4375796540226 5501.918238980574
1104.3170738021054 5463.550106822298
1105.1963506108077 5391.084049502189
1106.0754101425773 5442.245713401144
1106.9542524598382 5374.6686051891265
1107.8328776249855 5394.998824837376
1108.7112857003904 5435.000349727108
1109.5894767483987 5404.468447105521
1110.4674508313292 5506.88409066894
1111.3452080114657 5384.369977429113
1112.2227483510815 5442.915016866793
1113.1000719124077 5527.567476490144
1113.9771787576592 5442.655202162099
1114.854068949022 5419.933314612071
1115.7307425486542 5461.605148920516
1116.6071996186893 5397.704925962103
1117.483440221229 5495.539555949664
1118.3594644183577 5452.263465714032
1119.235272272128 5431.6538685658
1120.1108638445658 5434.621925279312
1120.9862391976712 5497.5693813548405
1121.8613983934229 5536.592277267135
1122.7363414937627 5526.2130297332
1123.6110685606182 5498.938291309746
1124.485579655884 5541.1128144986005
1125.359874841426 5540.080921799787
1126.2339541790916 5573.6907686858385
1127.1078177306936 5716.919989888482
1127.9814655580267 5514.646217073694
1128.854897722851 5522.71672962669
1129.7281142869106 5542.526616758776
1130.6011153119125 5603.453028678336
1131.473900859548 5614.276004363517
1132.3464709914697 5578.625382202289
1133.2188257693178 5514.648217205814
1134.0909652546961 5513.954508355691
1134.96288950919 5447.384403658951
1135.8345985943506 5483.450415961869
1136.7060925717087 5436.775374263896
1137.57737150277 5455.300542350742
1138.4484354490069 5441.35885591093
1139.3192844718778 5366.053143114541
1140.1899186327992 5299.610193353322
1141.060337993178 5445.519843622421
1141.930542614382 5370.872242954977
1142.8005325577597 5302.277350039284
1143.670307884635 5206.525580676479
1144.5398686563003 5332.164359479693
1145.409214934025 5261.887349656058
1146.2783467790541 5232.059264992639
1147.1472642526023 5115.920534182013
1148.0159674158622 5206.883824942202
1148.8844563300026 5227.21448600913
1149.7527310561618 5218.097314195495
1150.6207916554504 5138.81046677013
1151.4886381889592 5080.220598698622
1152.3562707177498 5140.703641713134
1153.2236893028585 5139.88881397573
1154.090894005296 5093.391569631005
1154.9578848860474 5173.5825141313635
1155.8246620060709 5102.919676157582
1156.6912254262988 5086.101289032103
1157.5575752076438 5013.130986921864
1158.42371141098 5136.313032480535
1159.2896340971656 5115.87807663187
1160.1553433270346 5084.99851462199
1161.0208391613887 5194.151526085231
1161.8861216610057 5175.804165332798
1162.75119088664 5130.85664785771
1163.6160468990201 5046.841255875838
1164.4806897588442 5086.549025383259
1165.3451195267917 5103.414532395176
1166.2093362635114 5057.865322566895
1167.0733400296285 5156.797318659151
1167.9371308857444 5087.945308132874
1168.8007088924278 5070.783145315976
1169.6640741102328 5199.162585938492
1170.5272265996773 5052.827528481176
1171.390166421259 5041.325083464697
1172.252893635452 5140.509684933516
1173.1154083026995 5210.555747966394
1173.977710483421 5189.776818237309
1174.8398002380145 5138.148497903727
1175.7016776268483 5140.84255809304
1176.563342710264 5153.363719904002
1177.4247955485826 5099.315430151829
1178.2860362020947 5114.612555544676
1179.147064731069 5014.69370559581
1180.0078811957483 5227.028987574858
1180.8684856563486 5136.137951051051
1181.7288781730604 5130.703051612973
1182.589058806052 5115.978662179725
1183.4490276154593 5230.376246006006
1184.3087846614017 5033.136844801973
1185.1683300039676 5165.66734238749
1186.027663703222 5325.140090332634
1186.8867858192025 5228.617428182011
1187.7456964119228 5250.113000171517
1188.6043955413716 5274.890532658713
1189.4628832675116 5280.475194509387
1190.3211596502842 5290.117852638676
1191.179224749596 5365.838548568492
1192.0370786253388 5119.067589666373
1192.8947213373758 5399.556436202405
1193.7521529455407 5409.656034587165
1194.6093735096438 5302.7739657139555
1195.466383089477 5263.436251146524
1196.3231817447977 5295.753163969177
1197.1797695353398 5398.948262918982
1198.0361465208189 5289.90285435421
1198.8923127609214 5268.228507060485
1199.7482683153048 5343.315347581172
1200.6040132436028 5393.524446267129
1201.459547605431 5314.17721517784
1202.3148714603722 5382.073392400471
1203.1699848679855 5345.564457059337
1204.0248878878065 5431.749050457337
1204.8795805793507 5280.845966359962
1205.7340630020935 5346.649158532395
1206.5883352155033 5392.279360125618
1207.4423972790064 5320.009688820907
1208.2962492520237 5265.873411718173
1209.1498911939307 5375.108963851273
1210.0033231640937 5341.384306613225
1210.8565452218427 5420.779119667486
1211.7095574264913 5137.840184764392
1212.5623598373222 5189.703975111272
1213.4149525135963 5196.405959355639
1214.2673355145507 5258.106130117892
1215.1195088993936 5105.9426668788265
1215.9714727273113 5245.921247884903
1216.8232270574663 5267.925464314307
1217.6747719489904 5160.422870722609
1218.5261074609934 5228.985639756722
1219.3772336525653 5141.354966291858
1220.2281505827668 5244.52514411413
1221.0788583106296 5267.485566250139
1221.9293568951707 5105.361920436851
1222.7796463953746 5068.377260427436
1223.629726870202 5125.618762658494
1224.4795983785934 5167.39800928254
1225.3292609794553 5046.660791819662
1226.1787147316809 5074.585728290678
1227.0279596941327 5054.022281481065
1227.8769959256424 5098.734854286248
1228.7258234850306 5059.776045110536
1229.5744424310833 4924.484514009946
1230.422852822563 5006.199206108986
1231.2710547182105 5079.773434753933
1232.119048176739 4970.192264855195
1232.9668332568417 4844.164437234284
1233.8144100171812 5002.481324028655
1234.6617785163999 5020.663748699251
1235.508938813111 4835.769810910894
1236.3558909659114 4850.346332988033
1237.2026350333617 5052.260953709783
1238.049171074008 4993.263326553237
1238.8954991463652 4905.681550593108
1239.741619308932 4841.44768378952
1240.587531620169 4892.67282765578
1241.4332361385277 4942.740562893066
1242.2787329224248 4878.378788929707
1243.1240220302534 4817.432020103146
1243.9691035203869 4819.714379459769
1244.813977451171 4941.770131467846
1245.6586438809263 4882.332020707857
1246.5031028679496 4871.547975110815
1247.3473544705157 4886.615694790985
1248.1913987468706 4902.860182205811
1249.0352357552383 4783.341881267823
1249.8788655538228 4798.927488457388
1250.7222882007918 4909.863462184365
1251.565503754302 4864.545535088355
1252.4085122724755 4682.047533545311
1253.2513138134182 4857.880812851607
1254.0939084352049 4846.719646894362
1254.9362961958905 4835.205389846217
1255.7784771535007 4819.413462767543
1256.6204513660432 4894.374890087509
1257.4622188915 4998.699360296144
1258.3037797878242 4856.3660836413455
1259.1451341129468 4759.773854853756
1259.9862819247755 4889.145616385299
1260.8272232811978 4822.0813982490245
1261.6679582400666 4857.9452628804775
1262.5084868592203 4762.570644621692
1263.34880919647 4797.810681347028
1264.1889253095997 4942.775507218812
1265.0288352563712 4814.202439648641
1265.8685390945266 4831.63948084644
1266.7080368817751 4907.519939544752
1267.5473286758115 4913.870820858909
1268.386414534294 4929.194467824813
1269.2252945148703 4759.217329985366
1270.0639686751547 4845.695958830309
1270.9024370727402 4801.349448694282
1271.7406997651997 4811.231798200453
1272.5787568100714 4785.271672084969
1273.4166082648808 4793.880946168843
1274.2542541871244 4853.444898224354
1275.091694634275 4934.6460556200045
1275.9289296637817 4682.908205705322
1276.7659593330663 4940.716073788279
1277.6027836995308 4824.586025745305
1278.4394028205552 4951.854147512144
1279.2758167534867 4898.986341392925
1280.112025555658 4781.898350576628
1280.9480292843746 4804.771631119922
1281.7838279969128 4774.696336503564
1282.6194217505326 4834.501023207952
1283.4548106024686 4657.91273201486
1284.289994609926 4796.653529957487
1285.1249738300921 4907.431298305976
1285.959748320127 4770.589726106092
1286.7943181371702 4869.012605733754
1287.6286833383328 4769.180657513733
1288.4628439807038 4863.001237147207
1289.2968001213521 4787.485478611632
1290.1305518173194 4755.909533004393
1290.9640991256183 4910.247358751236
1291.7974421032523 4803.894814078836
1292.630580807183 4745.465990724483
1293.463515294361 4826.675891129821
1294.29624562171 4940.519617374748
1295.12877184613 4900.69043402495
1295.961094024493 4787.2227873589745
1296.79321221365 4840.539563005471
1297.6251264704333 4884.063801557151
1298.4568368516466 5037.549684613824
1299.2883434140658 4938.654673086117
1300.1196462144526 4873.3137368186635
1300.9507453095375 5021.336247813241
1301.7816407560313 5032.542113745127
1302.6123326106172 4979.64127169538
1303.4428209299622 4928.645116411694
1304.2731057707024 5130.173575751383
1305.1031871894502 4994.39653721762
1305.933065242798 5020.556310645016
1306.7627399873181 5082.661001291114
1307.5922114795467 5133.786719622074
1308.4214797760123 5073.267755810883
1309.2505449332057 5069.120976533605
1310.0794070076026 5004.668039915893
1310.9080660556538 5139.700515292001
1311.736522133786 5100.022568967273
1312.5647752983987 5047.585053503653
1313.3928256058734 4941.65163360679
1314.2206731125661 5102.780359708
1315.048317874809 5093.352416742938
1315.8757599489109 5083.425167387895
1316.7029993911547 5067.442518211058
1317.5300362578055 5175.154626632864
1318.356870605101 5054.239560663906
1319.183502489257 5038.381015149267
1320.0099319664623 5081.287965500555
1320.836159092889 5102.129313355785
1321.66218392468 5175.860737648798
1322.4880065179532 4988.654195846878
1323.3136269288134 5052.056671644455
1324.1390452133292 5179.7219263077
1324.9642614275563 5159.165635740706
1325.7892756275214 5030.121830223559
1326.6140878692295 5063.334081732394
1327.4386982086617 5230.612483323345
1328.2631067017755 5069.220217476736
1329.0873134045069 5088.18437805297
1329.911318372764 5019.978328953176
1330.735121662441 5068.0764387957
1331.558723329399 4983.39460088975
1332.3821234294774 4999.342418821664
1333.2053220185007 5022.371449867288
1334.0283191522612 4923.287427501043
1334.851114886529 4931.37340501649
1335.6737092770582 4920.0178705881135
1336.4961023795695 5031.060334403904
1337.3182942497697 4840.528578621898
1338.1402849433325 4884.533315542967
1338.962074515921 4800.514612618152
1339.7836630231632 4753.588231901576
1340.6050505206676 4922.264346877376
1341.426237064028 4897.169282511832
1342.2472227088037 4788.370450584482
1343.0680075105338 4652.005725418558
1343.888591524741 4704.25509515105
1344.7089748069138 4705.8312915844535
1345.5291574125276 4691.337727555255
1346.3491393970307 4586.060877075406
1347.168920815846 4701.164017245885
1347.9885017243778 4705.26159943573
1348.8078821780036 4665.13281885284
1349.6270622320844 4585.344643625971
1350.4460419419447 4587.10272985264
1351.2648213629054 4635.697643707865
1352.0834005502438 4605.120665074796
1352.90177955923 4584.45508092672
1353.7199584451064 4554.435065571294
1354.5379372630887 4623.211009578251
1355.355716068374 4589.236697418959
1356.1732949161305 4560.596575576487
1356.9906738615155 4622.66225771538
1357.8078529596478 4596.410649478931
1358.6248322656375 4659.4585920246855
1359.441611834567 4526.340448822522
1360.2581917214866 4646.4409481941175
1361.0745719814367 4502.658561040604
1361.890752669433 4509.755802064364
1362.7067338404577 4445.088420213382
1363.5225155494845 4564.900525957477
1364.3380978514506 4566.470917575635
1365.1534808012839 4466.391238066155
1365.9686644538815 4376.5941813379595
1366.783648864117 4559.810427978912
1367.5984340868417 4573.58671639701
1368.413020176893 4546.927604923142
1369.2274071890715 4344.347215440249
1370.0415951781652 4552.465530259163
1370.8555841989346 4464.0472194375125
1371.6693743061223 4351.927911444074
1372.48296555444 4374.174374560789
1373.2963579985844 4495.40079869038
1374.1095516932255 4462.7376071268245
1374.9225466930166 4333.536950371016
1375.7353430525782 4347.183187005898
1376.5479408265164 4340.608567590206
1377.36034006941 4430.727157899227
1378.1725408358216 4410.911775648577
1378.9845431802805 4312.492190651013
1379.796347157304 4544.579262249381
1380.6079528213813 4513.032666338984
1381.4193602269788 4346.461277918149
1382.230569428546 4314.736574069526
1383.0415804805016 4369.310357619628
1383.852393437246 4379.929870766403
1384.6630083531563 4364.797047692506
1385.4734252825892 4321.676203101174
1386.2836442798798 4417.676859543915
1387.0936653993322 4334.617042041037
1387.9034886952395 4322.952704861143
1388.713114221864 4359.0909492117535
1389.5225420334482 4339.70889073942
1390.331772184214 4424.232674905097
1391.1408047283585 4231.6478372565925
1391.9496397200564 4345.186742898883
1392.758277213461 4374.583391653362
1393.5667172627054 4329.97139859134
1394.3749599218918 4333.845689808839
1395.1830052451114 4257.683007803726
1395.9908532864265 4315.438322640054
1396.7985040998774 4333.182017344466
1397.6059577394808 4249.257567091771
1398.4132142592352 4298.938718429445
1399.2202737131156 4364.448482324337
1400.027136155073 4395.549888020072
1400.8338016390353 4267.158688588324
1401.6402702189134 4220.8624219866115
1402.446541948586 4324.6643351639905
1403.2526168819204 4318.346358220502
1404.058495072757 4227.67728968662
1404.8641765749107 4275.272505306953
1405.6696614421799 4329.649263343099
1406.4749497283356 4449.533283721475
1407.280041487129 4246.635162781019
1408.084936772295 4204.2843805894945
1408.8896356375335 4402.759775420354
1409.6941381365323 4343.326784531449
1410.498444322955 4207.681687345204
1411.3025542504402 4244.485564009823
1412.106467972606 4340.703840436837
1412.9101855430508 4383.405364903107
1413.7137070153458 4187.717363002392
1414.5170324430437 4288.759460080351
1415.320161879672 4360.750820001484
1416.1230953787435 4435.511375558473
1416.925832993742 4259.179056671058
1417.7283747781275 4203.844699205672
1418.5307207853439 4409.190726633874
1419.3328710688093 4350.396517488851
1420.134825681922 4229.0035339224905
1420.9365846780584 4245.5584885737935
1421.7381481105713 4394.396965630572
1422.539516032788 4337.234715150881
1423.3406884980232 4234.584738619966
1424.1416655595604 4250.945712582679
1424.942447270665 4252.910527726646
1425.7430336845828 4312.8570230273435
1426.5434248545298 4253.9231340370325
1427.3436208337116 4325.561129789308
1428.143621675301 4309.985085191198
1428.9434274324558 4476.372756351938
1429.7430381583108 4207.433041434642
1430.5424539059713 4311.786031551243
1431.3416747285337 4412.4820704764115
1432.1407006790632 4423.989626934216
1432.9395318106053 4327.403799631447
1433.7381681761835 4355.148763389172
1434.5366098288014 4361.394871042819
1435.3348568214424 4548.271495675873
1436.1329092070573 4424.385026368862
1436.9307670385879 4446.7523885780865
1437.7284303689503 4588.099077995366
1438.5258992510335 4497.269294858291
1439.3231737377118 4429.111027151004
1440.1202538818306 4512.125594708543
1440.9171397362225 4453.297410294048
1441.7138313536925 4449.155577958119
1442.5103287870243 4373.262035844288
1443.3066320889775 4216.7232233507075
1444.1027413122956 4523.176794937883
1444.8986565096966 4383.407915730297
1445.694377733882 4401.768871360854
1446.4899050375207 4225.625028599494
1447.2852384732687 4403.491732005228
1448.0803780937622 4229.424055413807
1448.8753239516063 4226.134360004498
1449.6700760993954 4105.318169145328
1450.464634589689 4294.475199428336
1451.2589994750397 4443.495733309502
1452.0531708079689 4146.9878929608885
1452.8471486409799 4112.508908140896
1453.6409330265524 4203.799827065326
1454.4345240171442 4140.905359179844
1455.2279216651987 4127.052031327274
1456.0211260231263 4117.251098724207
1456.8141371433194 4342.570449329904
1457.6069550781594 4199.737467388433
1458.3995798799897 4033.554745482744
1459.1920116011424 3977.4165560573338
1459.98425029393 3956.0355107927367
1460.7762960106338 4053.720580852433
1461.5681488035225 4000.841537154842
1462.3598087248392 4058.958575591354
1463.1512758268036 4112.420342398141
1463.942550161617 3940.3411929594185
1464.7336317814625 3937.723554525509
1465.524520738496 4025.562238448341
1466.3152170848552 4017.749118390715
1467.1057208726506 3883.6804229173586
1467.8960321539817 3830.652590068787
1468.6861509809169 3831.8380155178047
1469.4760774055085 3778.394466476402
1470.265811479785 3785.020719664261
1471.055353255755 3826.0521570615047
1471.844702785409 3743.3104966166575
1472.6338601207044 3862.265251366863
1473.4228253135934 3861.7325817866645
1474.2115984159936 3736.358285256441
1475.0001794798063 3671.6109197900755
1475.7885685569145 3822.7800026472614
1476.576765699172 3789.621422032459
1477.3647709584238 3714.100662045063
1478.1525843864802 3891.750346531794
1478.9402060351367 3779.4366547897334
1479.7276359561693 3794.1810142846757
1480.514874201328 3710.7499824927554
1481.3019208223468 3746.3359688044884
1482.0887758709323 3581.563065198462
1482.8754393987747 3817.37195523083
1483.6619114575406 3629.4055840788874
1484.4481920988783 3722.4003003560647
1485.2342813744108 3684.763843599069
1486.0201793357446 3766.860154832598
1486.8058860344572 3575.3187060823557
1487.591401522117 3604.279819897278
1488.3767258502594 3695.672374912134
1489.1618590704056 3767.034186712894
1489.9468012340494 3505.7036459694477
1490.7315523926754 3701.3245858451555
1491.5161125977356 3672.2079174441396
1492.3004819006637 3646.55095818282
1493.084660352877 3596.352170824016
1493.8686480057622 3574.651317848933
1494.6524449106964 3723.4918876173733
1495.4360511190262 3774.585936112341
1496.219466682087 3653.737227755339
1497.0026916511779 3695.2811872502143
1497.7857260775945 3714.747524100652
1498.5685700125996 3653.460718614196
1499.3512235074395 3537.643434997298
1500.133686613337 3592.4214248527983
1500.9159593814966 3534.061093384333
1501.698041863101 3773.184347751333
1502.4799341093094 3519.5066080858296
1503.2616361712662 3510.072877839009
1504.043148100087 3570.5718439991856
1504.8244699468742 3677.700606548776
1505.6056017626997 3475.7744481752984
1506.3865435986281 3528.5968204645274
1507.1672955056893 3607.0183647035215
1507.9478575348967 3529.8712940087016
1508.7282297372512 3635.744516959471
1509.5084121637192 3615.2350986554275
1510.2884048652577 3565.3987384359634
1511.0682078927948 3407.8156101098075
1511.8478212972423 3497.163652342081
1512.6272451294917 3493.33799295538
1513.4064794404076 3498.247636896352
1514.1855242808433 3663.3114760416806
1514.9643797016215 3513.9902956971446
1515.743045753552 3582.854971142052
1516.5215224874191 3638.460976006484
1517.2998099539836 3459.310477070269
1518.077908203999 3497.6676772063342
1518.8558172881785 3539.382297272275
1519.633537257234 3636.895457784639
1520.4110681618404 3538.2433356865213
1521.1884100526604 3590.445696038186
1521.9655629803365 3512.6056771986214
1522.7425269954856 3699.5177751353513
1523.5193021487103 3744.649183031697
1524.2958884905856 3520.8227719963857
1525.0722860716687 3604.983008575763
1525.848494942502 3500.229273523712
1526.624515153595 3464.642924262109
1527.4003467554485 3605.3125085411207
1528.175989798534 3585.6772833877285
1528.9514443333064 3550.601211905173
1529.726710410203 3715.5322902918315
1530.5017880796331 3503.600189340456
1531.276677391992 3520.040988608539
1532.0513783976457 3651.793179590727
1532.825891146953 3553.3767963029254
1533.6002156902414 3623.379007367118
1534.3743520778207 3543.2602483101655
1535.1483003599806 3527.3709613098727
1535.9220605869923 3491.7560992114486
1536.6956328091019 3589.3547190305244
1537.4690170765407 3498.9598750317687
1538.242213439511 3533.882651152843
1539.015221948208 3544.2002927201734
1539.78804265279 3565.8027387073184
1540.560675603405 3490.475483122672
1541.3331208501804 3599.6502402039537
1542.1053784432224 3488.4251088563724
1542.8774484326168 3495.834428010106
1543.649330868422 3521.815189508687
1544.4210258006842 3506.6161398165445
1545.1925332794308 3603.212721317245
1545.9638533546604 3462.7898412356835
1546.7349860763552 3427.4268210745954
1547.5059314944829 3680.7027627226917
1548.27668965898 3535.7173452808174
1549.0472606197673 3569.842495981491
1549.817644426752 3462.2446065729455
1550.5878411298072 3562.291310557362
1551.3578507787988 3542.995816214404
1552.1276734235635 3431.75607942543
1552.8973091139233 3547.0373839980275
1553.6667578996767 3596.976643414623
1554.436019830604 3472.209842058552
1555.20509495646 3412.189983058214
1555.9739833269869 3492.8717341042966
1556.7426849919011 3500.7181808360956
1557.511200000903 3672.2749187330746
1558.2795284036674 3666.4543775366155
1559.0476702498509 3569.8338530906176
1559.8156255890954 3611.9863585983912
1560.5833944710157 3740.631274238812
1561.3509769452048 3528.6351486027
1562.1183730612447 3571.5168719982053
1562.8855828686865 3615.426240840393
1563.6526064170703 3781.332600390075
1564.4194437559127 3661.572668421887
1565.1860949347047 3602.9406362642453
1565.9525600029283 3750.539176129024
1566.7188390100328 3710.3394816925866
1567.4849320054564 3543.770525372921
1568.250839038612 3634.24473237711
1569.0165601588997 3619.4734898116985
1569.7820954156887 3676.97390892503
1570.5474448583373 3503.7629000264556
1571.31260853618 3541.007415708705
1572.0775864985299 3498.505793902475
1572.8423787946813 3629.798689489663
1573.6069854739108 3577.2167901666908
1574.371406585471 3680.215133284602
1575.1356421785986 3765.688854318766
1575.899692302506 3514.4963273218577
1576.6635570063845 3572.9564441442344
1577.4272363394157 3592.3692368982192
1578.190730350747 3530.3351096274732
1578.9540390895163 3664.2981947446324
1579.7171626048384 3564.407849692479
1580.480100945806 3551.2111399094165
1581.2428541614918 3625.564453039299
1582.0054223009538 3645.4317415067853
1582.767805413223 3571.49071964716
1583.5300035473156 3578.058105648865
1584.292016752228 3722.2967912563813
1585.0538450769309 3543.9685203759313
1585.8154885703807 3536.8760548247747
1586.5769472815136 3441.3470163468605
1587.3382212592405 3507.6561758456146
1588.099310552463 3696.7640273626835
1588.8602152100484 3498.3305533512153
1589.6209352808564 3576.7838504520137
1590.3814708137234 3411.581599071817
1591.14182185746 3741.9446758973254
1591.9019884608679 3510.1448694837454
1592.6619706727215 3399.8167756792404
1593.4217685417734 3573.9269273522978
1594.1813821167616 3563.629152675037
1594.9408114464022 3374.5211260140895
1595.7000565793933 3426.084262324233
1596.459117564409 3458.565140045219
1597.2179944501113 3354.9855592850136
1597.9766872851324 3318.83107891721
1598.735196118092 3472.029062128401
1599.4935209975883 3438.222797089733
1600.2516619721973 3443.000361115583
1601.0096190904787 3306.6473079988486
1601.7673924009723 3376.6148055487074
1602.524981952196 3361.629195786227
1603.2823877926476 3319.9047395883404
1604.0396099708087 3327.1916075454333
1604.7966485351371 3213.0741252533257
1605.5535035340745 3299.2655347573345
1606.3101750160404 3427.4580028262026
1607.0666630294363 3181.314018097492
1607.822967622642 3252.6570340056232
1608.5790888440224 3304.605100346278
1609.3350267419137 3467.4367093724627
1610.0907813646445 3230.269785974556
1610.8463527605145 3257.661175253976
1611.601740977805 3298.3039453593497
1612.356946064785 3215.0024779185574
1613.1119680696902 3203.299292771938
1613.8668070407512 3214.39762313229
1614.6214630261748 3231.5882692872337
1615.375936074137 3326.5752247838477
1616.1302262328118 3262.6353991530505
1616.8843335503425 3369.6328579720202
1617.638258074854 3193.3875476264307
1618.391999854457 3362.6527920233793
1619.1455589372363 3401.7889021015776
1619.8989353712623 3316.1995188727074
1620.65212920458 3194.591591314451
1621.4051404852235 3172.1063753167273
1622.1579692611976 3127.182583817179
1622.9106155804966 3172.8346256154587
1623.663079491087 3234.4044698849802
1624.4153610409248 3240.9758259006826
1625.1674602779385 3253.1686815164376
1625.9193772500403 3187.5052856695797
1626.6711120051277 3360.9164654028705
1627.4226645910676 3184.827191596326
1628.174035055721 3188.989693251286
1628.9252234469168 3253.179309273337
1629.676229812474 3174.82654945716
1630.4270542001905 3364.4328913947465
1631.1776966578382 3314.680120430181
1631.9281572331747 3212.7589934481557
1632.678435973945 3321.6804588797627
1633.4285329278573 3317.9680377531186
1634.1784481426203 2992.282659236115
1634.9281816659113 3105.6003674749722
1635.677733545388 3257.2480889815033
1636.4271038286934 3162.0885240437265
1637.176292563452 3204.8019708010775
1637.9252997972635 3201.941714375921
1638.674125577716 3271.7856370648815
1639.4227699523672 3337.8785534737763
1640.171232968767 3109.547827568351
1640.9195146744423 3219.757793497794
1641.6676151168977 3263.521674426392
1642.4155343436178 3364.938379303322
1643.1632724020765 3191.707815028916
1643.9108293397167 3320.8189585379455
1644.658205203974 3198.932692115578
1645.4054000422566 3586.0179312641653
1646.1524139019566 3147.617022829128
1646.8992468304423 3179.9143431638286
1647.6458988750728 3174.911051947714
1648.3923700831765 3251.450639509136
1649.1386605020743 3294.390840837858
1649.8847701790564 3318.2814886103943
1650.6306991614038 3257.4382115037774
1651.3764474963682 3287.481158590713
1652.1220152311944 2947.243939838253
1652.867402413096 3321.4120293332257
1653.6126090892776 3224.5170851322537
1654.3576353069184 3279.6434458318154
1655.1024811131829 3225.803077588035
1655.8471465552066 3249.9185415617303
1656.5916316801213 3343.2163810393868
1657.3359365350298 3241.636998816131
1658.0800611670165 3037.4108041074746
1658.824005623148 3140.534306649954
1659.5677699504722 3159.372385248199
1660.3113541960192 3200.793504694288
1661.054758406799 3238.126530413281
1661.7979826297997 3059.6857606219005
1662.5410269119966 3059.440284890759
1663.283891300338 3018.163634114464
1664.0265758417645 3124.7950482437086
1664.7690805831826 3148.1372909955803
1665.5114055714948 3041.933958722463
1666.2535508535748 3260.198267516359
1666.9955164762814 3064.162001121865
1667.7373024864555 3058.985894407025
1668.478908930916 3109.6158845399077
1669.220335856462 3118.195780897027
1669.9615833098778 2995.874323690681
1670.7026513379296 3032.6082801554307
1671.44353998736 3169.0275344996335
1672.1842493048916 2978.9346919508616
1672.9247793372379 2957.6489470775455
1673.6651301310812 2981.527267688212
1674.4053017330934 3041.4071589315395
1675.1452941899242 3042.307886457096
1675.885107548207 2765.0727246294387
1676.6247418545518 2816.624311700051
1677.3641971555535 2912.62494135258
1678.1034734977893 3006.469933138237
1678.8425709278108 3037.0720965259497
1679.5814894921605 2905.816471436804
1680.320229237359 2926.6262113832427
1681.0587902098978 2964.584048478745
1681.7971724562685 2946.330763204736
1682.5353760229264 2842.9660935064326
1683.2734009563173 3049.4705797785737
1684.0112473028657 2843.591041334276
1684.7489151089794 2867.0623154179516
1685.4864044210462 2986.712832725557
1686.2237152854377 2768.369281796021
1686.960847748498 3029.4712931077042
1687.6978018565642 2774.934683482249
1688.434577655944 2780.9711236321336
1689.1711751929379 2772.612223186389
1689.9075945138156 2966.82810210166
1690.6438356648396 2829.318561253217
1691.3798986922448 2628.21252230188
1692.1157836422499 2916.513630780618
1692.851490561059 2719.9269428598473
1693.587019494853 2832.6497425809603
1694.3223704897991 2688.5476950662196
1695.0575435920364 2694.444668662647
1695.792538847696 2879.1160736331967
1696.527356302886 2738.779617788075
1697.2619960036936 2675.754138366816
1697.9964579961907 2720.9343902279024
1698.730742326432 2597.9385948483828
1699.4648490404488 2679.1119264942195
1700.1987781842563 2717.2144149375185
1700.9325298038548 2699.7211492552765
1701.6661039452174 2760.724270724574
1702.3995006543082 2749.9825608674428
1703.1327199770658 2771.645060493985
1703.865761959416 2630.350141184001
1704.598626647261 2803.709681606566
1705.3313140864866 2611.727093652459
1706.0638243229587 2706.0495085910675
1706.7961574025303 2741.6055504197366
1707.528313371029 2676.8438280155456
1708.260292274268 2596.35805361502
1708.9920941580403 2624.21984987045
1709.7237190681226 2650.451266858784
1710.4551670502697 2626.9518418074936
1711.18643815022 2645.500814637007
1711.9175324136959 2896.6596532273584
1712.6484498863938 2649.2664482862915
1713.379190614005 2600.5118187728763
1714.109754642188 2627.591022357386
1714.8401420165883 2582.1159188481006
1715.570352782839 3031.188388450185
1716.3003869865497 2596.3209897791075
1717.0302446733076 2554.007690898046
1717.7599258886876 2569.7378762341814
1718.4894306782444 2843.6316618995766
1719.2187590875183 2580.208753314233
1719.9479111620203 2740.8737805482515
1720.6768869472544 2473.125582891771
1721.4056864887025 2699.876255856173
1722.1343098318284 2771.159003359315
1722.8627570220742 2664.81073940303
1723.591028104871 2528.221395915552
1724.3191231256242 2402.5918961351044
1725.0470421297232 2510.4699554992144
1725.7747851625427 2596.505503045101
1726.5023522694337 2606.3990778642196
1727.2297434957363 2500.1051533020736
1727.9569588867635 2402.6224250904042
1728.6839984878152 2595.3550160431532
1729.4108623441734 2389.2800069795126
1730.1375505011038 2524.439872456846
1730.8640630038426 2504.477927056295
1731.5903998976264 2390.310284209073
1732.316561227657 2507.880899270597
1733.0425470391274 2422.833321196406
1733.7683573772065 2527.417400264566
1734.4939922870508 2457.5343398020664
1735.2194518137949 2604.1898568468405
1735.9447360025606 2496.706125391314
1736.669844898439 2484.85057798035
1737.3947785465189 2356.035223930082
1738.1195369918605 2277.175755051448
1738.8441202795093 2495.3160361208297
1739.5685284544943 2536.144443336347
1740.292761561821 2578.402150833678
1741.0168196464838 2561.6189505302127
1741.7407027534518 2515.641836174343
1742.464410927687 2468.08956786683
1743.187944214118 2400.599309775926
1743.9113026576688 2389.196861343273
1744.634486303241 2438.635112048511
1745.3574951957125 2456.792690356819
1746.0803293799509 2615.2277277115854
1746.8029889008048 2550.6719973843583
1747.5254738031017 2362.699519990145
1748.2477841316504 2449.2077648250533
1748.969919931249 2410.7166079463664
1749.6918812466665 2411.5861618351455
1750.4136681226646 2562.6783813953293
1751.1352806039777 2542.0444073423755
1751.856718735331 2317.3853157675007
1752.5779825614281 2241.463053801992
1753.2990721269507 2515.3751598931185
1754.0199874765676 2393.6809265455427
1754.7407286549314 2317.6524184231343
1755.4612957066693 2377.087339154989
1756.1816886763954 2361.4581277302705
1756.9019076087097 2385.394774085182
1757.6219525481865 2457.5876820860894
1758.3418235393856 2410.6159758451477
1759.061520626854 2350.83986825104
1759.7810438551096 2446.767357630676
1760.5003932686614 2242.491116061156
1761.2195689119999 2365.848426707203
1761.938570829594 2450.1758857536634
1762.657399065898 2480.5673645022844
1763.376053665348 2282.57300742357
1764.0945346723602 2239.358905708412
1764.812842131334 2440.912919456754
1765.5309760866512 2329.5917673307945
1766.2489365826787 2298.5963805345045
1766.9667236637597 2190.350352452806
1767.684337374223 2271.494695782398
1768.401777758383 2307.8402365446336
1769.1190448605284 2219.3293548880793
1769.836138724937 2216.2467973495764
1770.5530593958665 2432.882498657841
1771.2698069175603 2443.5840241158994
1771.9863813342326 2369.2170217624525
1772.702782690094 2284.2282659725906
1773.4190110293293 2484.0564928353756
1774.1350663961111 2357.1928538700363
1774.8509488345844 2309.6864376947196
1775.5666583888924 2425.6188966536897
1776.2821951031437 2426.5319360558997
1776.9975590214362 2317.047360773503
1777.7127501878585 2334.6650622986676
1778.4277686464684 2388.4255335071875
1779.1426144413108 2379.9009746299116
1779.8572876164162 2324.1908409665584
1780.571788215797 2178.6131661358004
1781.2861162834415 2301.260138488955
1782.0002718633277 2355.835819009032
1782.7142549994132 2410.5094176289663
1783.4280657356376 2312.87774292924
1784.141704115922 2305.2701384529837
1784.855170184177 2374.1830370342345
1785.5684639842839 2205.5102655677947
1786.2815855601148 2187.6924611517916
1786.9945349555237 2410.139397560786
1787.707312214343 2254.8608036826545
1788.4199173803918 2518.457061153658
1789.132350497468 2258.7475530701354
1789.8446116093583 2148.9521859419124
1790.556700759822 2237.4059163250013
1791.2686179926077 2265.9304027537246
1791.9803633514493 2338.5477970079887
1792.6919368800554 2175.614467431315
1793.4033386221236 2269.4471289397543
1794.1145686213295 2318.4763876740612
1794.8256269213307 2437.1128839905637
1795.536513565774 2336.47296249185
1796.247228598284 2158.5450404224316
1796.9577720624693 2259.275151387664
1797.6681440019165 2355.2521946794022
1798.3783444602013 2269.602550188375
1799.0883734808776 2366.4363942196856
1799.7982311074884 2389.9888435205607
1800.5079173835475 2305.4123117655836
1801.2174323525633 2294.827209962645
1801.9267760580187 2243.6286718500896
1802.635948543386 2325.302986648392
1803.3449498521113 2243.2723489507393
1804.0537800276325 2278.588486941252
1804.7624391133668 2234.4560375422075
1805.47092715271 2126.4995894815524
1806.1792441890484 2206.6424065614087
1806.8873902657433 2313.4973115383536
1807.5953654261448 2228.7895590474436
1808.3031697135812 2148.9778927461134
1809.0108031713662 2153.8436783984316
1809.71826584279 2130.38255166486
1810.425557771141 2196.718854409294
1811.1326789996747 2488.76043856062
1811.839629571632 2162.5857684863026
1812.5464095302468 2206.187797453208
1813.2530189187182 2178.824686519397
1813.959457780249 2297.4294641897204
1814.6657261580076 2294.2041729750576
1815.371824095153 2215.8134458820887
1816.0777516348262 2368.8798480126247
1816.78350882015 2033.90063725754
1817.4890956942272 1978.050966597701
1818.1945123001533 2160.7293478258835
1818.8997586809928 2187.894074585861
1819.6048348798067 2026.5771068336858
1820.3097409396287 2238.9330147402993
1821.0144769034796 2378.4608802321773
1821.7190428143622 2360.2434387898365
1822.423438715261 2200.8450770878285
1823.1276646491478 2143.6518037462693
1823.8317206589727 2134.1964679653074
1824.5356067876692 2187.6698599217852
1825.2393230781581 2128.5026900698895
1825.942869573335 2073.482135992047
1826.646246316086 2129.4177443653484
1827.3494533492758 2205.577106779342
1828.052490715756 2271.716472389593
1828.7553584583547 2149.47822244104
1829.458056619891 2368.086888075131
1830.1605852431585 2174.3933729492446
1830.8629443709433 2090.143796487751
1831.5651340460063 2182.8674084082854
1832.2671543110919 1990.8736804983716
1832.9690052089318 2104.966818462312
1833.6706867822395 2089.384192603649
1834.3721990737104 2242.043733160974
1835.0735421260233 2249.0047228115395
1835.774715981841 2186.986836495347
1836.4757206838058 2244.7629262958717
1837.1765562745459 2172.6388993956907
1837.8772227966747 2121.316962093101
1838.5777202927839 2165.800266534939
1839.2780488054523 2124.7727112605053
1839.9782083772352 2228.5010330755717
1840.6781990506806 2274.4650291876055
1841.378020868313 2188.798530883156
1842.0776738726418 2217.703960785452
1842.777158106157 2028.313480075624
1843.4764736113375 2102.9188392838105
1844.1756204306403 2189.696654291779
1844.8745986065078 2080.7424200751616
1845.5734081813607 2092.097127013046
1846.2720491976124 2062.88183176634
1846.970521697649 2053.029230680168
1847.6688257238511 2148.2969877493974
1848.3669613185684 2193.9660992068357
1849.0649285241452 1964.1981654425072
1849.7627273829057 2079.8841322831054
1850.460357937156 2052.587744370495
1851.1578202291857 1981.7330861569208
1851.8551143012664 2095.5963130349496
1852.5522401956569 2074.678602047704
1853.2491979545957 2134.2733419732695
1853.9459876203055 2078.02778177982
1854.6426092349902 2017.7803885768637
1855.3390628408451 2073.27160331636
1856.0353484800362 2192.8761277664944
1856.7314661947203 2165.155217074199
1857.4274160270397 2010.4435225596796
1858.123198019115 2014.6306977223653
1858.8188122130487 1961.7057080949642
1859.5142586509319 2054.189037928794
1860.209537374838 2158.9368872808686
1860.9046484268183 2085.9952650065143
1861.599591848917 2139.6591149316723
1862.294367683151 2116.9281584640444
1862.988975971528 2222.793662119032
1863.6834167560355 2074.7438044689907
1864.3776900786452 2198.09994112734
1865.0717959813119 2198.784382718265
1865.7657345059724 1905.678995557064
1866.4595056945564 2157.5124797233593
1867.1531095889586 2046.5547539442687
1867.846546231076 1967.8267104267125
1868.5398156627743 2220.5205869398205
1869.2329179259123 2049.978502879029
1869.9258530623283 2170.0255235514173
1870.618621113843 2065.7464013391336
1871.3112221222636 1926.1276757703629
1872.0036561293764 2019.8517477368484
1872.695923176956 1979.1928634399428
1873.3880233067594 2179.4676691999352
1874.0799565605212 1883.5753220428626
1874.7717229799673 1998.6676514736366
1875.4633226068036 2204.7871844147953
1876.1547554827175 2212.746845980603
1876.8460216493859 1990.246484109482
1877.5371211484617 1998.9390924500028
1878.2280540215852 2059.81644488042
1878.9188203103804 1881.7506896198302
1879.6094200564548 2073.695301359924
1880.299853301396 1905.9526092800781
1880.9901200867826 2152.2817612504255
1881.6802204541673 2070.4244179237858
1882.3701544450942 2117.256327373593
1883.059922101087 1929.3708978471755
1883.7495234636517 2144.2824449783343
1884.4389585742792 1982.797620000593
1885.1282274744517 1946.7044009346077
1885.8173302056166 2198.5498876236097
1886.506266809225 2068.8600598593134
1887.195037326701 1866.6997865322824
1887.8836417994517 2002.9153573450337
1888.5720802688702 2098.2421102046665
1889.260352776333 1974.5389631837795
1889.9484593632042 2073.665023642866
1890.63640007082 1981.2108117939533
1891.3241749405151 1931.695239648104
1892.0117840135954 2029.3392382652771
1892.6992273313572 2144.228965818219
1893.3865049350788 1861.8781642143986
1894.0736168660223 2059.551821970027
1894.7605631654333 2036.8283793561739
1895.4473438745408 1892.3112503762652
1896.133959034556 2262.4290963781514
1896.820408686679 2040.9582515662162
1897.506692872088 2077.382107741899
1898.192811631945 1964.742494601653
1898.8787650073991 2037.3058579348312
1899.5645530395832 2253.842320100754
1900.2501757696118 2029.9811436207663
1900.9356332385796 1888.3736554814047
1901.620925487574 2192.714106975881
1902.3060525576602 2044.0688189628786
1902.9910144898859 2018.8101434884247
1903.6758113252872 1944.5241830148595
1904.3604431048789 2015.788898587599
1905.0449098696663 2124.6158835515516
1905.7292116606295 1906.225702687602
1906.4133485187394 1954.9070033213331
1907.0973204849488 1783.342292749859
1907.7811276001976 1750.4733164139639
1908.4647699053967 1877.7939108656556
1909.1482474414588 1864.992143968911
1909.8315602492694 1852.0747868373473
1910.5147083696957 2160.577330000949
1911.1976918436012 1911.3703636414953
1911.880510711815 1895.393862544488
1912.5631650151681 2110.457181264122
1913.2456547944657 1948.8616077608701
1913.927980090495 1900.439742786103
1914.6101409440362 1859.3340553067223
1915.2921373958416 2056.4567763902514
1915.9739694866603 1949.8373572606495
1916.655637257214 2012.346941293407
1917.3371407482136 1988.8832526229749
1918.0184800003572 2156.184825222392
1918.6996550543154 2015.9250686138998
1919.3806659507554 1958.8649902911761
1920.0615127303208 1929.4727807198433
1920.7421954336423 2031.8272223968263
1921.4227141013343 2061.738876137643
1922.103068773993 2070.264363138225
1922.783259492202 1913.2447761092656
1923.4632862965227 1824.9938067767664
1924.1431492275078 1952.7976016385066
1924.8228483256917 1940.1411226980904
1925.5023836315922 1866.9394192503332
1926.1817551857057 1655.5647994409978
1926.8609630285227 2098.7451208268767
1927.5400072005123 2079.029153124186
1928.218887742125 1890.0146469826523
1928.8976046938005 2006.119946062563
1929.5761580959588 2021.3278841799688
1930.2545479890086 1921.2461831519988
1930.9327744133352 1739.2737533662953
1931.6108374093164 1970.905770806692
1932.2887370173066 2093.816459242538
1932.9664732776473 1744.4788615622826
1933.6440462306673 1936.2203533195654
1934.3214559166754 1850.4280181109934
1934.9987023759659 2165.5730498791772
1935.675785648813 2054.167943796817
1936.3527057754836 2134.053791253483
1937.029462796223 2214.130010115388
1937.70605675126 1889.6555567094874
1938.3824876808085 1756.6679757863228
1939.058755625072 1891.0162320847783
1939.7348606242267 1884.5993392978417
1940.4108027184448 1794.1872352711684
1941.0865819478713 2102.9973256205785
1941.7621983526478 1919.8163764872993
1942.4376519728921 1774.5071871524574
1943.1129428487038 1897.3150184267572
1943.7880710201734 1917.643631796871
1944.4630365273733 1996.5783590407405
1945.1378394103576 1775.4895590273136
1945.8124797091714 2086.3737862797457
1946.4869574638324 1745.2800585525954
1947.161272714353 1814.4649145886779
1947.8354255007234 1882.7681885140864
1948.5094158629272 1874.8076424226467
1949.1832438409183 1935.5020290558703
1949.8569094746435 2010.8237386229725
1950.530412804037 2116.317422669939
1951.2037538690092 2160.8841073193626
1951.8769327094578 1862.794815746036
1952.5499493652678 1864.3851802923691
1953.222803876306 2017.603561009221
1953.895496282421 1969.5183316380676
1954.5680266234522 1869.641288705077
1955.2403949392155 1937.1678467850604
1955.9126012695142 1892.5783695826235
1956.5846456541403 2005.0196515627563
1957.2565281328643 1921.3682275876206
1957.9282487454457 1885.5436075927942
1958.5998075316202 1829.2136364113207
1959.27120453112 1875.6229380506404
1959.9424397836501 1985.8196449632298
1960.613513328908 1891.375757246485
1961.2844252065697 2092.015759222025
1961.9551754563017 1709.8061729623082
1962.6257641177453 1754.2826657297974
1963.29619123054 1779.0757077303635
1963.966456834296 1796.924432049751
1964.6365609686181 1763.544607839219
1965.306503673086 1778.812433876235
1965.976284987275 1794.0502257860924
1966.645904950734 1873.8255938576647
1967.315363603002 1640.956891663065
1967.9846609836077 1913.003096582482
1968.6537971320486 1853.5112635074688
1969.3227720878222 1941.0221279988666
1969.9915858904042 2013.738055764883
1970.660238579252 1906.7131849138846
1971.3287301938108 1819.4966665883571
1971.997060773514 1925.2204724965254
1972.665230357772 1762.1381088042315
1973.3332389859843 1751.5402967525793
1974.0010866975335 1778.7437914425275
1974.6687735317864 1880.476411726827
1975.3362995280932 1959.5505080208782
1976.003664725793 1901.5523172124572
1976.6708691642052 1726.9877348511884
1977.3379128826364 1805.7724868443488
1978.004795920373 2042.8504367131634
1978.6715183166925 2134.676644141332
1979.3380801108524 1708.2654104589983
1980.0044813420973 1867.8731292157074
1980.6707220496555 1755.320358265993
1981.3368022727373 1949.3712388259366
1982.0027220505417 1914.9770906347494
1982.66848142225 1645.5574426804487
1983.3340804270283 1761.3016866920432
1983.999519104027 1854.2850484657233
1984.6647974923835 1804.9869797490094
1985.329915631215 1887.1561279022349
1985.99487355963 1885.97702475041
1986.6596713167146 1879.6811496561447
1987.3243089415428 1724.2153553927023
1987.9887864731754 1911.2016045955984
1988.6531039506553 1690.8422126884645
1989.3172614130071 1700.366262413931
1989.9812588992481 1709.9335181408
1990.645096448372 1638.6153701807639
1991.3087740993633 1762.6215861092696
1991.9722918911848 1665.9357695379556
1992.635649862792 1903.8561965371396
1993.2988480531185 1902.6272445516413
1993.9618865010852 2115.923451619057
1994.6247652455968 1784.3830659726668
1995.287484325545 1811.7873721326148
1995.9500437798033 1859.7359595886996
1996.6124436472292 1748.604263896747
1997.2746839666706 1788.5268295090232
1997.936764776954 1780.4623903801396
1998.598686116895 1766.2094625476607
1999.2604480252903 1802.1463819801102
1999.9220505409212 1972.6353320815938
2000.5834937025593 1660.1733441341694
2001.2447775489582 1844.0332249642095
2001.9059021188514 1980.7204501543602
2002.5668674509616 1686.509077836098
2003.2276735839987 1797.1841750681785
2003.8883205566508 1836.6648745179173
2004.5488084075987 1851.3420713339638
2005.2091371755014 1947.737015806603
2005.8693068990033 1716.3457162910086
2006.5293176167397 1875.1337267259162
2007.1891693673224 1649.825504596267
2007.848862189354 1663.9058640918392
2008.5083961214223 1720.7434314932143
2009.1677712020955 1887.01258610498
2009.8269874699254 1658.1883700396654
2010.4860449634598 1894.853842605699
2011.1449437212177 1785.7050890885043
2011.8036837817108 1915.7205447681786
2012.4622651834325 1815.9120064689382
2013.1206879648653 1928.6986560810499
2013.7789521644736 1867.5834398064421
2014.4370578207036 1553.922773033386
2015.0950049719922 1827.9924241492172
2015.7527936567585 1905.6098033283477
2016.4104239134067 1620.0394803507202
2017.067895780323 1962.9588519576034
2017.725209295886 1594.973007453186
2018.3823644984514 1948.2717648535283
2019.0393614263648 1842.5866341401882
2019.6962001179545 1794.02462407515
2020.3528806115355 1826.2689708168139
2021.0094029454067 1862.8765148492698
2021.6657671578487 1552.5326060136751
2022.321973287133 1760.0628926108918
2022.9780213715148 1645.8916565390605
2023.6339114492293 1867.2115243731394
2024.2896435585026 1827.1894871056204
2024.9452177375442 1689.2074845274979
2025.600634024544 1911.940817610351
2026.2558924576842 1770.5169040551732
2026.9109930751292 1812.5044086300263
2027.565935915025 1738.7015667098062
2028.2207210155066 1941.3820376242395
2028.8753484146964 2004.4598319394165
2029.529818150695 1567.8343525502057
2030.1841302615903 1804.8308847196142
2030.8382847854573 1622.9494457088654
2031.4922817603601 1777.279034097605
2032.1461212243357 1645.9433382875898
2032.7998032154192 1618.2494919354199
2033.4533277716218 1672.6208610427889
2034.1066949309443 1677.4697185963728
2034.7599047313688 1646.9893451355856
2035.4129572108704 1752.821658000211
2036.0658524074006 1725.5090032842709
2036.7185903589016 1790.7553507489229
2037.3711711032956 1828.6099077211256
2038.023594678496 1800.4261780761913
2038.675861122394 1688.3786093123385
2039.3279704728757 1755.498306645036
2039.9799227678031 1646.8145435291121
2040.6317180450278 1808.5816156857975
2041.2833563423865 1583.2592138067214
2041.9348376977014 1915.5149489114199
2042.5861621487784 1755.3485279653487
2043.2373297334088 1691.6405050117942
2043.8883404893695 1806.165790040294
2044.5391944544208 1831.4029446271593
2045.1898916663158 1874.3878383857361
2045.8404321627804 2055.9909273832573
2046.4908159815368 1626.411412659238
2047.1410431602853 1478.4306100687008
2047.7911137367173 1611.5110798708363
2048.441027748504 1832.1190526142793
2049.090785233302 1597.364088857726
2049.7403862287592 1722.6692653502646
2050.389830772503 1780.7256139187175
2051.0391189021466 1616.4340331673002
2051.688250655294 1772.423298106721
2052.337226069527 1711.6241016010651
2052.986045182417 1868.1132659865798
2053.634708031521 1837.4362009795343
2054.283214654375 1806.8339946822412
2054.931565088511 1520.6884453298662
2055.579759371436 1606.7132590129174
2056.2277975406523 1635.1638265593463
2056.8756796336384 1882.9381006338342
2057.5234056878617 1560.4010832677097
2058.1709757407752 1642.6532322032176
2058.8183898298194 1838.0063123934856
2059.465647992416 1734.17563001874
2060.1127502659747 1789.9354551489723
2060.759696687888 1563.4875718267317
2061.4064872955405 1722.3259899342531
2062.053122126292 1575.2381742382568
2062.699601217497 1822.7219513315868
2063.345924606485 1690.5464202481223
2063.992092330587 1702.4588690458029
2064.638104427102 1595.2960329522382
2065.283960933324 1875.2255360880506
2065.92966188653 1614.784336975533
2066.5752073239855 1595.0229954457457
2067.2205972829397 1575.2552661970967
2067.86583180062 1768.1476085037157
2068.5109109142522 1724.5773102359472
2069.15583466104 1588.2133557050736
2069.8006030781708 1451.7241140186954
2070.445216202821 1593.674158711187
2071.089674072153 1790.4542474885995
2071.7339767233116 1869.9539493648904
2072.3781241934303 1691.6942644375545
2073.0221165196253 1730.1803367855773
2073.6659537390024 1586.0356081601396
2074.3096358886505 1783.4626825049625
2074.953163005637 1790.2441472527498
2075.596535127028 1535.083667790745
2076.2397522898664 1626.507922769595
2076.882814531182 1610.3726263770309
2077.5257218879924 1594.2128452198417
2078.1684743973 1489.6991946415865
2078.8110720960885 1588.1809073277852
2079.453515021336 1841.7845523356214
2080.095803209997 1745.1642255808806
2080.7379366990135 1744.9531711994482
2081.37991552532 1843.6210367251035
2082.0217397258275 1653.4992883869213
2082.6634093374414 1464.357739816753
2083.3049243970418 1634.5260450134276
2083.9462849415067 1715.086183425587
2084.587491007689 1644.765579458614
2085.2285426324324 1622.9572554079489
2085.869439852564 1719.0655452241845
2086.510182704902 1584.0940930424526
2087.1507712262483 1703.5419659432941
2087.791205453381 1535.8596353295661
2088.4314854230743 1530.1822083056863
2089.0716111720867 1707.8163882121512
2089.7115827371617 1557.0942650726342
2090.351400155023 1867.626558614106
2090.991063462385 1665.735113226614
2091.6305726959527 1531.102188827606
2092.2699278924047 1714.5253153946353
2092.9091290884153 1715.1804525610783
2093.548176320641 1495.0759750060995
2094.187069625721 1746.9963652409576
2094.8258090402887 1631.8314268718816
2095.464394600951 1753.1810561309849
2096.102826344313 1675.3236079087987
2096.741104306955 1820.498425281065
2097.379228525453 1653.1807013843845
2098.017199036358 1506.6773688319388
2098.6550158762147 1786.4935080481573
2099.2926790815527 1761.3093104860898
2099.9301886888825 1772.6577114917359
2100.5675447347076 1565.2545846744513
2101.2047472555114 1695.9364187780204
2101.841796287761 1601.7583509205956
2102.47869186792 1597.538906996011
2103.1154340324265 1491.2030611156106
2103.752022817709 1665.2028587156433
2104.388458260184 1551.5912176639818
2105.024740396251 1611.6928293294081
2105.660869262292 1702.961874535112
2106.296844894685 1629.6783305493439
2106.93266732978 1754.7206926885683
2107.5683366039284 1668.2431362400052
2108.2038527534532 1689.4530975957719
2108.8392158146726 1589.5595403421785
2109.4744258238843 1722.5194193398354
2110.1094828173755 1527.4375625524203
2110.744386831422 1929.3122598682814
2111.3791379022787 1794.3538461994674
2112.01373606619 1788.2786115767801
2112.648181359389 1839.0153048185948
2113.28247381809 1704.5870851584416
2113.916613478492 1831.6262458132946
2114.550600376786 1788.9462611706617
2115.1844345491445 1443.4567172163363
2115.818116031729 1623.8977096373333
2116.451644860679 1621.9447558382521
2117.085021072133 1446.7862336172234
2117.718244702204 1517.7083157370957
2118.3513157869984 1571.5852454059218
2118.984234362604 1506.9102242483932
2119.617000465092 1542.3861604442552
2120.249614130529 1823.977407480182
2120.8820753949585 1576.6786176106139
2121.5143842944162 1566.9406439875286
2122.14654086492 1624.7988780181247
2122.7785451424734 1830.3609231753362
2123.4103971630702 1516.276859336526
2124.042096962681 1626.4944148891514
2124.6736445772767 1817.2897619979042
2125.305040042802 1511.0675219225798
2125.936283395191 1526.7248353056732
2126.567374670365 1617.8680648726393
2127.198313904233 1526.8737837851818
2127.8291011326855 1545.3131448577483
2128.4597363916037 1563.6074477909235
2129.0902197168507 1438.1610231987875
2129.720551144279 1510.2083839689465
2130.3507307097225 1547.3858587635261
2130.980758449008 1584.5111066553193
2131.6106343979427 1459.5307858262172
2132.2403585923203 1693.5659997849518
2132.8699310679276 1766.7961422186352
2133.499351860526 1691.4885500833038
2134.1286210058715 1624.855249637724
2134.7577385397053 1721.3004339209426
2135.3867044977487 1817.9289396041513
2136.0155189157176 1799.038616344579
2136.644181829308 1727.6511566798356
2137.2726932742025 1525.9453318913233
2137.901053286074 1714.0308686881676
2138.5292619005777 1435.5827247371608
2139.1573191533535 1551.162128078696
2139.7852250800315 1708.4762151281295
2140.4129797162295 1702.4992409583197
2141.0405830975433 1785.9794816462527
2141.6680352595613 1512.7966594932363
2142.2953362378576 1605.1287302340343
2142.9224860679915 1539.7333792178263
2143.549484785508 1472.9510530561665
2144.1763324259373 1570.587767212502
2144.803029024799 1674.7019416663693
2145.429574617594 1504.9999494877961
2146.0559692398165 1584.9387463689682
2146.682212926942 1568.3405627920256
2147.308305714432 1582.0989844851235
2147.9342476377333 1866.6730431579035
2148.5600387322847 1782.5037426367203
2149.185679033506 1880.3533042598951
2149.8111685768017 1509.5539744462387
2150.4365073975678 1524.7232850017576
2151.061695531187 1776.1834877403678
2151.686733013021 1887.754306637579
2152.311619878423 1690.2101977434745
2152.9363561627342 1480.7577741988832
2153.560941901278 1393.8323014539378
2154.1853771293663 1534.9141435937513
2154.809661882293 1569.5153722865289
2155.433796195348 1475.5124877648805
2156.0577801037944 1381.2102362976761
2156.681613642895 1491.1039464693536
2157.3052968478896 1293.5955793531807
2157.928829754006 1699.3721089028822
2158.552212396462 1661.4362743647275
2159.1754448104566 1465.1870578304101
2159.7985270311783 1545.9104283566019
2160.4214590938027 1153.6853944967243
2161.0442410334927 1239.7417694307287
2161.6668728853874 1334.4334975164688
2162.289354684628 1429.3514986153484
2162.911686466332 1384.0796693310485
2163.533868265602 1614.535068783424
2164.1559001175337 1801.2682184643013
2164.7777820572046 1763.8276170945264
2165.399514119681 1693.812166487101
2166.021096340013 1482.0563789198168
2166.6425287532384 1442.2783539887666
2167.263811394385 1402.5177514441789
2167.8849442984574 1626.5691744484707
2168.505927500455 1504.3905457946028
2169.126761035366 1700.6298444086242
2169.7474449381552 1591.6588016022574
2170.367979243778 1441.9501529668073
2170.9883639871823 1708.662145877805
2171.608599203293 1840.9481830071904
2172.2286849270276 1973.5653547226725
2172.8486211932886 1891.9733538703179
2173.4684080369625 1686.2366172764773
2174.0880454929265 1564.3493164281936
2174.7075335960417 1460.6220728730198
2175.3268723811543 1430.7019904579813
2175.9460618831 1400.7276286656192
2176.565102136701 1612.0325179773386
2177.1839931767627 1485.3616266360698
2177.802735038078 1749.2389849644092
2178.421327755432 1602.464826370688
2179.0397713635866 1401.9533448312643
2179.658065897298 1662.6681634767701
2180.276211391305 1704.798938579424
2180.8942078803357 1502.110320578488
2181.5120553991 1649.8124128703234
2182.129753982299 1617.4568344687657
2182.7473036646206 1585.0365618744283
2183.3647044807367 1534.4396443784558
2183.9819564653044 1482.437608027923
2184.599059652968 1803.52894209333
2185.216014078367 1540.0357600265875
2185.832819776113 1355.5398303958332
2186.4494767808137 1636.9821077449456
2187.065985127063 1638.7387030835944
2187.682344849436 1579.3739853210898
2188.298555982501 1660.7854194776537
2188.9146185608097 1512.874285046349
2189.530532618901 1770.797106798013
2190.1462981912937 1602.3118431040516
2190.761915312507 1762.8345727286273
2191.377384017036 1359.9749435820727
2191.9927043393654 1471.6400330841193
2192.6078763139667 1361.2010797660555
2193.2228999753006 1444.501226640869
2193.837775357808 1527.9950063438198
2194.452502495922 1481.660551124513
2195.0670814240602 1622.8900723365564
2195.6815121766285 1291.327563516637
2196.2957947880186 1746.9514572892483
2196.9099292926057 1405.2257868536408
2197.523915724758 1560.7139566061999
2198.137754118825 1621.575203957476
2198.7514445091456 1700.550849042449
2199.3649869300443 1538.2860911350374
2199.9783814158327 1761.1673967856702
2200.5916280008096 1858.7659192614367
2201.2047267192593 1712.8887962655972
2201.8176776054515 1519.5188203822822
2202.430480693649 1592.9635468891488
2203.0431360180955 1666.619205014354
2203.6556436130195 1698.0473556185352
2204.268003512645 1368.5676697388615
2204.8802157511727 1412.3601684163755
2205.492280362796 1480.1047271103178
2206.1041973816937 1548.083033712272
2206.715966842032 1466.2316217884245
2207.3275887779655 1591.8726287226018
2207.93906322363 1550.3946892430124
2208.550390213153 1792.9256035818275
2209.1615697806465 1748.242379338885
2209.7726019602105 1452.186373662952
2210.3834867859277 1553.389248863427
2210.9942242918787 1489.3028975235577
2211.6048145121167 1659.5060577148656
2212.2152574806914 1886.3128601438887
2212.825553231638 1542.1437316262213
2213.435701798975 1806.0077365905922
2214.045703216707 1617.433883904637
2214.655557518832 1413.2468470780677
2215.2652647393297 1593.1390311593755
2215.874824912169 1316.6364487754124
2216.4842380713 1546.91215104125
2217.09350425067 1524.6405089206316
2217.7026234842033 1811.4527106248916
2218.311595805819 1631.1815827818814
2218.9204212494133 1564.6122366701795
2219.52909984888 1720.783721226472
2220.137631638092 1446.4264542890214
2220.7460166509154 1691.399265071112
2221.354254921198 1680.83054504525
2221.9623464827764 1670.1990664602781
2222.5702913694713 1437.5947879500886
2223.178089615096 1605.7233999104621
2223.7857412534486 1404.2930134242285
2224.39324631831 1303.3157814308972
2225.000604843457 1402.5353961815158
2225.607816862641 1656.2769443420646
2226.214882409611 1586.838195405099
2226.8218015180973 1608.2381945270006
2227.4285742218217 1661.3600060169133
2228.0352005544864 1639.1965026767175
2228.6416805497847 1379.477095476373
2229.248014241399 1435.250620867722
2229.8542016629945 1589.6460760702064
2230.460242848223 1647.0723854317766
2231.0661378307304 1621.904470474019
2231.671886644139 1392.0313868232547
2232.277489322065 1353.676593772329
2232.8829458981127 1350.1815487366775
2233.48825640587 1410.6960108314283
2234.0934208789095 1752.2394491469681
2234.6984393507955 1564.052322219579
2235.3033118550793 1466.0219135878892
2235.9080384252975 1378.1125025458773
2236.5126190949723 1393.7700563286191
2237.1170538976166 1291.1531009412151
2237.721342866729 1284.8966950008748
2238.32548603579 1422.0436720424218
2238.9294834382763 1465.6649928510874
2239.533335107646 1521.0614331942493
2240.1370410773434 1397.5698949428615
2240.740601380803 1297.368413730163
2241.3440160514474 1634.840551409639
2241.9472851226783 1792.0264186587035
2242.550408627896 1734.6476591559597
2243.1533866004793 1677.201685887931
2243.756219073799 1603.470522294499
2244.3589060812064 1410.1230038675476
2244.961447656049 1327.2110647258119
2245.5638438316564 1459.979560967294
2246.166094641343 1590.0758358037751
2246.7682001184166 1425.7584935155842
2247.3701602961664 1284.8588626469393
2247.971975207871 1633.3530464919154
2248.5736448867974 1777.5277206675953
2249.175169366197 1492.2529552958952
2249.7765486793123 1414.6944505776291
2250.3777828593684 1679.4200070210663
2250.9788719395783 1558.4602695318308
2251.579815953146 1577.4221922964657
2252.1806149332606 1432.1899919726939
2252.781268913097 1694.3722886840164
2253.381777925817 1550.4698930579505
2253.9821420045737 1539.4506058193408
2254.5823611825035 1513.4861058647275
2255.1824354927303 1559.36984457862
2255.782364968365 1397.1542317757885
2256.38214964251 1234.7576375336798
2256.9817895482483 1346.6786593606344
2257.5812847186553 1397.2653385598599
2258.180635186791 1426.9459048201138
2258.779840985704 1389.056333560952
2259.37890214843 1305.986955451598
2259.97781870799 1646.080402242863
2260.5765906973957 1718.4216960509293
2261.175218149645 1831.6300184605795
2261.773701097718 1568.9206355100937
2262.3720395745895 1304.203088535997
2262.970233613216 1376.3780234149083
2263.568283246548 1419.8471190384412
2264.1661885075137 1457.2634384010958
2264.763949429038 1259.6624523212354
2265.3615660440246 1507.8631832598408
2265.959038385374 1314.5600548816587
2266.5563664859637 1582.9450895088025
2267.153550378669 1311.9663930220217
2267.7505900963424 1606.804559729885
2268.3474856718312 1573.2308515568207
2268.9442371379664 1362.8181617300802
2269.5408445275643 1609.9737225852355
2270.1373078734377 1489.4418616575942
2270.7336272083758 1322.767662660044
2271.32980256516 1556.9212408604978
2271.925833976562 1589.1882556726162
2272.5217214753357 1405.1327511132695
2273.117465094223 1574.7119754768905
2273.7130648659586 1458.6438618353823
2274.308520823257 1270.7794066164747
2274.903832998827 1523.11013208275
2275.4990014253563 1449.0292105313042
2276.094026135528 1533.7487054788803
2276.6889071620117 1450.1893943422342
2277.2836445374614 1448.361046454565
2277.878238294519 1291.7082018296794
2278.472688465812 1280.3163580309588
2279.066995083962 1268.8642779607464
2279.6611581815705 1426.4314153633647
2280.255177791232 1436.8134249918362
2280.8490539455233 1750.162685858801
2281.442786677013 1807.623712860771
2282.0363760182554 1656.799978018826
2282.6298220017943 1683.3666999419522
2283.223124660155 1710.0929143327674
2283.816284025859 1554.3358956377
2284.4093001314086 1667.0865489223772
2285.002173009292 1529.797853292965
2285.5949026919952 1591.123257929114
2286.1874892119777 1607.0761178055277
2286.7799326016993 1517.8054668607667
2287.3722328936 1439.2468790936634
2287.964390120109 1330.53698885693
2288.556404313642 1585.2656181580683
2289.1482755066027 1561.3949204726214
2289.7400037313873 1538.9942599955698
2290.3315890203703 1424.9739908638937
2290.9230314059205 1426.8959595189199
2291.5143309203904 1428.8654184456914
2292.1054875961236 1597.852136136942
2292.6965014654506 1673.7891656012337
2293.287372560684 1764.2442858096315
2293.878100914131 1473.2691063166371
2294.468686558086 1582.1144964506768
2295.059129524827 1550.456518273474
2295.649429846617 1614.2568242437933
2296.239587555716 1475.703280555696
2296.8296026843636 1544.2216258925785
2297.419475264791 1636.7476062231806
2298.0092053292137 1457.5731070865227
2298.598792909839 1671.5922284964429
2299.1882380388597 1555.9930641399083
2299.777540748455 1525.0432217971988
2300.3667010707904 1460.2829442671505
2300.9557190380256 1629.5921785785642
2301.544594682302 1587.1404259482129
2302.1333280357503 1242.6809738579334
2302.721919130485 1441.014655362891
2303.3103679986198 1771.512897194918
2303.898674672242 1642.427805577609
2304.486839183437 1661.4943519159976
2305.0748615642697 1335.8491028833005
2305.6627418468015 1527.6412358888947
2306.2504800630704 1508.339423960653
2306.8380762451143 1636.2047737564849
2307.425530424949 1587.8957960231082
2308.012842634582 1539.4635683028916
2308.6000129060103 1562.3089191341621
2309.187041271214 1703.807007124633
2309.773927762164 1317.0510844365735
2310.3606724108213 1631.270985663475
2310.9472752491274 1697.6500345502373
2311.5337363090184 1764.227515009016
2312.120055622414 1454.2447560217336
2312.706233221221 1560.7951337294105
2313.2922691373424 1282.5431602828485
2313.8781634026564 1342.3565069457793
2314.463916049037 1402.2953873634015
2315.049527108342 1453.3124755718604
2315.6349966124235 1785.9607405976276
2316.2203245931123 1832.5423790293958
2316.8055110822315 1420.424125638929
2317.3905561115935 1232.0279511294416
2317.9754597129977 1450.0617948408778
2318.560221918229 1777.8753846487878
2319.1448427590603 1532.9214426854405
2319.729322267256 1499.8872503377547
2320.313660474563 1412.0141103958763
2320.8978574127195 1733.3011041043778
2321.481913113452 1752.2984124564525
2322.0658276084705 1632.9414649754212
2322.6496009294806 1344.542070116238
2323.233233108165 1195.8736985344233
2323.8167241762058 1551.0843390892483
2324.4000741652617 1482.7380818194733
2324.983283106987 1409.0656913676903
2325.5663510330232 1619.3308668985126
2326.1492779749933 1387.0452253092117
2326.7320639645204 1674.9076498082184
2327.3147090332004 1661.1251088452386
2327.897213212629 1561.0476377204811
2328.4795765343843 1460.713298469039
2329.0617990300307 1456.5421650434923
2329.643880731124 1722.9878740029387
2330.22582166921 1389.0580527461302
2330.807621875816 1296.9482936239983
2331.3892813824623 1204.8018185582946
2331.9708002206517 1385.7485745751258
2332.5521784218818 1616.3841317101212
2333.133416017634 1512.6424344301702
2333.7145130393765 1475.0971947680575
2334.295469518571 1647.0587079787692
2334.876285486658 1503.8835170927764
2335.456960975076 1423.5915184988992
2336.037496015242 1449.980902897862
2336.6178906385667 1476.4583190118942
2337.198144876451 1618.676735920916
2337.778258760278 1764.6687370015638
2338.3582323214214 1664.5560649334147
2338.938065591243 1564.1689117135975
2339.517758601087 1748.3740045735717
2340.0973113822965 1617.582842312081
2340.676723966193 1562.3526585235675
2341.255996384094 1588.125875090649
2341.835128667295 1624.3107704004838
2342.4141208470883 1703.820681072406
2342.992972954751 1338.381921573807
2343.5716850215467 1488.8365672123778
2344.1502570787306 1210.8958638361785
2344.7286891575386 1387.46904656874
2345.3069812892045 1710.3085189463127
2345.885133504944 1626.4123994154975
2346.4631458359618 1338.5495712465513
2347.04101831345 1433.5238038069745
2347.6187509685915 1535.5372970332912
2348.196343832553 1423.0736297139883
2348.7737969364935 1563.5826825121153
2349.351110311558 1478.9791386893562
2349.9282839888765 1394.3106014529337
2350.5053179995757 1423.2778838419624
2351.0822123747585 1273.8226690652004
2351.658967145526 1238.9440313158543
2352.2355823429643 1204.0791734554002
2352.812057998144 1419.2940403649602
2353.3883941421263 1327.5812639873843
2353.9645908059647 1371.143623211618
2354.540648020693 1414.8514434494846
2355.116565817336 1322.9960836338055
2355.6923442269126 1753.1513215223101
2356.2679832804224 1626.1504868971765
2356.8434830088518 1345.0134328732745
2357.41884344318 1353.4821969099341
2357.994064614377 1617.0157463222324
