#exp_cfg={"servo_angle": 0.0, "laser_lim": 100.0, "servo_angle_to": 18.0, "laser_wup": 0.0, "bt_dev": "EnSpectr-25AE3", "laser_wdn_max": 0.0, "frames": 10.0, "servo_used": 0, "servo_calib_use": 0, "laser_wdn_min": 0.0, "servo_pix_from": 90.0, "cooler_tout": 300.0, "servo_angle_from": 0.0, "servo_calib": "[-1.9174921013161362e-09, 3.9322238269163779e-05, -0.27385609119055809, 653.59552119713567]", "laser_autoctl": 0, "servo_pix_to": 3682.0, "laser_pw": 100.0, "cooler_on": 0, "laser_volt": 4.0, "cooler_autoctl": 0, "cooler_curr": 70.0, "cooler_startup": 10.0, "laser_fixed_pw": 0, "gain": 1.3, "offset": 2.53059635486, "servo_calib_degree": 3.0, "laser_curr": 55.0, "shutter": 8200.0, "servo_calib_step": 1.0, "laser_fixed_curr": 0, "exp": 2000.0, "ccd_volt": 4.7, "bt_addr": "00:06:66:62:5A:E3", "servo_delay": 500.0, "laser_autooff": 1}
#proc_cfg={"flat_auto_wnd": 200.0, "flat_auto_fr": 200.0, "flat_auto_shift": 5.0, "yconv": 1, "flatten": 1, "flatten_strength": 100.0, "xfrom": 300.0, "auto_max_frame": 2000.0, "auto_signal": 48000.0, "flat_auto_tol": 0.1, "autoclip": 1, "xrel_range": 0.0, "flat_auto_to": 4000.0, "intensity_adj": 1.0, "xrel": 7852.0, "rmhot": 1, "flat_auto_slit": 4.999999999999997, "auto_ini_exp": 300.0, "auto_off": 0, "xto": 2860.0, "flat_auto_ref": "", "flat_auto_rank": 1, "autobackg": 0, "xrel_adj": 0.0, "auto_black_lvl": 1, "base_wnd": 100.0, "sub_baseline": 0, "xconv": 2, "auto_max_exp": 1000.0, "auto_total_exp": 10000.0, "auto_exp": 0, "rmripple": 0, "black_lvl": 8235.625, "shutter_clip_adj": 0.0, "auto_bckg": 0, "flat_auto_thr": 0.9, "subbackg": 1}
316.8218498245369 18875.8606393758
317.89969571804795 18839.78687563731
318.977263876126 18854.51406720805
320.05455438786703 18681.070004873214
321.1315673423287 18661.08933362441
322.2083028285215 18691.847192427987
323.2847609354267 18523.216795397013
324.3609417519747 18396.216865972223
325.43684536705587 18383.695619979342
326.5124718695279 18303.74863326282
327.58782134820103 18246.52172575359
328.66289389184385 18201.291000258723
329.7376895891921 18064.76714990005
330.8122085289342 17945.257175486717
331.88645079971866 17946.480263828405
332.9604164901575 17929.948386752145
334.03410568881554 17767.089375761025
335.1075184842266 17863.42998202375
336.18065496487543 17728.732568833544
337.2535152192122 17627.76568951476
338.32609933564163 17652.05163990161
339.39840740253203 17461.786158138326
340.4704395082099 17498.265606398185
341.5421957409617 17368.11486741568
342.6136761890357 17425.63988073404
343.6848809406365 17364.979432594206
344.75581008392874 17263.809676085017
345.82646370703696 17116.301353018418
346.8968418980512 17210.80535758517
347.96694474501055 17236.439311572656
349.0367723359268 17202.85789807145
350.106324758759 17055.92804790324
351.1756021014353 17054.559555328095
352.2446044518383 17036.523764042
353.31333189781435 17111.114839845137
354.38178452716966 16958.67332549105
355.449962427665 16980.12799264123
356.51786568702846 16906.098083492903
357.58549439294256 17099.142207792254
358.6528486330535 16994.78344120883
359.71992849496564 16844.467340231444
360.7867340662433 16924.406214232542
361.8532654344144 16886.239301190537
362.9195226869597 16896.858424148897
363.9855059113288 16850.497601204275
365.05121519492604 16711.50761125156
366.11665062511565 16919.367678041854
367.1818122892273 16819.12158251206
368.2467002745434 16818.41421385829
369.31131466831175 16842.37636012809
370.375655557742 16850.156907166194
371.4397230299983 16851.79989827456
372.5035171722102 16741.442202394297
373.5670380714637 16667.905990753003
374.6302858148101 16739.416590137214
375.6932604892554 16745.718191442633
376.7559621817709 16752.379013902704
377.81839097928605 16633.610196606765
378.8805469686886 16625.669804304947
379.94243023683157 16718.712006561713
381.0040408705263 16530.93265355377
382.0653789565458 16514.640321479834
383.1264445816196 16499.994337795717
384.1872378324406 16420.16407341282
385.2477587956637 16487.142432427867
386.3080075579037 16330.028974054518
387.3679842057336 16337.017074210375
388.4276888256918 16286.691642204085
389.48712150426945 16382.177771952822
390.54628232792857 16232.449752837452
391.6051713830857 16182.264570234649
392.66378875611736 16175.48233184526
393.7221345333637 16177.383218637415
394.7802088011249 16100.398423213255
395.838011645661 16119.559369268076
396.89554315319765 16072.837935191961
397.9528034099112 16039.633354040046
399.00979250194723 15897.380951205714
400.06651051541485 15892.494069474158
401.1229575363741 15954.8458092837
402.17913365085224 15921.055888735034
403.23503894483656 15909.168842457686
404.2906735042761 15787.054212230834
405.3460374150818 15676.080911188426
406.401130763119 15695.069701309392
407.455953634224 15659.067235623064
408.5105061141876 15646.636623573238
409.56478828876243 15484.626038198403
410.6188002436629 15472.626438911908
411.6725420645689 15555.737164267057
412.72601383711117 15459.097636919509
413.77921564689314 15545.457388002818
414.8321475794728 15434.238743226106
415.88480972036814 15250.703376730535
416.93720215506437 15486.569106892388
417.9893249690049 15292.215872826457
419.04117824759123 15255.603153741884
420.09276207619223 15205.60129766251
421.144076540133 15253.49896120738
422.1951217247042 15130.580532378663
423.24589771515275 15125.368183103861
424.2964045966928 15084.25233097894
425.34664245449494 15171.488661374426
426.3966113736933 15094.09468792052
427.4463114393875 15029.894843234733
428.49574273662984 14987.95670939571
429.5449053504417 14982.40665523861
430.5937993658026 14876.344383059084
431.6424248676558 14875.173056499381
432.6907819409007 14926.420251339787
433.73887067040596 14824.22113274016
434.7866911409965 14840.296372883196
435.8342434374608 14845.146756692135
436.88152764455117 14744.477143963793
437.9285438469724 14747.935280668029
438.9752921294057 14691.361321118151
440.02177257648145 14739.718125866653
441.06798527279716 14626.910892834174
442.1139303029122 14715.112205682934
443.1596077513459 14636.551408967727
444.2050177025794 14638.775454708904
445.25016024105753 14644.487626069214
446.2950354511886 14585.728659093667
447.33964341733736 14607.164608761153
448.383984223834 14581.452397384488
449.4280579549686 14517.99677773221
450.471864694995 14603.586381212113
451.5154045281306 14531.212967686737
452.5586775385509 14547.255463216474
453.60168381039693 14507.558732154492
454.64442342776783 14658.578612554387
455.6868964747264 14607.952867558613
456.7291030353008 14590.862914779043
457.77104319347563 14615.127556087773
458.8127170332027 14583.881774697444
459.854124638392 14573.154216860732
460.895266092919 14742.891691811054
461.93614148061897 14744.830051037288
462.97675088529104 14800.328674108456
464.01709439069236 14776.104572168077
465.0571720805492 14798.10124541877
466.0969840385442 14772.276215238153
467.1365303483253 14943.665148172595
468.17581109350067 14971.57734139232
469.2148263576437 14848.655453544416
470.2535762242878 14987.372683152833
471.29206077693016 15085.238565108919
472.33028009902773 15053.996360186979
473.3682342740012 15111.291242897327
474.40592338523857 15181.61737823915
475.4433475160804 15193.470091589461
476.4805067498364 15155.305401890373
477.51740116978 15256.308516428482
478.5540308591426 15396.862005311912
479.59039590112116 15446.25645601406
480.6264963788726 15487.086710099897
481.6623323755193 15655.630873057584
482.6979039741436 15699.345756113533
483.7332112577915 16009.937694314847
484.76825430947247 16077.154284633394
485.80303321215797 16189.84220132844
486.837548048783 16376.305546391415
487.8717989022425 16495.439789827877
488.90578585539697 16474.385769804023
489.9395089910686 16647.65477654034
490.97296839203955 16518.486825430322
492.00616414106116 16429.113141119997
493.0390963208429 16396.32767088321
494.0717650140559 16371.96666409765
495.10417030333883 16187.697241097867
496.1363122712901 16060.70659075547
497.16819100046814 15821.612390747943
498.1998065734024 15684.78018580641
499.2311590725767 15550.931311924182
500.26224858044407 15387.05365533937
501.2930751794156 15198.973900950552
502.3236389518679 15184.787187524727
503.35393998014115 14999.922793323878
504.38397834653733 14973.434844692587
505.4137541333221 14862.111054067846
506.4432674227228 14759.374964045483
507.4725182969323 14688.883194952141
508.5015068381035 14674.36363058886
509.53023312835467 14664.76894385292
510.55869724976765 14569.20492567788
511.58689928438434 14448.291865870913
512.6148393142121 14432.268656464274
513.6425174212218 14484.052897338977
514.6699336873462 14426.007919580725
515.6970881944835 14363.297026571538
516.7239810244901 14329.471162533437
517.7506122591931 14227.643320080202
518.7769819803761 14293.057404954201
519.8030902697901 14180.780284523958
520.8289372091476 14327.301125714037
521.8545228801249 14236.907571418633
522.8798473643619 14189.528983551743
523.9049107434621 14149.727292497799
524.9297130989908 14276.886362031768
525.9542545124805 14098.409003172836
526.9785350654201 14149.167891540928
528.0025548392696 14171.424290790155
529.0263139154504 13998.612889925367
530.0498123753423 14075.653496013856
531.073050300296 13998.36411526021
532.0960277716204 13938.323920537892
533.1187448705896 14015.074865235345
534.1412016784416 13982.10974533108
535.1633982763833 14030.101555122132
536.1853347455726 13836.932780755433
537.2070111671401 13843.255132801347
538.2284276221817 13808.969665746592
539.2495841917516 13829.328989127196
540.2704809568677 13721.415318010293
541.2911179985167 13920.084541482918
542.3114953976419 13852.739605497427
543.3316132351592 13818.870570078692
544.3514715919409 13728.740053062438
545.3710705488247 13750.731380466348
546.3904101866156 13815.425315630753
547.4094905860784 13862.517247134421
548.4283118279418 13759.304276275288
549.4468739929034 13853.703669676155
550.4651771616191 13712.07691596624
551.4832214147063 13705.436668823098
552.501006832761 13759.519090651103
553.5185334963226 13723.763688360801
554.5358014859103 13797.603608801985
555.5528108820035 13814.224913034754
556.5695617650363 13720.958165983404
557.5860542154242 13812.314176407235
558.6022883135283 13785.116618083015
559.6182641396881 13654.476672253653
560.6339817741991 13701.700138815873
561.6494412973225 13702.310795431951
562.6646427892883 13723.144920627756
563.6795863302796 13642.100784775548
564.694272000459 13647.144784431759
565.7086998799423 13706.07829500793
566.7228700488104 13660.256016320613
567.7367825871115 13532.086547215711
568.7504375748576 13606.425737361506
569.7638350920224 13523.485362606842
570.7769752185486 13530.09340489952
571.7898580343353 13547.664430608746
572.802483619258 13473.102532798119
573.8148520531431 13603.135298242065
574.8269634157932 13644.74142024208
575.8388177869692 13489.705867970359
576.8504152463938 13596.01256732291
577.8617558737587 13723.026636911547
578.8728397487175 13609.580076774539
579.883666950891 13732.048132798887
580.8942375598654 13792.967230378916
581.9045516551851 13887.675125740818
582.9146093163617 14095.323047259695
583.924410622878 14025.742283172245
584.9339556541727 14054.33666486082
585.9432444896538 14152.053457142003
586.9522772086875 14032.595979111502
587.9610538906127 14077.76524928495
588.9695746147318 14008.062642813271
589.9778394603054 13991.473827951679
590.985848506567 13920.569231048934
591.9936018327098 13858.389930923378
593.0010995178891 13677.542766935367
594.0083416412344 13795.287845205658
595.0153282818283 13563.393702186173
596.0220595187293 13444.529445646782
597.0285354309508 13415.718197479011
598.0347560974806 13325.929686997959
599.0407215972609 13335.454287385957
600.0464320092051 13411.91782010259
601.0518874121954 13295.997519980443
602.0570878850685 13272.917809170467
603.062033506636 13272.838398286563
604.0667243556636 13281.611788864833
605.0711605108936 13158.991685503588
606.0753420510264 13380.679409685928
607.0792690547278 13332.029370141836
608.082941600629 13294.957313121928
609.0863597673306 13312.935488646137
610.0895236333909 13490.612789439072
611.0924332773357 13568.598154992811
612.0950887776617 13637.706095940835
613.0974902128219 13719.339815177387
614.0996376612384 13819.950891943823
615.1015312013005 13976.257458989567
616.1031709113595 14048.566163132218
617.1045568697336 14106.011339071512
618.1056891547069 14376.651265376786
619.1065678445229 14615.300801260886
620.1071930173985 14893.242646307373
621.1075647515099 14975.930202524227
622.1076831250048 14958.570500069105
623.1075482159849 15227.637798971156
624.1071601025305 15305.132176172814
625.1065188626781 15462.421700398249
626.105624574433 15745.53515157803
627.1044773157682 15734.905056645886
628.1030771646128 15868.059583069513
629.1014241988742 16046.12655712938
630.0995184964158 16188.619476105005
631.0973601350688 16310.785098924815
632.0949491926294 16412.204870724247
633.0922857468631 16156.60862575009
634.089369875499 16217.69207423548
635.0862016562278 16287.005282250224
636.0827811667077 16075.431778315755
637.0791084845641 16195.508863684887
638.0751836873878 16013.077786497777
639.0710068527369 15987.145779902701
640.0665780581294 15796.963580392912
641.0618973810506 15537.219660247149
642.0569648989604 15466.923035059004
643.0517806892676 15270.27016328525
644.0463448293649 15087.711225717023
645.040657396592 15042.17771985268
646.0347184682723 14843.658212661987
647.0285281216875 14723.512751988474
648.0220864340772 14520.576716891224
649.0153934826558 14395.561142074246
650.0084493446047 14405.17989503715
651.0012540970674 14197.191841538825
651.9938078171526 14153.31056049265
652.9861105819346 14060.883573620013
653.9781624684565 13910.076120569323
654.9699635537254 13846.28802959662
655.9615139147136 13862.240757736436
656.9528136283589 13680.843915523094
657.9438627715699 13681.569285417974
658.9346614212154 13578.047106053142
659.925209654135 13353.583439073298
660.9155075471263 13310.646218092172
661.9055551769616 13286.29962776857
662.895352620375 13317.665790690347
663.8848999540678 13161.778886073156
664.8741972547068 12973.883828704113
665.863244598926 12951.73420647835
666.8520420633213 13038.873939456274
667.8405897244611 12821.937350417928
668.8288876588758 12777.562820848127
669.8169359430613 12784.748355074315
670.8047346534822 12737.596899160966
671.7922838665672 12709.754910308304
672.7795836587156 12690.712227848937
673.766634106285 12804.68921097865
674.7534352856092 12714.760039973373
675.7399872729766 12666.977674305115
676.7262901446538 12744.44473346232
677.712343976862 12653.807231828145
678.6981488457986 12790.412747537452
679.6837048276229 12650.160149266552
680.6690119984596 12703.305365645614
681.6540704344043 12707.213714671638
682.6388802115107 12596.147308057012
683.6234414058108 12651.219135008236
684.6077540932874 12630.644364963418
685.591818349907 12719.059108396978
686.575634251587 12691.9820030426
687.5592018742263 12537.38047413588
688.5425212936734 12396.349234881163
689.5255925857564 12454.437588761368
690.5084158262707 12419.381703738843
691.4909910909646 12400.047119474508
692.4733184555644 12325.831336320372
693.4553979957618 12405.954239804378
694.4372297872123 12390.851444786236
695.4188139055404 12331.200632781884
696.4001504263324 12300.793323371645
697.3812394251509 12416.45441247602
698.3620809775111 12291.460888258702
699.3426751589104 12433.384599309547
700.3230220448004 12339.138153087166
701.3031217106054 12371.294436147014
702.2829742317172 12577.046115191783
703.2625796834873 12390.774114742911
704.2419381412474 12372.341869167669
705.22104968028 12502.291769613435
706.1999143758458 12571.417389565597
707.178532303169 12585.949688524775
708.1569035374378 12750.404345800862
709.1350281538107 12834.254187740667
710.1129062274158 12944.357492324296
711.0905378333373 13198.775574497715
712.0679230466376 13381.94834005641
713.0450619423427 13651.637953729465
714.0219545954424 13982.073141112118
714.9986010808989 14129.595714416577
715.9750014736292 14413.823509091759
716.9511558485392 14688.097385985127
717.9270642804786 14917.941315567878
718.9027268442787 15203.968087524272
719.8781436147328 15220.467349456598
720.8533146666014 15232.125408559481
721.828240074612 15169.449431903553
722.8029199134635 15164.87725736191
723.7773542578125 14882.981963530354
724.751543182294 14714.09430708253
725.7254867615029 14507.03316136669
726.6991850700015 14331.440259576839
727.6726381823228 14297.43819269307
728.6458461729599 14216.42113170993
729.6188091163858 14258.742884867566
730.5915270870246 14376.790708220531
731.5640001592856 14372.281322625422
732.536228407529 14622.951197580833
733.5082119060917 14737.042678634334
734.4799507292755 14830.237323661695
735.4514449513481 15048.025743949762
736.4226946465496 15133.579370381532
737.3936998890786 15029.65830351233
738.3644607531078 14888.163418622318
739.3349773127793 14702.601561013562
740.3052496421951 14536.746508877588
741.27527781543 14122.181825167645
742.2450619065221 13855.31124381359
743.2146019894826 13588.45615150694
744.183898138288 13305.583017974819
745.1529504268801 13034.237837963861
746.1217589291682 12679.204848687972
747.0903237190341 12504.09334945228
748.058644870318 12368.69628454599
749.0267224568397 12169.048698582688
749.994556552374 11973.443600390598
750.9621472306771 11844.040469830228
751.9294945654583 11739.44841595105
752.8965986304011 11704.517240049896
753.8634594991636 11545.308773318833
754.8300772453586 11625.552978598063
755.7964519425768 11546.268222967366
756.762583664371 11495.434700589045
757.7284724842611 11460.162984997518
758.6941184757416 11498.098260482915
759.6595217122667 11443.318681042585
760.6246822672638 11396.65325420221
761.5896002141235 11329.64207857529
762.5542756262093 11357.552688764159
763.5187085768503 11335.58415605872
764.4828991393406 11368.99852655338
765.4468473869474 11328.515219711766
766.4105533929032 11265.210886548166
767.3740172304078 11208.519722140227
768.3372389726283 11221.331837646507
769.3002186926988 11086.664705033258
770.2629564637282 11039.898753815567
771.2254523587872 10967.144468694763
772.1877064509154 10936.501745082403
773.1497188131179 10829.740062272464
774.1114895183728 10801.690752531755
775.0730186396268 10821.641572771347
776.0343062497905 10687.954367086104
776.9953524217381 10678.828769464566
777.9561572283274 10769.374982808413
778.9167207423689 10710.011431723671
779.8770430366476 10675.44225049505
780.8371241839159 10681.269970535559
781.7969642568951 10692.486815720467
782.7565633282757 10817.939241769589
783.7159214707099 10688.957151123208
784.6750387568281 10792.266911573897
785.6339152592227 10696.653165146538
786.5925510504512 10583.36055449666
787.5509462030477 10729.665485975216
788.5091007895098 10714.563491616775
789.4670148823006 10764.574968297515
790.4246885538596 10769.492919589879
791.3821218765861 10697.86913769675
792.3393149228505 10684.188833578297
793.2962677649975 10763.278949846115
794.2529804753303 10776.928724580372
795.20945312613 10787.36879016552
796.1656857896378 10717.502090303658
797.1216785380675 10757.12704241346
798.0774314435985 10861.49034210066
799.0329445783846 10901.841981766538
799.9882180145414 10946.951432707572
800.9432518241574 10928.047866992758
801.89804607929 11068.528548168637
802.852600851962 11050.848005142107
803.8069162141637 11107.225202732294
804.760992237856 11140.378808953235
805.714828994971 11133.15566737487
806.6684265574077 11206.699961811371
807.6217849970271 11053.95441828858
808.574904385674 11084.52269100377
809.527784795142 11082.887892686926
810.4804262972102 11085.515644348221
811.4328289636178 10901.641745901068
812.3849928660748 10830.996181753073
813.3369180762638 10834.405514457761
814.2886046658241 10739.395335857738
815.2400527063783 10683.451346696223
816.1912622695108 10576.066063503366
817.1422334267718 10502.713428294654
818.0929662496856 10447.886724394542
819.0434608097457 10349.25220593069
819.9937171784059 10297.963590020097
820.9437354271013 10269.282514947181
821.8935156272255 10214.862601259993
822.8430578501484 10065.448808640527
823.7923621672016 10084.064813235422
824.7414286496896 10127.141903967015
825.6902573688876 10050.817890742097
826.6388483960363 10159.381946768683
827.5872018023492 9939.343187848313
828.5353176590033 10023.091621204598
829.4831960371503 9966.506402341132
830.4308370079016 9961.221523968816
831.3782406423525 9949.741133777427
832.3254070115545 9935.33493975816
833.2723361865319 9850.570944754
834.2190282382799 9884.0982003663
835.1654832377644 9939.39215744225
836.1117012559116 9849.549512644026
837.0576823636256 9891.671813882434
838.003426631778 9752.76708068609
838.9489341312074 9786.943488023042
839.8942049327197 9881.868766601081
840.8392391070975 9932.703948406765
841.7840367250865 9835.453003261851
842.7285978573982 9775.766911111841
843.672922574724 9854.096307284319
844.6170109477152 9858.406837606837
845.560863046996 9837.404291334236
846.5044789431595 9833.77463478824
847.4478587067697 9858.433815568302
848.3910024083561 9920.737085479885
849.333910118421 9945.620097612831
850.2765819074339 9747.640469508548
851.2190178458332 9911.620780893783
852.161218004032 9874.016909731032
853.1031824524016 9829.703319540942
854.0449112612987 9832.412959897425
854.9864045010327 9855.49980977936
855.9276622418947 9829.031579575352
856.8686845541379 9870.323938866275
857.8094715079915 9847.685892061138
858.7500231736467 9945.769412968877
859.690339621271 9844.814105488727
860.6304209209939 9835.66264187762
861.5702671429244 9725.801881475596
862.5098783571284 9910.147927803197
863.4492546336569 9767.462395761208
864.3883960425155 9765.545742371147
865.3273026536863 9790.000846584275
866.2659745371238 9778.270558852917
867.2044117627465 9878.694712186389
868.1426144004472 9781.254061160904
869.0805825200823 9926.135708555037
870.0183161914847 9964.14359676195
870.9558154844526 9956.329808597313
871.8930804687552 9970.320707714023
872.8301112141307 9902.626040683883
873.7669077902865 10087.150556093271
874.7034702669062 10172.073173787268
875.6397987136315 10087.304228096516
876.5758932000863 10134.00633389422
877.5117537958522 10169.871859869043
878.4473805704911 10113.065492628983
879.3827735935283 10235.267169124274
880.3179329344603 10199.260617968364
881.2528586627541 10373.202745111468
882.1875508478479 10319.149972147083
883.1220095591489 10171.94102595263
884.0562348660296 10259.701915205063
884.9902268378391 10301.133355563255
885.9239855438955 10198.502204724637
886.8575110534839 10141.892227382325
887.7908034358588 10121.663980111854
888.7238627602474 10115.82977476175
889.6566890958475 10144.50642591609
890.5892825118208 9921.43605221126
891.5216430773125 9920.781624018291
892.4537708614189 9875.167337635694
893.3856659332196 9868.329886141497
894.3173283617652 9784.956201007928
895.2487582160684 9772.10051938565
896.179955565116 9727.343546359154
897.110920477864 9694.930889765865
898.0416530232451 9603.085044497537
898.9721532701478 9533.656557906135
899.9024212874428 9630.125019999145
900.8324571439662 9501.329661372123
901.7622609085302 9516.182378651443
902.6918326499072 9478.55467978113
903.6211724368477 9527.8372513587
904.5502803380696 9576.948244465448
905.4791564222614 9583.04162289824
906.4078007580792 9519.892844390652
907.3362134141571 9523.092721376901
908.2643944590909 9545.35342804624
909.1923439614493 9466.985788268634
910.1200619897754 9478.099231827822
911.0475486125779 9595.667931595004
911.9748038983344 9500.083969346964
912.9018279155007 9454.797778635217
913.8286207324982 9428.227531344808
914.7551824177117 9445.152381274704
915.6815130395116 9413.801546178389
916.6076126662283 9365.64841552981
917.533481366163 9430.184683887066
918.4591192075914 9354.09419557785
919.3845262587565 9389.233346474588
920.3097025878706 9312.796422047166
921.2346482631237 9396.014126409702
922.1593633526682 9465.830061212342
923.0838479246304 9342.64297675867
924.0081020471061 9437.05617285485
924.9321257881656 9251.864428422828
925.8559192158464 9296.643838860686
926.7794823981512 9244.566006597854
927.7028154030686 9247.512867451596
928.6259182985414 9162.001483730432
929.5487911524906 9369.199115248119
930.4714340328119 9331.142617133431
931.3938470073608 9182.107546766823
932.3160301439748 9215.635922890464
933.2379835104548 9303.593024531503
934.1597071745709 9275.414433499911
935.0812012040769 9234.956608317765
936.002465666681 9222.359821959762
936.9235006300696 9239.740709651123
937.8443061619055 9201.306948616733
938.7648823298077 9091.316805645378
939.6852292013809 9029.164902890987
940.6053468441951 9088.999439969399
941.5252353257874 9111.00402137568
942.4448947136698 9106.945858593113
943.364325075323 9021.87996302393
944.2835264782043 9076.087675741777
945.2024989897309 9101.623149621239
946.1212426773054 9109.554178720795
947.0397576082851 9177.771042431075
947.9580438500125 9234.181127836478
948.8761014697939 9262.98576189475
949.7939305349064 9230.245009458986
950.7115311125999 9125.122801152871
951.6289032700952 9171.049260765018
952.5460470745875 9179.223419847793
953.4629625932339 9265.173659007753
954.3796498931715 9281.930047502789
955.2961090415029 9365.720248655904
956.2123401053068 9305.472230890933
957.1283431516276 9224.44406433524
958.0441182474842 9213.653182875078
958.9596654598663 9323.79038434605
959.8749848557309 9168.930167658116
960.7900765020167 9125.963081207576
961.7049404656209 9126.768776243467
962.6195768134185 9274.08497065064
963.5339856122537 9275.079162102553
964.4481669289453 9262.950455203048
965.3621208302793 9202.178267927082
966.2758473830145 9155.098481480558
967.1893466538822 9301.313428901218
968.1026187095813 9166.871398260935
969.0156636167867 9064.376947309318
969.9284814421426 9212.53956023981
970.8410722522622 9095.61380455861
971.753436113735 9084.659429102237
972.6655730931161 9020.004148293898
973.5774832569368 9107.808483370472
974.4891666716958 9008.95190500623
975.4006234038698 8960.388666110688
976.3118535198955 8920.590027207169
977.2228570861935 9092.235532412442
978.1336341691494 9068.366009902717
979.0441848351202 8904.649623293517
979.9545091504333 9019.942827326262
980.864607181391 8981.010994119399
981.7744789942699 9013.373378390193
982.6841246553086 8980.803026587104
983.5935442307236 9017.53639554555
984.5027377867027 8896.962335267363
985.4117053894024 9023.618990887257
986.3204471049557 8969.60480145362
987.2289629994648 8954.4038327985
988.1372531390007 8987.36852030343
989.0453175896091 9088.08671807506
989.9531564173067 9079.534994405029
990.860769688079 8984.822442373936
991.7681574678918 9032.69573904804
992.6753198226706 9086.55455148521
993.582256818323 9033.786992174171
994.4889685207218 9006.61488424815
995.3954549957143 9195.773621585053
996.301716309119 9125.965013344769
997.2077525267232 9167.544352873356
998.1135637142943 9022.84339994772
999.0191499375615 9224.261452172625
999.924511262232 9119.3034719213
1000.8296477539861 9196.355288790715
1001.7345594784656 9106.421305089152
1002.6392465012996 9048.801532015641
1003.5437088880753 9186.22001450494
1004.4479467043584 9174.768133102163
1005.3519600156869 9009.621041212053
1006.2557488875718 9058.340908138198
1007.1593133854858 9050.521866874768
1008.0626535748888 9060.325867335121
1008.9657695212009 8896.635440068503
1009.8686612898182 9093.944689596608
1010.7713289461135 8993.446119742735
1011.6737725554212 9008.27477163262
1012.5759921830577 8930.641308371609
1013.4779878943027 8976.611002315545
1014.379759754418 8911.67025002003
1015.2813078286254 8776.209379231888
1016.18263218213 8777.399865437283
1017.0837328801026 8831.714366022565
1017.9846099876886 8844.489933000648
1018.8852635700023 8791.713169800969
1019.7856936921362 8731.470939425697
1020.6859004191447 8856.13220513033
1021.5858838160675 8697.791690756078
1022.4856439479063 8686.094939939358
1023.3851808796389 8651.279564917619
1024.2844946762143 8752.669591655826
1025.183585402554 8683.297347287089
1026.082453123554 8461.769845933972
1026.9810979040776 8586.375453819614
1027.8795198089647 8556.069458728165
1028.777718903024 8566.168063549256
1029.6756952510368 8572.503880248878
1030.5734489177648 8531.370454407399
1031.4709799679313 8593.222804127588
1032.3682884662358 8650.67516467554
1033.2653744773506 8485.666536050814
1034.1622380659192 8561.161671718555
1035.058879296559 8673.038646899413
1035.9552982338591 8654.906299309776
1036.8514949423825 8708.54078926633
1037.7474694866614 8684.807460090264
1038.6432219312028 8747.152482343497
1039.5387523404825 8863.931539979467
1040.4340607789582 8816.632184268099
1041.3291473110476 8940.27881279682
1042.2240120011465 9046.005784955618
1043.1186549136273 9199.425810718289
1044.0130761128294 9142.222893698978
1044.9072756630649 9217.276742281345
1045.8012536286205 9354.338562990768
1046.6950100737577 9331.813730681382
1047.588545062701 9499.372900968836
1048.481858659663 9523.672986645719
1049.3749509288118 9496.462059185325
1050.2678219343034 9502.078404241596
1051.1604717402515 9480.389965181614
1052.0529004107575 9410.95746623996
1052.9451080098825 9367.30603385132
1053.8370946016694 9369.088651704053
1054.7288602501267 9358.000200691791
1055.6204050192446 9188.915749393746
1056.511728972977 9237.150757800175
1057.402832175254 9040.794562669305
1058.2937146899785 9058.062018145447
1059.1843765810263 8934.474920122084
1060.0748179122456 9037.306935387118
1060.9650387474576 8940.69536558749
1061.855039150456 8921.101272591393
1062.7448191850071 8819.404996313227
1063.6343789148505 8932.927999601628
1064.5237184037014 8924.447807796392
1065.412837715241 8941.548964944499
1066.3017369131267 8727.70485452671
1067.190416060992 8807.208325754533
1068.0788752224398 8719.212912490118
1068.9671144610438 8691.256566629203
1069.8551338403558 8726.33658271981
1070.7429334239023 8672.341337287635
1071.6305132751695 8624.047061554129
1072.517873457633 8711.198049770443
1073.4050140347335 8578.436442022505
1074.2919350698776 8673.94607414566
1075.1786366264623 8679.794269126498
1076.0651187678395 8607.82925843849
1076.95138155735 8508.796571129673
1077.8374250582929 8593.871418555895
1078.7232493339507 8598.679604053199
1079.608854447577 8486.53125590232
1080.4942404623907 8502.36847968795
1081.3794074415982 8697.587441161826
1082.2643554483657 8637.765271857668
1083.149084545841 8616.016049888083
1084.033594797138 8586.206261848885
1084.9178862653516 8658.918024808963
1085.8019590135427 8791.603828363402
1086.6858131047484 8589.869508572685
1087.5694486019802 8746.8039364203
1088.4528655682225 8744.131457813848
1089.3360640664287 8836.276078193881
1090.2190441595321 8874.968938138236
1091.1018059104317 8900.204719820069
1091.98434938201 8963.95113352766
1092.866674637111 8994.732720321383
1093.748781738559 8892.506787991986
1094.6306707491512 8882.25732323885
1095.5123417316554 8975.723860327758
1096.3937947488157 8879.551200017979
1097.2750298633455 8953.363848206976
1098.156047137938 8843.654344817343
1099.0368466352556 8907.384023312194
1099.9174284179317 8971.388942100795
1100.7977925485757 8822.043252604568
1101.6779390897755 8820.730194226842
1102.5578681040806 8860.825743741325
1103.4375796540226 8721.740503313875
1104.3170738021054 8712.164302984205
1105.1963506108077 8539.591479552602
1106.0754101425773 8488.781560811341
1106.9542524598382 8506.975308586345
1107.8328776249855 8481.098127558944
1108.7112857003904 8374.962622400157
1109.5894767483987 8365.32796145833
1110.4674508313292 8378.620639401104
1111.3452080114657 8401.31954557112
1112.2227483510815 8300.654290592944
1113.1000719124077 8519.713740670295
1113.9771787576592 8489.295859847767
1114.854068949022 8420.659494989613
1115.7307425486542 8441.85579228534
1116.6071996186893 8502.117114529521
1117.483440221229 8676.979548869253
1118.3594644183577 8606.125760005307
1119.235272272128 8626.608297283128
1120.1108638445658 8727.391894311422
1120.9862391976712 8849.681802435105
1121.8613983934229 8865.719130812407
1122.7363414937627 8873.572215089738
1123.6110685606182 9072.910426899261
1124.485579655884 9135.980334943943
1125.359874841426 9062.180057328109
1126.2339541790916 9125.802796424643
1127.1078177306936 9273.836413774909
1127.9814655580267 9070.000927402707
1128.854897722851 9275.419802690045
1129.7281142869106 9247.713551284705
1130.6011153119125 9230.736646333358
1131.473900859548 9420.91469580113
1132.3464709914697 9197.026168369495
1133.2188257693178 9178.787285555463
1134.0909652546961 9128.99359664494
1134.96288950919 8987.157651169928
1135.8345985943506 9089.53185800096
1136.7060925717087 8896.303042022146
1137.57737150277 8931.722142852006
1138.4484354490069 8802.527336195004
1139.3192844718778 8767.876912784286
1140.1899186327992 8598.338098272023
1141.060337993178 8672.354266895389
1141.930542614382 8577.559514738148
1142.8005325577597 8467.368468400398
1143.670307884635 8284.522593775806
1144.5398686563003 8372.31512970184
1145.409214934025 8267.339492554296
1146.2783467790541 8085.543732951752
1147.1472642526023 8165.982680163506
1148.0159674158622 8152.5091164760115
1148.8844563300026 8054.939745578451
1149.7527310561618 7977.835692905409
1150.6207916554504 7999.9375257328165
1151.4886381889592 7974.957545900283
1152.3562707177498 7976.947533645058
1153.2236893028585 7913.990160169373
1154.090894005296 7913.745105185977
1154.9578848860474 7936.115092982184
1155.8246620060709 7880.55468603918
1156.6912254262988 7883.499499942969
1157.5575752076438 7829.037120594776
1158.42371141098 8005.684253086921
1159.2896340971656 7976.696638042134
1160.1553433270346 7862.833509627204
1161.0208391613887 7877.5229496511965
1161.8861216610057 7844.093266391968
1162.75119088664 7818.790031335538
1163.6160468990201 7869.137910391803
1164.4806897588442 7706.996957996065
1165.3451195267917 7750.349931893911
1166.2093362635114 7758.827113538589
1167.0733400296285 7733.024390122923
1167.9371308857444 7735.799037157549
1168.8007088924278 7744.749621283027
1169.6640741102328 7710.750522837161
1170.5272265996773 7659.074611554723
1171.390166421259 7657.39504977835
1172.252893635452 7802.1493300803
1173.1154083026995 7815.590889171833
1173.977710483421 7787.445445656869
1174.8398002380145 7635.656952110669
1175.7016776268483 7836.710260367376
1176.563342710264 7711.61170711068
1177.4247955485826 7724.817428014079
1178.2860362020947 7728.963054685259
1179.147064731069 7659.515349016789
1180.0078811957483 7861.390063203995
1180.8684856563486 7890.04221092386
1181.7288781730604 7827.379968645442
1182.589058806052 7949.301634274476
1183.4490276154593 7966.643449486391
1184.3087846614017 7795.814749834545
1185.1683300039676 8030.457942394981
1186.027663703222 8117.204056531251
1186.8867858192025 8033.627522349157
1187.7456964119228 8181.090958131853
1188.6043955413716 8190.205482081772
1189.4628832675116 8204.49100509054
1190.3211596502842 8283.27731794208
1191.179224749596 8270.699876230126
1192.0370786253388 8247.664596278502
1192.8947213373758 8394.350453516894
1193.7521529455407 8481.873301060621
1194.6093735096438 8235.423727455225
1195.466383089477 8347.862353449766
1196.3231817447977 8355.845772706214
1197.1797695353398 8377.397669253132
1198.0361465208189 8363.806368609261
1198.8923127609214 8300.22593135822
1199.7482683153048 8462.479967931813
1200.6040132436028 8501.135159220137
1201.459547605431 8385.260818202909
1202.3148714603722 8389.381569842863
1203.1699848679855 8389.12750898171
1204.0248878878065 8473.773706838234
1204.8795805793507 8233.81844044437
1205.7340630020935 8361.559350439184
1206.5883352155033 8324.852827739838
1207.4423972790064 8328.672137296822
1208.2962492520237 8166.710189567127
1209.1498911939307 8215.857002094748
1210.0033231640937 8181.895858947564
1210.8565452218427 8216.14199968657
1211.7095574264913 8042.146291598093
1212.5623598373222 7953.736847609832
1213.4149525135963 7974.689335431229
1214.2673355145507 7979.844247013655
1215.1195088993936 7871.376758735578
1215.9714727273113 7872.4433147170075
1216.8232270574663 7923.640014528935
1217.6747719489904 7779.707989392072
1218.5261074609934 7797.344320003904
1219.3772336525653 7749.143886955785
1220.2281505827668 7880.951301783641
1221.0788583106296 7796.822098583672
1221.9293568951707 7648.313601050388
1222.7796463953746 7674.557640966052
1223.629726870202 7748.947157808002
1224.4795983785934 7650.015406797027
1225.3292609794553 7580.142419403574
1226.1787147316809 7523.122289721597
1227.0279596941327 7614.524204183644
1227.8769959256424 7674.814580411528
1228.7258234850306 7602.107440981305
1229.5744424310833 7494.031133135623
1230.422852822563 7672.332141215355
1231.2710547182105 7628.497555289301
1232.119048176739 7541.519952833887
1232.9668332568417 7459.724910569816
1233.8144100171812 7581.773388395732
1234.6617785163999 7568.251169100923
1235.508938813111 7428.972144218953
1236.3558909659114 7521.735074565356
1237.2026350333617 7584.347792436289
1238.049171074008 7595.0481908457905
1238.8954991463652 7460.861227734686
1239.741619308932 7549.118629914234
1240.587531620169 6378.612636386564
1241.4332361385277 7585.492971250489
1242.2787329224248 7395.9999234583065
1243.1240220302534 7393.827276978989
1243.9691035203869 7458.006856505459
1244.813977451171 7625.165381372071
1245.6586438809263 7524.248179610464
1246.5031028679496 7318.6981019568675
1247.3473544705157 7560.655491702858
1248.1913987468706 7533.161101787695
1249.0352357552383 7415.461532350315
1249.8788655538228 7394.631527979103
1250.7222882007918 7580.230595243995
1251.565503754302 7580.942149528234
1252.4085122724755 7358.0159820926565
1253.2513138134182 7609.16347056416
1254.0939084352049 7558.335312723891
1254.9362961958905 7548.14073083105
1255.7784771535007 7577.493532951601
1256.6204513660432 7626.063782248029
1257.4622188915 7747.655231634218
1258.3037797878242 7621.200825300509
1259.1451341129468 7551.784959424619
1259.9862819247755 7718.740851085795
1260.8272232811978 7719.559098426142
1261.6679582400666 7779.119216050875
1262.5084868592203 7699.0793117147405
1263.34880919647 7639.921878321105
1264.1889253095997 7703.121053406522
1265.0288352563712 7723.309743073875
1265.8685390945266 7628.884116708477
1266.7080368817751 7678.2097766762645
1267.5473286758115 7773.168044702734
1268.386414534294 7747.014263859601
1269.2252945148703 7618.550660111362
1270.0639686751547 7688.35084051319
1270.9024370727402 7726.474202876052
1271.7406997651997 7683.955544498125
1272.5787568100714 7534.501983704036
1273.4166082648808 7607.2326799160555
1274.2542541871244 7522.671165931968
1275.091694634275 7790.765036417228
1275.9289296637817 7494.661071793524
1276.7659593330663 7674.481175022462
1277.6027836995308 7589.2748076644475
1278.4394028205552 7625.917087239924
1279.2758167534867 7530.095004995184
1280.112025555658 7507.117384076463
1280.9480292843746 7629.089990682291
1281.7838279969128 7448.114620849812
1282.6194217505326 7546.349193014323
1283.4548106024686 7424.320183407472
1284.289994609926 7541.751640927355
1285.1249738300921 7697.029862301542
1285.959748320127 7510.631853463284
1286.7943181371702 7593.155001190459
1287.6286833383328 7585.979893352599
1288.4628439807038 7621.420396227266
1289.2968001213521 7611.84714675386
1290.1305518173194 7604.140394250772
1290.9640991256183 7655.701639435638
1291.7974421032523 7692.011313618843
1292.630580807183 7625.482476467124
1293.463515294361 7757.614798705983
1294.29624562171 7905.699831295807
1295.12877184613 7829.644227591036
1295.961094024493 7752.935133230964
1296.79321221365 7840.600667494323
1297.6251264704333 8051.571371818728
1298.4568368516466 8061.446948744316
1299.2883434140658 8044.125967325298
1300.1196462144526 7995.0575714484075
1300.9507453095375 8159.904084540785
1301.7816407560313 8237.674590519011
1302.6123326106172 8155.4976027041685
1303.4428209299622 8217.550922857947
1304.2731057707024 8388.835963422858
1305.1031871894502 8373.360470838756
1305.933065242798 8274.39524255403
1306.7627399873181 8333.511589976664
1307.5922114795467 8651.660335717132
1308.4214797760123 8491.143973672446
1309.2505449332057 8436.834227412091
1310.0794070076026 8518.60990284935
1310.9080660556538 8661.00447427922
1311.736522133786 8669.278744000507
1312.5647752983987 8610.994638243228
1313.3928256058734 8479.517842020121
1314.2206731125661 8672.908279620347
1315.048317874809 8681.158114162456
1315.8757599489109 8651.14178828109
1316.7029993911547 8630.18261831832
1317.5300362578055 8862.169921722381
1318.356870605101 8717.739160755566
1319.183502489257 8631.875489648492
1320.0099319664623 8772.719521080306
1320.836159092889 8848.7187126832
1321.66218392468 8860.229501088465
1322.4880065179532 8646.829410040016
1323.3136269288134 8814.063824498207
1324.1390452133292 8781.585782068685
1324.9642614275563 8807.14755346279
1325.7892756275214 8663.719477376815
1326.6140878692295 8608.069254959399
1327.4386982086617 8850.464362140981
1328.2631067017755 8555.385970527705
1329.0873134045069 8558.298022954677
1329.911318372764 8435.988511510226
1330.735121662441 8394.933021820749
1331.558723329399 8408.734355169348
1332.3821234294774 8361.771966414404
1333.2053220185007 8298.15289473473
1334.0283191522612 8164.089370723041
1334.851114886529 8114.5800064995465
1335.6737092770582 8056.386422202808
1336.4961023795695 8024.49562377187
1337.3182942497697 7952.687231376008
1338.1402849433325 7841.89071691034
1338.962074515921 7798.1165074941555
1339.7836630231632 7638.498992101228
1340.6050505206676 7890.870047577952
1341.426237064028 7792.197533295041
1342.2472227088037 7560.644394199726
1343.0680075105338 7478.653321530814
1343.888591524741 7659.337227143292
1344.7089748069138 7632.138662418525
1345.5291574125276 7563.429998494355
1346.3491393970307 7388.808484614982
1347.168920815846 7563.671454902853
1347.9885017243778 7485.81165510272
1348.8078821780036 7375.523921313807
1349.6270622320844 7418.400540368729
1350.4460419419447 7254.085715413683
1351.2648213629054 7329.068055495294
1352.0834005502438 7195.118245609838
1352.90177955923 7132.508386004161
1353.7199584451064 7298.560820823135
1354.5379372630887 7210.617125951796
1355.355716068374 7269.668022734244
1356.1732949161305 7127.08495481462
1356.9906738615155 7167.273712788391
1357.8078529596478 7166.895153889241
1358.6248322656375 7156.262329429688
1359.441611834567 7100.118067484745
1360.2581917214866 7168.6021657596775
1361.0745719814367 7137.299887087303
1361.890752669433 7086.434612411077
1362.7067338404577 7076.479797161602
1363.5225155494845 7093.7767826746785
1364.3380978514506 7045.913154054768
1365.1534808012839 6968.666078279227
1365.9686644538815 6761.443120537088
1366.783648864117 7142.089899783544
1367.5984340868417 7126.162243403664
1368.413020176893 6991.695217390239
1369.2274071890715 6856.231920906614
1370.0415951781652 6971.564621541092
1370.8555841989346 7000.630985601327
1371.6693743061223 6835.300714578977
1372.48296555444 6806.315117866958
1373.2963579985844 7017.848240956092
1374.1095516932255 6867.238464681315
1374.9225466930166 6800.680910775614
1375.7353430525782 6904.2654412663005
1376.5479408265164 6854.861814992504
1377.36034006941 6917.078426267768
1378.1725408358216 6905.149532427355
1378.9845431802805 6831.7439167845805
1379.796347157304 6990.438678758695
1380.6079528213813 6979.623222679179
1381.4193602269788 6720.785549586598
1382.230569428546 6760.140291036469
1383.0415804805016 6942.184077378693
1383.852393437246 6875.977467710391
1384.6630083531563 7000.298792232752
1385.4734252825892 6884.041121153881
1386.2836442798798 6987.95852377848
1387.0936653993322 6983.232221340237
1387.9034886952395 6839.540754900464
1388.713114221864 6911.966109196828
1389.5225420334482 6927.785661718524
1390.331772184214 6991.98920248465
1391.1408047283585 6835.098574271098
1391.9496397200564 6928.221791060563
1392.758277213461 6997.586399324877
1393.5667172627054 6989.152552451478
1394.3749599218918 6948.714468772365
1395.1830052451114 6890.2866282032555
1395.9908532864265 6909.545189353072
1396.7985040998774 7008.762083124372
1397.6059577394808 6867.370545931297
1398.4132142592352 6836.838284504745
1399.2202737131156 6834.038944671945
1400.027136155073 6934.961031404647
1400.8338016390353 6799.69644551806
1401.6402702189134 6959.2328004079345
1402.446541948586 6900.566006874624
1403.2526168819204 6807.275408473351
1404.058495072757 6711.775593700424
1404.8641765749107 6819.965879188132
1405.6696614421799 6845.319620976821
1406.4749497283356 6949.202579773369
1407.280041487129 6675.1297837525435
1408.084936772295 6619.266881583159
1408.8896356375335 6793.753599708119
1409.6941381365323 6752.369485536445
1410.498444322955 6617.287486582638
1411.3025542504402 6733.611435172788
1412.106467972606 6698.906984485098
1412.9101855430508 6665.951381425771
1413.7137070153458 6552.248932962126
1414.5170324430437 6640.809564245942
1415.320161879672 6665.562735119725
1416.1230953787435 6732.617828477001
1416.925832993742 6545.168398949932
1417.7283747781275 6572.485510321649
1418.5307207853439 6568.70198694632
1419.3328710688093 6675.483259012755
1420.134825681922 6488.539455335876
1420.9365846780584 6579.174747186546
1421.7381481105713 6738.563043495153
1422.539516032788 6643.80703858047
1423.3406884980232 6498.595720308868
1424.1416655595604 6550.845771857183
1424.942447270665 6720.288069115527
1425.7430336845828 6844.33022038007
1426.5434248545298 6712.788416624263
1427.3436208337116 6832.339436931058
1428.143621675301 6961.5330643567695
1428.9434274324558 7075.244126149689
1429.7430381583108 6854.443202343211
1430.5424539059713 6987.410147478453
1431.3416747285337 7248.861956678915
1432.1407006790632 7163.301109831268
1432.9395318106053 7135.55648651776
1433.7381681761835 7020.868196670635
1434.5366098288014 7177.749914204571
1435.3348568214424 7098.598195097878
1436.1329092070573 7042.241584072991
1436.9307670385879 7212.583700113804
1437.7284303689503 7401.894768913825
1438.5258992510335 7304.146295338165
1439.3231737377118 7195.088096388036
1440.1202538818306 7237.790104265936
1440.9171397362225 7190.443461077445
1441.7138313536925 7192.773044014417
1442.5103287870243 7124.563094848012
1443.3066320889775 7036.231475220101
1444.1027413122956 7110.435921594192
1444.8986565096966 7095.919539808972
1445.694377733882 6985.429822467212
1446.4899050375207 6783.219436022165
1447.2852384732687 6970.975994818172
1448.0803780937622 6829.653405480452
1448.8753239516063 6765.931760523675
1449.6700760993954 6609.789470690435
1450.464634589689 6715.703454355872
1451.2589994750397 6830.843069004886
1452.0531708079689 6529.188916697911
1452.8471486409799 6497.601080402014
1453.6409330265524 6710.122230227501
1454.4345240171442 6544.420184509778
1455.2279216651987 6523.007310731055
1456.0211260231263 6409.020710847393
1456.8141371433194 6703.740896399218
1457.6069550781594 6533.669386655168
1458.3995798799897 6300.807416053531
1459.1920116011424 6320.088067448791
1459.98425029393 6379.464795466985
1460.7762960106338 6218.5794060528215
1461.5681488035225 6348.745898805706
1462.3598087248392 6421.324849632205
1463.1512758268036 6335.461431251238
1463.942550161617 6173.621322744844
1464.7336317814625 6174.827895176952
1465.524520738496 6264.1620650248515
1466.3152170848552 6092.578769131296
1467.1057208726506 6080.860605754506
1467.8960321539817 6070.194806242937
1468.6861509809169 5904.826543000405
1469.4760774055085 6021.756720448915
1470.265811479785 5898.325175138973
1471.055353255755 5808.486323258651
1471.844702785409 5898.986259229342
1472.6338601207044 5830.606951333082
1473.4228253135934 5848.016928477964
1474.2115984159936 5795.905611518647
1475.0001794798063 5675.399298582264
1475.7885685569145 5763.232890654353
1476.576765699172 5732.04690913372
1477.3647709584238 5691.507871069867
1478.1525843864802 5844.069302776943
1478.9402060351367 5646.420586677003
1479.7276359561693 5654.659967930836
1480.514874201328 5565.20270915924
1481.3019208223468 5516.710399776974
1482.0887758709323 5411.894377593416
1482.8754393987747 5621.39091696253
1483.6619114575406 5473.34677405908
1484.4481920988783 5520.5446492374795
1485.2342813744108 5555.527105708308
1486.0201793357446 5613.821220527743
1486.8058860344572 5474.970727591297
1487.591401522117 5456.501825915786
1488.3767258502594 5407.259670158659
1489.1618590704056 5521.932251878097
1489.9468012340494 5302.200327865107
1490.7315523926754 5539.460805405312
1491.5161125977356 5689.482365631331
1492.3004819006637 5507.899734173812
1493.084660352877 5432.02904979958
1493.8686480057622 5575.974626341911
1494.6524449106964 5678.2617455888085
1495.4360511190262 5686.910997103196
1496.219466682087 5621.516082681356
1497.0026916511779 5680.9252575974715
1497.7857260775945 5466.550466510075
1498.5685700125996 5673.094461956692
1499.3512235074395 5466.256970158215
1500.133686613337 5446.095007596703
1500.9159593814966 5371.474698482287
1501.698041863101 5649.5440810606215
1502.4799341093094 5444.553249673335
1503.2616361712662 5326.027750831108
1504.043148100087 5499.767002357412
1504.8244699468742 5484.631386055428
1505.6056017626997 5378.298470266141
1506.3865435986281 5393.80806730408
1507.1672955056893 5454.229557139867
1507.9478575348967 5433.977087950583
1508.7282297372512 5621.045417661691
1509.5084121637192 5451.258606960858
1510.2884048652577 5494.656092155556
1511.0682078927948 5481.220479771089
1511.8478212972423 5515.105198992257
1512.6272451294917 5379.611491671641
1513.4064794404076 5578.706457810282
1514.1855242808433 5598.245218949889
1514.9643797016215 5498.3331222856705
1515.743045753552 5518.087790879254
1516.5215224874191 5586.03928158176
1517.2998099539836 5468.64315299205
1518.077908203999 5662.754574560223
1518.8558172881785 5496.128528146631
1519.633537257234 5634.596166534024
1520.4110681618404 5611.855932648681
1521.1884100526604 5596.033696416054
1521.9655629803365 5469.66049336872
1522.7425269954856 5767.621770530297
1523.5193021487103 5858.446789160218
1524.2958884905856 5580.481884569945
1525.0722860716687 5666.172164665326
1525.848494942502 5675.198637939817
1526.624515153595 5691.50221552087
1527.4003467554485 5727.433152468637
1528.175989798534 5715.417720677471
1528.9514443333064 5691.644660278915
1529.726710410203 5892.494967481025
1530.5017880796331 5713.43127988052
1531.276677391992 5659.784806424534
1532.0513783976457 5934.7615222477825
1532.825891146953 5725.377784367492
1533.6002156902414 5750.938780123046
1534.3743520778207 5669.564002945216
1535.1483003599806 5727.243786286477
1535.9220605869923 5696.0479755741135
1536.6956328091019 5778.356535680452
1537.4690170765407 5645.52087932702
1538.242213439511 5735.409856950756
1539.015221948208 5658.783399480005
1539.78804265279 5762.892737668086
1540.560675603405 5512.8861598672
1541.3331208501804 5703.308109984008
1542.1053784432224 5743.06203316061
1542.8774484326168 5556.433139446321
1543.649330868422 5706.567063287158
1544.4210258006842 5531.844069813094
1545.1925332794308 5689.716471692422
1545.9638533546604 5648.251375646222
1546.7349860763552 5534.619957970042
1547.5059314944829 5756.582518779958
1548.27668965898 5552.162796248712
1549.0472606197673 5671.605091979199
1549.817644426752 5475.063514102696
1550.5878411298072 5635.453154173376
1551.3578507787988 5533.22967016805
1552.1276734235635 5550.312900907993
1552.8973091139233 5600.790451820298
1553.6667578996767 5764.847342898871
1554.436019830604 5587.188053177517
1555.20509495646 5546.131062532903
1555.9739833269869 5466.827036489959
1556.7426849919011 5537.6110938938455
1557.511200000903 5765.715353970418
1558.2795284036674 5726.429700512433
1559.0476702498509 5708.414236893218
1559.8156255890954 5637.713068624472
1560.5833944710157 5879.375880952852
1561.3509769452048 5620.641189264525
1562.1183730612447 5583.842168075235
1562.8855828686865 5623.187856901652
1563.6526064170703 5859.186884455628
1564.4194437559127 5695.677885407115
1565.1860949347047 5668.572888527995
1565.9525600029283 5845.214427575866
1566.7188390100328 5830.230840878713
1567.4849320054564 5586.403825195254
1568.250839038612 5632.662839556884
1569.0165601588997 5576.033395217883
1569.7820954156887 5705.728016453566
1570.5474448583373 5555.894621927692
1571.31260853618 5701.327267817896
1572.0775864985299 5454.525127282584
1572.8423787946813 5713.412570336262
1573.6069854739108 5607.691166729161
1574.371406585471 5588.628563127348
1575.1356421785986 5808.226950596878
1575.899692302506 5508.81430046055
1576.6635570063845 5700.276437890712
1577.4272363394157 5719.140229775459
1578.190730350747 5499.743291506799
1578.9540390895163 5633.750920587343
1579.7171626048384 5483.119800797635
1580.480100945806 5471.630409471551
1581.2428541614918 5480.996065904868
1582.0054223009538 5501.37908813741
1582.767805413223 5484.521142254454
1583.5300035473156 5568.304940130284
1584.292016752228 5618.386161770658
1585.0538450769309 5483.075586475841
1585.8154885703807 5462.71496816228
1586.5769472815136 5311.3256942635335
1587.3382212592405 5494.773630814725
1588.099310552463 5537.562977387419
1588.8602152100484 5264.845567681791
1589.6209352808564 5597.928577990332
1590.3814708137234 5353.235945623055
1591.14182185746 5248.265220263892
1591.9019884608679 5428.683561503347
1592.6619706727215 5183.300906334215
1593.4217685417734 5468.566077869157
1594.1813821167616 5421.213904424957
1594.9408114464022 5163.324052474351
1595.7000565793933 5396.829379407694
1596.459117564409 5283.240177230722
1597.2179944501113 5155.025270458504
1597.9766872851324 5154.438111394795
1598.735196118092 5342.668058304671
1599.4935209975883 5313.583185125303
1600.2516619721973 5361.63753958652
1601.0096190904787 5163.910453798843
1601.7673924009723 5246.135363411189
1602.524981952196 5097.889493906356
1603.2823877926476 5138.1041838505425
1604.0396099708087 5136.180442930694
1604.7966485351371 4995.41854770047
1605.5535035340745 5156.154300360884
1606.3101750160404 5335.570811916007
1607.0666630294363 5143.335671598983
1607.822967622642 5083.6226376702625
1608.5790888440224 5063.773197349854
1609.3350267419137 5135.264240196445
1610.0907813646445 5089.484927425851
1610.8463527605145 5051.382109659224
1611.601740977805 5165.616527280679
1612.356946064785 5188.704668149056
1613.1119680696902 4890.971364104935
1613.8668070407512 5015.848826102097
1614.6214630261748 4937.818955408415
1615.375936074137 5118.5461711218495
1616.1302262328118 5028.380249727621
1616.8843335503425 5084.261254530801
1617.638258074854 4961.494178113526
1618.391999854457 5089.580310657572
1619.1455589372363 5115.062192227217
1619.8989353712623 5119.323192765357
1620.65212920458 4874.149926108658
1621.4051404852235 4991.719024437153
1622.1579692611976 4790.62677484604
1622.9106155804966 4888.809492561828
1623.663079491087 5003.185194424794
1624.4153610409248 4973.057253226891
1625.1674602779385 4828.392087639641
1625.9193772500403 4756.882291677894
1626.6711120051277 5094.103081582205
1627.4226645910676 4916.000398891224
1628.174035055721 4867.117814484823
1628.9252234469168 4899.725299605079
1629.676229812474 4987.723219162008
1630.4270542001905 5067.644171962278
1631.1776966578382 4987.594610975043
1631.9281572331747 4919.9883792739965
1632.678435973945 5040.947115057603
1633.4285329278573 4978.610445329534
1634.1784481426203 4855.714386940907
1634.9281816659113 4910.4718662127925
1635.677733545388 5022.549720500095
1636.4271038286934 4988.07309350534
1637.176292563452 5170.135553795266
1637.9252997972635 5058.150334296633
1638.674125577716 5124.147154050873
1639.4227699523672 5194.73291211619
1640.171232968767 4954.551345857067
1640.9195146744423 5007.640187673697
1641.6676151168977 5167.900838496562
1642.4155343436178 5060.082588387724
1643.1632724020765 5079.59739718446
1643.9108293397167 5124.064451017579
1644.658205203974 5002.649452242402
1645.4054000422566 5432.755982784247
1646.1524139019566 5103.476063870296
1646.8992468304423 5118.609883245415
1647.6458988750728 5083.282977120428
1648.3923700831765 5266.236584631037
1649.1386605020743 5101.470000229559
1649.8847701790564 5251.440087967611
1650.6306991614038 5204.267193024765
1651.3764474963682 5222.568461438736
1652.1220152311944 4971.168773017324
1652.867402413096 5205.662956843992
1653.6126090892776 5151.429303017616
1654.3576353069184 5295.885303215977
1655.1024811131829 5294.052297426896
1655.8471465552066 5171.309565390713
1656.5916316801213 5311.220428627785
1657.3359365350298 5237.647387428791
1658.0800611670165 5062.336792356433
1658.824005623148 5068.737071175601
1659.5677699504722 4948.694513523013
1660.3113541960192 5258.9284400280885
1661.054758406799 5079.327276291463
1661.7979826297997 4977.151515350848
1662.5410269119966 4932.241102292471
1663.283891300338 4930.656821273476
1664.0265758417645 4976.785136320071
1664.7690805831826 5092.655535538975
1665.5114055714948 4975.825750316273
1666.2535508535748 5052.351711836233
1666.9955164762814 4758.095017899059
1667.7373024864555 4862.865710232298
1668.478908930916 4882.959193146487
1669.220335856462 4795.49322957205
1669.9615833098778 4753.1501289569715
1670.7026513379296 4753.305489587077
1671.44353998736 4814.6893912798605
1672.1842493048916 4709.021994295852
1672.9247793372379 4786.651004048088
1673.6651301310812 4760.004806228357
1674.4053017330934 4655.219591602292
1675.1452941899242 4752.7687278521
1675.885107548207 4409.354880171626
1676.6247418545518 4461.17669223175
1677.3641971555535 4609.715004458432
1678.1034734977893 4583.194194887419
1678.8425709278108 4599.362877546664
1679.5814894921605 4700.012178043124
1680.320229237359 4523.650125153757
1681.0587902098978 4590.032074694995
1681.7971724562685 4518.820272539628
1682.5353760229264 4427.960669840873
1683.2734009563173 4507.832706892079
1684.0112473028657 4346.138632069114
1684.7489151089794 4448.530423656534
1685.4864044210462 4439.211653199579
1686.2237152854377 4129.377255784289
1686.960847748498 4379.223643909811
1687.6978018565642 4283.627809859878
1688.434577655944 4247.498156957847
1689.1711751929379 4122.971021114899
1689.9075945138156 4304.641257274894
1690.6438356648396 4242.479165916401
1691.3798986922448 3994.6375764858444
1692.1157836422499 4249.162189251583
1692.851490561059 4082.758767108656
1693.587019494853 4069.5989779494616
1694.3223704897991 3900.746614284081
1695.0575435920364 3954.7685623187767
1695.792538847696 4137.896436750266
1696.527356302886 4011.321284479237
1697.2619960036936 3793.94088365133
1697.9964579961907 3784.819188342108
1698.730742326432 3655.0488267907554
1699.4648490404488 3726.5350655958
1700.1987781842563 3948.3291676316803
1700.9325298038548 3830.406873201094
1701.6661039452174 3987.412382583649
1702.3995006543082 3901.862221685727
1703.1327199770658 3915.48328045578
1703.865761959416 3738.269638985245
1704.598626647261 3954.396182465257
1705.3313140864866 3699.3334185804683
1706.0638243229587 3701.0452219149656
1706.7961574025303 3882.7124656490605
1707.528313371029 3715.640382802434
1708.260292274268 3571.7693233840278
1708.9920941580403 3660.244404766323
1709.7237190681226 3724.1752375225906
1710.4551670502697 3677.6678251573917
1711.18643815022 3504.302833691288
1711.9175324136959 3850.7755198868267
1712.6484498863938 3695.861058295718
1713.379190614005 3385.18097895135
1714.109754642188 3565.731393553952
1714.8401420165883 3541.7964541043657
1715.570352782839 4020.688209926695
1716.3003869865497 3700.5713770658467
1717.0302446733076 3394.0927944754285
1717.7599258886876 3548.5103446881412
1718.4894306782444 3960.572793416223
1719.2187590875183 3500.9450160525507
1719.9479111620203 3782.7403207406323
1720.6768869472544 3511.3875803226065
1721.4056864887025 3655.914736596757
1722.1343098318284 3716.034106036069
1722.8627570220742 3649.511843849597
1723.591028104871 3465.7240258574393
1724.3191231256242 3418.260337255935
1725.0470421297232 3508.1256403605557
1725.7747851625427 3593.356317144336
1726.5023522694337 3678.407046969889
1727.2297434957363 3600.5751673911386
1727.9569588867635 3186.3340807689606
1728.6839984878152 3479.749526031709
1729.4108623441734 3169.2808081843777
1730.1375505011038 3533.6967777274904
1730.8640630038426 3407.9807586870384
1731.5903998976264 3447.402934417408
1732.316561227657 3550.9386765028876
1733.0425470391274 3181.35427944146
1733.7683573772065 3437.8510832353472
1734.4939922870508 3351.5932717931996
1735.2194518137949 3466.5959939965032
1735.9447360025606 3472.782105674395
1736.669844898439 3427.651177866329
1737.3947785465189 3310.4383681393106
1738.1195369918605 3065.9392612186566
1738.8441202795093 3361.1480897752067
1739.5685284544943 3511.2205613098727
1740.292761561821 3485.243886888484
1741.0168196464838 3456.0028747894444
1741.7407027534518 3432.0186401406013
1742.464410927687 3294.5401425826253
1743.187944214118 3369.518787483129
1743.9113026576688 3291.9838893912165
1744.634486303241 3365.1531746076275
1745.3574951957125 3349.468381686289
1746.0803293799509 3521.0132270324866
1746.8029889008048 3397.220445357144
1747.5254738031017 3379.7399641213574
1748.2477841316504 3306.7006653891467
1748.969919931249 3344.026537599454
1749.6918812466665 3133.892088464504
1750.4136681226646 3425.0828574669017
1751.1352806039777 3385.1780857819294
1751.856718735331 3144.3370984280677
1752.5779825614281 3156.311257234777
1753.2990721269507 3336.385913739522
1754.0199874765676 3339.407737043667
1754.7407286549314 3090.64162035581
1755.4612957066693 3305.38412416142
1756.1816886763954 3209.445148256479
1756.9019076087097 3413.897194393516
1757.6219525481865 3288.957112615928
1758.3418235393856 3279.300688140835
1759.061520626854 3333.5543688522753
1759.7810438551096 3415.0631498497014
1760.5003932686614 3172.0284739443223
1761.2195689119999 3385.2101100218156
1761.938570829594 3293.496570793007
1762.657399065898 3259.191533884489
1763.376053665348 3135.518478858863
1764.0945346723602 3023.7240862620492
1764.812842131334 3335.2358002076785
1765.5309760866512 3164.042286946939
1766.2489365826787 3110.1583193805454
1766.9667236637597 3166.759120129222
1767.684337374223 3048.3174559785994
1768.401777758383 3044.3671242628448
1769.1190448605284 3178.2066358829316
1769.836138724937 3102.517772225699
1770.5530593958665 3172.650473812031
1771.2698069175603 3291.3752890825986
1771.9863813342326 3371.360252912624
1772.702782690094 3147.403176982045
1773.4190110293293 3277.2122463493242
1774.1350663961111 3305.7402530229047
1774.8509488345844 3115.4037659146347
1775.5666583888924 3178.4470806718964
1776.2821951031437 3265.390438771198
1776.9975590214362 3256.4300551152237
1777.7127501878585 3285.104388598603
1778.4277686464684 3205.0364510798295
1779.1426144413108 3201.9675352958084
1779.8572876164162 3183.8567181931894
1780.571788215797 2997.32415258992
1781.2861162834415 3123.978216371704
1782.0002718633277 3189.8298523325666
1782.7142549994132 3192.993988291029
1783.4280657356376 3143.6620580728054
1784.141704115922 2978.6909511403364
1784.855170184177 3124.8572069304837
1785.5684639842839 3048.861921975152
1786.2815855601148 2819.8149086374187
1786.9945349555237 3109.0595950783613
1787.707312214343 2896.005240388273
1788.4199173803918 3332.7365674718812
1789.132350497468 2978.8640130611866
1789.8446116093583 3155.5821215357946
1790.556700759822 2981.7685739380754
1791.2686179926077 3102.253804165095
1791.9803633514493 3052.8099028214756
1792.6919368800554 2953.4715658164077
1793.4033386221236 3191.8501271824907
1794.1145686213295 3263.12219355351
1794.8256269213307 3163.491157534121
1795.536513565774 3196.295422201244
1796.247228598284 2920.061939238255
1796.9577720624693 3005.1683485615818
1797.6681440019165 3075.6200554790303
1798.3783444602013 2951.2131901477924
1799.0883734808776 3064.3385963153028
1799.7982311074884 3053.090764101752
1800.5079173835475 3180.9968991881333
1801.2174323525633 3130.655559720909
1801.9267760580187 3087.4927823699463
1802.635948543386 3108.5819691566744
1803.3449498521113 2922.859209985512
1804.0537800276325 3096.780689662485
1804.7624391133668 3044.873267832817
1805.47092715271 2786.642359187901
1806.1792441890484 2798.406822015007
1806.8873902657433 3077.3869549918395
1807.5953654261448 3022.273093978828
1808.3031697135812 2973.77043711337
1809.0108031713662 2872.8134501343934
1809.71826584279 3002.9284268842293
1810.425557771141 2977.43335962984
1811.1326789996747 3346.5820799747976
1811.839629571632 2957.5376283203295
1812.5464095302468 2994.8639747861807
1813.2530189187182 2986.2119812153114
1813.959457780249 2946.587344533038
1814.6657261580076 3122.307303284884
1815.371824095153 3019.205047019575
1816.0777516348262 3110.7869438989314
1816.78350882015 2761.9434277957507
1817.4890956942272 2797.638264497906
1818.1945123001533 2984.105949552601
1818.8997586809928 2976.559652280205
1819.6048348798067 2956.4460909692352
1820.3097409396287 2943.799762079559
1821.0144769034796 3176.785413976685
1821.7190428143622 2897.12487339324
1822.423438715261 3081.2775467791334
1823.1276646491478 2906.8199772423645
1823.8317206589727 2995.0254428060816
1824.5356067876692 2905.042830550482
1825.2393230781581 2836.7955233438124
1825.942869573335 2774.3619671532388
1826.646246316086 2827.0852843895
1827.3494533492758 2815.101406353263
1828.052490715756 3087.4672939685365
1828.7553584583547 3025.1818342991146
1829.458056619891 3028.5948190737854
1830.1605852431585 2949.6169128694173
1830.8629443709433 2735.9575931813197
1831.5651340460063 2839.907760012796
1832.2671543110919 2811.7639847178366
1832.9690052089318 3067.994936425048
1833.6706867822395 2733.1520930057377
1834.3721990737104 2899.7823846092956
1835.0735421260233 3034.085507968504
1835.774715981841 2919.560795436493
1836.4757206838058 3120.5678032620954
1837.1765562745459 2942.013540402527
1837.8772227966747 2738.2370733018356
1838.5777202927839 2816.3814546512376
1839.2780488054523 2925.4310370381017
1839.9782083772352 2832.5927797515787
1840.6781990506806 3046.5454079769565
1841.378020868313 2828.568923751818
1842.0776738726418 3002.8220207535405
1842.777158106157 2832.136594997558
1843.4764736113375 2779.8762378144393
1844.1756204306403 2894.115078432832
1844.8745986065078 2857.367458719905
1845.5734081813607 2783.887807452706
1846.2720491976124 2724.1576387649875
1846.970521697649 2601.437444470274
1847.6688257238511 2891.6846942708903
1848.3669613185684 2862.4249601744464
1849.0649285241452 2651.0633538578495
1849.7627273829057 2904.173238611641
1850.460357937156 2888.3703629649362
1851.1578202291857 2626.7168986432316
1851.8551143012664 2757.5873311819173
1852.5522401956569 2738.3110120242145
1853.2491979545957 3052.8288556934344
1853.9459876203055 2713.4831222603602
1854.6426092349902 2613.022372001121
1855.3390628408451 2743.005794958398
1856.0353484800362 2867.3791149365316
1856.7314661947203 2944.6305213967194
1857.4274160270397 2698.070506892773
1858.123198019115 2766.7933605671487
1858.8188122130487 2605.4208187169493
1859.5142586509319 2775.493689831428
1860.209537374838 2762.0545317177325
1860.9046484268183 2798.8747675423974
1861.599591848917 2899.087267677859
1862.294367683151 2666.6844323033915
1862.988975971528 2725.133727785661
1863.6834167560355 2738.3942954414206
1864.3776900786452 2941.4468887394946
1865.0717959813119 2742.2729147616283
1865.7657345059724 2641.3696085908027
1866.4595056945564 2917.309805069269
1867.1531095889586 2910.8557576300122
1867.846546231076 2608.238839319607
1868.5398156627743 2843.9828541492902
1869.2329179259123 2644.214024384557
1869.9258530623283 2952.270769436448
1870.618621113843 2639.948487904721
1871.3112221222636 2604.353234230909
1872.0036561293764 2659.9618474857175
1872.695923176956 2791.1849172454777
1873.3880233067594 2996.465677271276
1874.0799565605212 2617.5623056675217
1874.7717229799673 2776.386124671023
1875.4633226068036 2827.94869267599
1876.1547554827175 2918.4721322933774
1876.8460216493859 2572.9151511295545
1877.5371211484617 2773.8677021543544
1878.2280540215852 2922.9381344649073
1878.9188203103804 2483.5324798995816
1879.6094200564548 2772.5126782280113
1880.299853301396 2574.2772522771425
1880.9901200867826 3039.379858094779
1881.6802204541673 2909.3492041828686
1882.3701544450942 2825.2854145020674
1883.059922101087 2536.5369613043817
1883.7495234636517 2865.7726451729586
1884.4389585742792 2660.259038779846
1885.1282274744517 2637.98606155943
1885.8173302056166 3065.052275402671
1886.506266809225 2634.3670643615587
1887.195037326701 2601.3375567611924
1887.8836417994517 2629.957192619579
1888.5720802688702 2795.47676475414
1889.260352776333 2799.351333411421
1889.9484593632042 2844.489496562903
1890.63640007082 2697.083688236861
1891.3241749405151 2508.232835114754
1892.0117840135954 2759.8497497507406
1892.6992273313572 2639.9710193221745
1893.3865049350788 2572.923208636854
1894.0736168660223 2902.5507913722313
1894.7605631654333 2800.329456121027
1895.4473438745408 2513.0745046445354
1896.133959034556 2923.2906099564725
1896.820408686679 2714.8670099381825
1897.506692872088 2694.806796452214
1898.192811631945 2777.663453757303
1898.8787650073991 2725.0519535710127
1899.5645530395832 2852.4661870503596
1900.2501757696118 2762.9670336523754
1900.9356332385796 2518.642989528487
1901.620925487574 3002.091911062456
1902.3060525576602 2778.8651702918655
1902.9910144898859 2855.13704271278
1903.6758113252872 2648.0646245667876
1904.3604431048789 2772.875885022365
1905.0449098696663 2835.156045958346
1905.7292116606295 2678.6701352068726
1906.4133485187394 2757.4279473158813
1907.0973204849488 2342.650818436402
1907.7811276001976 2616.0435914529294
1908.4647699053967 2577.5292256811567
1909.1482474414588 2216.0393745100782
1909.8315602492694 2406.30891258495
1910.5147083696957 2784.2094757737864
1911.1976918436012 2768.1539099893926
1911.880510711815 2461.1478808067204
1912.5631650151681 2723.5994402367055
1913.2456547944657 2703.4435891793346
1913.927980090495 2657.3994401659975
1914.6101409440362 2661.1271655815317
1915.2921373958416 2825.5789989511613
1915.9739694866603 2667.769828921765
1916.655637257214 2680.874816050912
1917.3371407482136 2685.686591129191
1918.0184800003572 2782.1870407505235
1918.6996550543154 2664.629316035151
1919.3806659507554 2629.3478129713426
1920.0615127303208 2602.2357343580884
1920.7421954336423 2790.4248103726036
1921.4227141013343 2709.2410375477434
1922.103068773993 2678.129960499541
1922.783259492202 2741.9027861337386
1923.4632862965227 2483.7995845960604
1924.1431492275078 2621.3286751695146
1924.8228483256917 2525.247330741273
1925.5023836315922 2535.477204918563
1926.1817551857057 2359.1506713951158
1926.8609630285227 2795.4271483896655
1927.5400072005123 2848.293312789164
1928.218887742125 2414.804269070019
1928.8976046938005 2461.1675222486347
1929.5761580959588 2743.1386098393878
1930.2545479890086 2613.8170635755164
1930.9327744133352 2453.3204580695924
1931.6108374093164 2645.3394229543815
1932.2887370173066 2783.17921149962
1932.9664732776473 2378.0578344955497
1933.6440462306673 2713.0806773306613
1934.3214559166754 2511.877466418642
1934.9987023759659 2750.1358461122645
1935.675785648813 2522.8379037691343
1936.3527057754836 2370.914087922375
1937.029462796223 2697.0694703112235
1937.70605675126 2449.1290010765547
1938.3824876808085 2479.4178262545215
1939.058755625072 2561.2520935195853
1939.7348606242267 2433.56904060526
1940.4108027184448 2606.272314196106
1941.0865819478713 2682.8564939282633
1941.7621983526478 2561.568873336626
1942.4376519728921 2384.4266895777846
1943.1129428487038 2554.9030695068836
1943.7880710201734 2557.718087673508
1944.4630365273733 2655.5981621256296
1945.1378394103576 2438.081677070116
1945.8124797091714 2723.636161464822
1946.4869574638324 2358.1039587201903
1947.161272714353 2493.4722721316493
1947.8354255007234 2646.413075335113
1948.5094158629272 2539.592347438152
1949.1832438409183 2624.101073442891
1949.8569094746435 2762.9763884166687
1950.530412804037 2681.133105737975
1951.2037538690092 2748.5131515412954
1951.8769327094578 2420.8444548475436
1952.5499493652678 2596.839566595505
1953.222803876306 2702.030410645468
1953.895496282421 2701.184051566243
1954.5680266234522 2578.4566555162055
1955.2403949392155 2700.060164763393
1955.9126012695142 2454.0985460274487
1956.5846456541403 2607.8794658862093
1957.2565281328643 2437.7161050370823
1957.9282487454457 2692.4385320364913
1958.5998075316202 2531.0885065898597
1959.27120453112 2451.801485702104
1959.9424397836501 2603.588035932712
1960.613513328908 2596.8743515011734
1961.2844252065697 2630.346270936027
1961.9551754563017 2431.1421560080184
1962.6257641177453 2410.3274047513178
1963.29619123054 2380.518313855952
1963.966456834296 2383.992702257876
1964.6365609686181 2437.576918014129
1965.306503673086 2642.7982516728
1965.976284987275 2458.967165502296
1966.645904950734 2554.8526321619115
1967.315363603002 2384.442281232871
1967.9846609836077 2577.8672611297334
1968.6537971320486 2488.026086606068
1969.3227720878222 2595.496872607412
1969.9915858904042 2474.8235719668423
1970.660238579252 2611.0163289073694
1971.3287301938108 2470.702505326231
1971.997060773514 2409.6160305726544
1972.665230357772 2306.204125340481
1973.3332389859843 2478.2128983134285
1974.0010866975335 2284.009605162986
1974.6687735317864 2580.6023552066854
1975.3362995280932 2539.1629619608093
1976.003664725793 2478.6628882070804
1976.6708691642052 2223.9907906884187
1977.3379128826364 2472.271444741817
1978.004795920373 2648.026521062972
1978.6715183166925 2625.632347648928
1979.3380801108524 2180.5615474644565
1980.0044813420973 2482.081977906215
1980.6707220496555 2176.310304887784
1981.3368022727373 2548.4526971009627
1982.0027220505417 2290.6379690761805
1982.66848142225 2154.619729534892
1983.3340804270283 2222.782757622407
1983.999519104027 2424.492111112248
1984.6647974923835 2532.3126921933895
1985.329915631215 2422.352601300989
1985.99487355963 2509.168886487376
1986.6596713167146 2544.714906693838
1987.3243089415428 2272.9953047485583
1987.9887864731754 2502.79701095021
1988.6531039506553 2366.6872072201027
1989.3172614130071 2336.899067033251
1989.9812588992481 2307.0962766373636
1990.645096448372 2093.666875783131
1991.3087740993633 2540.0812365958545
1991.9722918911848 2374.1801740704223
1992.635649862792 2361.1798526455177
1993.2988480531185 2448.728226518515
1993.9618865010852 2769.288189817147
1994.6247652455968 2338.711903680569
1995.287484325545 2267.9172569298803
1995.9500437798033 2364.3120251152154
1996.6124436472292 2229.272630556147
1997.2746839666706 2456.828699901004
1997.936764776954 2308.34556712275
1998.598686116895 2255.791454613537
1999.2604480252903 2517.9911363136785
1999.9220505409212 2566.056314936414
2000.5834937025593 2213.114651854967
2001.2447775489582 2284.3292841549455
2001.9059021188514 2311.2053698865902
2002.5668674509616 2200.8002649906866
2003.2276735839987 2239.6443668703446
2003.8883205566508 2504.5371438919838
2004.5488084075987 2334.713614655253
2005.2091371755014 2344.586817202368
2005.8693068990033 2333.880955358938
2006.5293176167397 2378.2199637078484
2007.1891693673224 2233.1723975163777
2007.848862189354 2260.279294803166
2008.5083961214223 2384.2306283127464
2009.1677712020955 2252.8341127334734
2009.8269874699254 2312.835724888554
2010.4860449634598 2595.162739393233
2011.1449437212177 2271.926776541983
2011.8036837817108 2447.567528636605
2012.4622651834325 2346.436234039792
2013.1206879648653 2455.82125046113
2013.7789521644736 2518.3503046188275
2014.4370578207036 2096.3235785588695
2015.0950049719922 2303.8154557700827
2015.7527936567585 2458.0837123395168
2016.4104239134067 2278.9479584835867
2017.067895780323 2636.560756261659
2017.725209295886 2559.225948411
2018.3823644984514 2481.613480800399
2019.0393614263648 2522.171566179859
2019.6962001179545 2237.3457378278245
2020.3528806115355 2402.2532762723426
2021.0094029454067 2410.8480272500083
2021.6657671578487 2228.3448431541938
2022.321973287133 2434.691282977052
2022.9780213715148 2276.5222607465803
2023.6339114492293 2170.5697086252026
2024.2896435585026 2329.7807450427645
2024.9452177375442 2326.056730864131
2025.600634024544 2398.9535086077162
2026.2558924576842 2546.6533163717822
2026.9109930751292 2565.1006931771726
2027.565935915025 2235.8120278882097
2028.2207210155066 2553.3040278900767
2028.8753484146964 2671.7750864979594
2029.529818150695 2028.2614837796787
2030.1841302615903 2250.721457953902
2030.8382847854573 2318.5674796280828
2031.4922817603601 2373.237694669571
2032.1461212243357 2392.724068506327
2032.7998032154192 2167.4208107088625
2033.4533277716218 2233.3399052307586
2034.1066949309443 2194.7605074528683
2034.7599047313688 2152.6186479298813
2035.4129572108704 2353.48841123031
2036.0658524074006 2325.5274324221755
2036.7185903589016 2250.1547750505297
2037.3711711032956 2464.8729464165813
2038.023594678496 2391.9888649015475
2038.675861122394 2221.9543234727794
2039.3279704728757 2443.43956443657
2039.9799227678031 2159.453760564301
2040.6317180450278 2233.139426358629
2041.2833563423865 2146.061640808243
2041.9348376977014 2454.5749350783726
2042.5861621487784 2345.172908477568
2043.2373297334088 2145.062019058976
2043.8883404893695 2455.339432491456
2044.5391944544208 2369.5293854005536
2045.1898916663158 2454.352556085155
2045.8404321627804 2526.776769924118
2046.4908159815368 2156.863353778223
2047.1410431602853 2022.654948582814
2047.7911137367173 2084.302258711398
2048.441027748504 2466.632204233142
2049.090785233302 2107.6370684283
2049.7403862287592 2118.6811566559436
2050.389830772503 2349.8531562199505
2051.0391189021466 2049.8939500544307
2051.688250655294 2257.8233522774576
2052.337226069527 2162.4473874384084
2052.986045182417 2373.2692142863852
2053.634708031521 2006.7478509165376
2054.283214654375 2371.416774255974
2054.931565088511 1965.0335526394326
2055.579759371436 2064.997795595718
2056.2277975406523 2361.691386441966
2056.8756796336384 2358.9037948659866
2057.5234056878617 1956.3015756996851
2058.1709757407752 2141.7758087467855
2058.8183898298194 2465.2815370937888
2059.465647992416 2188.253219244209
2060.1127502659747 2227.08023931714
2060.759696687888 2074.333551876841
2061.4064872955405 2480.2882542164725
2062.053122126292 2402.457825280716
2062.699601217497 1924.5432638826478
2063.345924606485 2124.6650192762854
2063.992092330587 2207.0565606582873
2064.638104427102 2201.085798977717
2065.283960933324 2388.166560773253
2065.92966188653 2168.8282858982534
2066.5752073239855 2314.0616343098673
2067.2205972829397 2070.6663689930715
2067.86583180062 2317.2286615544954
2068.5109109142522 2212.4679965929004
2069.15583466104 2241.9533899988346
2069.8006030781708 2271.4685061128957
2070.445216202821 2272.5166857439726
2071.089674072153 2224.5318270663506
2071.7339767233116 2270.0168979006858
2072.3781241934303 2288.1797863571355
2073.0221165196253 2305.2662552594575
2073.6659537390024 2196.823488404348
2074.3096358886505 2254.039152752648
2074.953163005637 2131.8997942276574
2075.596535127028 2080.6004044022407
2076.2397522898664 2097.960531564636
2076.882814531182 2241.362042892271
2077.5257218879924 2208.4132192118295
2078.1684743973 2048.0854808332765
2078.8110720960885 2010.3328784038472
2079.453515021336 2125.8040953438854
2080.095803209997 2241.351041817025
2080.7379366990135 2248.305047506981
2081.37991552532 2193.0923305763254
2082.0217397258275 2268.9940426381345
2082.6634093374414 2015.6868456127108
2083.3049243970418 2182.7043172903977
2083.9462849415067 2279.7446618118383
2084.587491007689 2334.4106245016455
2085.2285426324324 2255.4141442417863
2085.869439852564 2301.210872062201
2086.510182704902 1911.1622519682192
2087.1507712262483 2131.597758897535
2087.791205453381 1989.7679916317088
2088.4314854230743 2296.3602954631033
2089.0716111720867 2279.675239114683
2089.7115827371617 2005.1617132496515
2090.351400155023 2073.728026903674
2090.991063462385 2142.521613026985
2091.6305726959527 1900.048613773752
2092.2699278924047 2187.600824185106
2092.9091290884153 2084.8968037276077
2093.548176320641 1930.6165195905585
2094.187069625721 1964.3110177037765
2094.8258090402887 1998.0787942034408
2095.464394600951 2218.2882985418
2096.102826344313 2110.4354519695107
2096.741104306955 2317.178206174209
2097.379228525453 2031.6364826145193
2098.017199036358 1862.0077563143295
2098.6550158762147 2253.0061002660764
2099.2926790815527 2170.516535569297
2099.9301886888825 2138.602417299854
2100.5675447347076 2149.158100893188
2101.2047472555114 2320.704480921642
2101.841796287761 2002.0498196983754
2102.47869186792 2157.2113224829654
2103.1154340324265 2122.730377810451
2103.752022817709 2109.588825964361
2104.388458260184 2127.375858888185
2105.024740396251 2068.9745547457774
2105.660869262292 2115.4328976397687
2106.296844894685 2166.809441786
2106.93266732978 2253.027297165662
2107.5683366039284 1884.6658892957155
2108.2038527534532 2168.590864279588
2108.8392158146726 2261.275184937616
2109.4744258238843 2058.6885318239
2110.1094828173755 2080.5660399937547
2110.744386831422 2301.277761507472
2111.3791379022787 2119.7708162063195
2112.01373606619 2327.8870783234624
2112.648181359389 2107.249125170444
2113.28247381809 2180.2277275941015
2113.916613478492 2141.772126340922
2114.550600376786 2127.389402437936
2115.1844345491445 2132.2963808889817
2115.818116031729 2094.505638319926
2116.451644860679 2018.7533728921667
2117.085021072133 1911.0409482490825
2117.718244702204 2015.3488564498875
2118.3513157869984 2113.640171946987
2118.984234362604 1878.2897922909528
2119.617000465092 1976.459441866129
2120.249614130529 2145.752243797272
2120.8820753949585 2095.9839268207156
2121.5143842944162 2062.147232757017
2122.14654086492 2158.4969797354097
2122.7785451424734 2263.8391666442394
2123.4103971630702 1929.324697767633
2124.042096962681 2216.1486696906745
2124.6736445772767 2148.7640311392524
2125.305040042802 1891.1496233254759
2125.936283395191 1969.1473743887357
2126.567374670365 2093.0607081853846
2127.198313904233 2050.9909518035884
2127.8291011326855 2003.6174699412873
2128.4597363916037 1955.9067741905033
2129.0902197168507 2008.592191952964
2129.720551144279 2047.4910680493508
2130.3507307097225 2131.741140067857
2130.980758449008 2215.9638569928456
2131.6106343979427 1966.6889048174005
2132.2403585923203 2267.1051758307026
2132.8699310679276 2170.9004514555572
2133.499351860526 2259.349879616253
2134.1286210058715 2054.3348156696825
2134.7577385397053 1856.670448986517
2135.3867044977487 2350.411736918127
2136.0155189157176 2339.3602039086845
2136.644181829308 2135.6166159918475
2137.2726932742025 2147.2409753882375
2137.901053286074 2360.907435328164
2138.5292619005777 1889.7132380433588
2139.1573191533535 2055.941502517749
2139.7852250800315 2198.62185237533
2140.4129797162295 2064.7247540156595
2141.0405830975433 1884.0020726641324
2141.6680352595613 2180.8513210125197
2142.2953362378576 2046.6416800630045
2142.9224860679915 1900.820596815935
2143.549484785508 2094.900604274184
2144.1763324259373 1965.2916948078662
2144.803029024799 2011.4953669504182
2145.429574617594 1924.526215162902
2146.0559692398165 2105.081056676342
2146.682212926942 1966.9353170833176
2147.308305714432 2087.7256181589446
2147.9342476377333 2261.9619651313433
2148.5600387322847 2239.10529477296
2149.185679033506 2225.1802412565994
2149.8111685768017 1979.4779037143994
2150.4365073975678 1835.6131833287413
2151.061695531187 2082.2377378957385
2151.686733013021 2278.4150164319317
2152.311619878423 2242.397745322899
2152.9363561627342 1838.9462632354293
2153.560941901278 1730.597690307868
2154.1853771293663 2155.4369337315843
2154.809661882293 2039.0703443777707
2155.433796195348 2324.293419926909
2156.0577801037944 1947.7184822041377
2156.681613642895 1903.5762765635113
2157.3052968478896 1827.1273877155381
2157.928829754006 2065.832391898833
2158.552212396462 2206.962101232208
2159.1754448104566 1967.1850626473883
2159.7985270311783 1853.626814413623
2160.4214590938027 1625.3618833196726
2161.0442410334927 1661.4572073928207
2161.6668728853874 2019.3275349243588
2162.289354684628 1942.292526464594
2162.911686466332 1993.233218587346
2163.533868265602 2071.4255070871354
2164.1559001175337 2314.284571564428
2164.7777820572046 2117.7119500885333
2165.399514119681 1990.854049103947
2166.021096340013 1736.4549453868226
2166.6425287532384 1811.29942709351
2167.263811394385 1886.3717356323846
2167.8849442984574 2100.456019516766
2168.505927500455 1835.3401669469258
2169.126761035366 1945.803164426275
2169.7474449381552 2016.2046234010122
2170.367979243778 1658.9625058043916
2170.9883639871823 2161.875360314137
2171.608599203293 1779.0200116397677
2172.2286849270276 2362.315347393823
2172.8486211932886 2273.345308395473
2173.4684080369625 2091.819511400655
2174.0880454929265 1961.8681892144218
2174.7075335960417 1831.5566745810502
2175.3268723811543 1995.1960910379184
2175.9460618831 1906.3436227283862
2176.565102136701 2050.675748372879
2177.1839931767627 2393.257803006195
2177.802735038078 1951.067860818416
2178.421327755432 1863.1357661951618
2179.0397713635866 1764.2718079089423
2179.658065897298 1978.7352752273964
2180.276211391305 1577.5988218120096
2180.8942078803357 1952.7266931902377
2181.5120553991 1954.9456706799606
2182.129753982299 1683.5798107587066
2182.7473036646206 1980.7923030538525
2183.3647044807367 2165.8378711571318
2183.9819564653044 1912.754900986789
2184.599059652968 1936.646554485933
2185.216014078367 2002.434278952897
2185.832819776113 1760.4292803590222
2186.4494767808137 2118.0547455413516
2187.065985127063 1941.6668104417586
2187.682344849436 1999.1121820419048
2188.298555982501 2083.6093865002103
2188.9146185608097 2119.2623913367925
2189.530532618901 2197.027800625089
2190.1462981912937 2060.1516375095516
2190.761915312507 2015.627703382795
2191.377384017036 1746.4359084635616
2191.9927043393654 1978.4000792069153
2192.6078763139667 2237.4891965761126
2193.2228999753006 1740.5881301635097
2193.837775357808 1951.5172187373737
2194.452502495922 1746.8781318816775
2195.0670814240602 2030.8385421974813
2195.6815121766285 1846.406447834214
2196.2957947880186 2087.093989608629
2196.9099292926057 2055.542022727671
2197.523915724758 2023.9595785576657
2198.137754118825 1862.264327576085
2198.7514445091456 2315.0406771184266
2199.3649869300443 1780.8964731917126
2199.9783814158327 2229.263516513809
2200.5916280008096 2144.842962370092
2201.2047267192593 2047.797162586175
2201.8176776054515 1976.8825447239033
2202.430480693649 1791.953817809655
2203.0431360180955 2065.373925129624
2203.6556436130195 2079.2292302324317
2204.268003512645 1599.711674565523
2204.8802157511727 1775.0474194731382
2205.492280362796 1909.7195407585725
2206.1041973816937 2044.8311335531362
2206.715966842032 1988.9468754322181
2207.3275887779655 1956.6694599023072
2207.93906322363 2056.267633358407
2208.550390213153 1903.8617756189565
2209.1615697806465 1977.6485549472768
2209.7726019602105 1714.2251020496938
2210.3834867859277 1746.4603972714467
2210.9942242918787 1888.6330475172824
2211.6048145121167 1938.9451230834306
2212.2152574806914 2432.9690828181033
2212.825553231638 1968.8576944971257
2213.435701798975 2469.1594906617706
2214.045703216707 1961.1076226362886
2214.655557518832 1707.599500957708
2215.2652647393297 1595.7086102418907
2215.874824912169 1625.7497621668374
2216.4842380713 1754.084714094019
2217.09350425067 1831.6491208463922
2217.7026234842033 1899.4970752213146
2218.311595805819 1900.4602473493164
2218.9204212494133 1705.7057768353377
2219.52909984888 1940.6616411609655
2220.137631638092 1630.7626478513312
2220.7460166509154 1687.549478473713
2221.354254921198 1744.368018730315
2221.9623464827764 1913.911787382543
2222.5702913694713 1977.4559833000687
2223.178089615096 1927.5330873449464
2223.7857412534486 1693.301049046317
2224.39324631831 1690.547142023208
2225.000604843457 1755.5122110647717
2225.607816862641 1905.6564777283536
2226.214882409611 1928.8478610700545
2226.8218015180973 2029.9897183557227
2227.4285742218217 1992.2761639074422
2228.0352005544864 1853.0951855740052
2228.6416805497847 1770.1358872089568
2229.248014241399 1776.8605497431897
2229.8542016629945 1706.7769386390905
2230.460242848223 1961.495349610889
2231.0661378307304 2165.77391296075
2231.671886644139 1920.2592031660292
2232.277489322065 1620.7253502979806
2232.8829458981127 1565.065758882185
2233.48825640587 1976.3018295593424
2234.0934208789095 2193.028656370076
2234.6984393507955 2082.3381121145767
2235.3033118550793 1833.0740071651703
2235.9080384252975 1768.7722057351525
2236.5126190949723 1665.0242051545542
2237.1170538976166 1815.375869859427
2237.721342866729 1525.8833653221627
2238.32548603579 1759.8110556835757
2238.9294834382763 1813.9572297857856
2239.533335107646 1743.5775872070674
2240.1370410773434 1708.2734093722343
2240.740601380803 1719.8847889230485
2241.3440160514474 1981.2937866639957
2241.9472851226783 2141.7013172739016
2242.550408627896 2130.967742045834
2243.1533866004793 2120.2517250854403
2243.756219073799 1791.8810726330564
2244.3589060812064 1703.4529329352085
2244.961447656049 1837.8827490879758
2245.5638438316564 1883.9131350801078
2246.166094641343 1893.0927300773837
2246.7682001184166 1597.2678734483534
2247.3701602961664 1755.9799555629822
2247.971975207871 2001.0707860638236
2248.5736448867974 1997.073002648944
2249.175169366197 1874.0504268594589
2249.7765486793123 1953.0632498409673
2250.3777828593684 1822.1018331551436
2250.9788719395783 1839.8437547252124
2251.579815953146 1924.615389312794
2252.1806149332606 1655.7481718866395
2252.781268913097 1672.4413849695006
2253.381777925817 1689.1381531875008
2253.9821420045737 1841.1552675206428
2254.5823611825035 1724.1288162991993
2255.1824354927303 1821.0423580947227
2255.782364968365 1668.7398942242985
2256.38214964251 1516.2786315237186
2256.9817895482483 1625.4085155482676
2257.5812847186553 1787.3024062736215
2258.180635186791 1709.1236123737096
2258.779840985704 1781.243889714528
2259.37890214843 1725.6072239815305
2259.97781870799 1764.0476147806294
2260.5765906973957 1802.5712120946605
2261.175218149645 2095.4337857949895
2261.773701097718 1825.4042315799447
2262.3720395745895 1752.8890105482726
2262.970233613216 1580.3384106439516
2263.568283246548 1866.2226762568048
2264.1661885075137 1799.4191963256576
2264.763949429038 1858.314853112181
2265.3615660440246 1886.9153306491226
2265.959038385374 1616.438161622819
2266.5563664859637 1995.965739513229
2267.153550378669 1918.432457486925
2267.7505900963424 1853.0759902970574
2268.3474856718312 1627.7855161623677
2268.9442371379664 1620.2287809491675
2269.5408445275643 1679.9020668999412
2270.1373078734377 1852.8251832533333
2270.7336272083758 1735.4872347692813
2271.32980256516 1683.729738779121
2271.925833976562 1731.4564350597534
2272.5217214753357 2032.417307831253
2273.117465094223 1691.922614470873
2273.7130648659586 1559.8264696425404
2274.308520823257 1893.761409088084
2274.903832998827 1923.335721151523
2275.4990014253563 2015.3995663634719
2276.094026135528 2107.602230566544
2276.6889071620117 1632.1871978265958
2277.2836445374614 1632.0636318101913
2277.878238294519 1751.0015718872678
2278.472688465812 1606.0091721203282
2279.066995083962 1460.7436775516044
2279.6611581815705 1514.5413743580168
2280.255177791232 1597.9359674514255
2280.8490539455233 1959.5647777934269
2281.442786677013 1804.223001726062
2282.0363760182554 1972.3855573021726
2282.6298220017943 1790.548445063169
2283.223124660155 1981.1077533320508
2283.816284025859 1685.164695289354
2284.4093001314086 1890.2698606336282
2285.002173009292 1613.9934523523643
2285.5949026919952 1835.196004792102
2286.1874892119777 1911.0248273270536
2286.7799326016993 1864.4829115478037
2287.3722328936 1583.544836054392
2287.964390120109 1437.2198615224465
2288.556404313642 1829.0390807963558
2289.1482755066027 1378.2865961502264
2289.7400037313873 1805.2524906033098
2290.3315890203703 1609.3603373693368
2290.9230314059205 1606.689589624369
2291.5143309203904 1604.0644770144472
2292.1054875961236 1660.8523720071594
2292.6965014654506 1968.098083825297
2293.287372560684 1545.1505924864964
2293.878100914131 1522.9666435011668
2294.468686558086 1500.784357573379
2295.059129524827 1811.01990211515
2295.649429846617 1988.1632908704228
2296.239587555716 1698.5731319331667
2296.8296026843636 1706.6820384848677
2297.419475264791 1652.4202931088262
2298.0092053292137 1597.954942530488
2298.598792909839 1877.691270308549
2299.1882380388597 1778.263490912145
2299.777540748455 1816.3717437441421
2300.3667010707904 1868.8455001124134
2300.9557190380256 1945.3432104727249
2301.544594682302 1988.1391795838013
2302.1333280357503 1476.8630992222757
2302.721919130485 1691.3944668920024
2303.3103679986198 2022.0450989595502
2303.898674672242 2062.0856082150913
2304.486839183437 1654.750947410402
2305.0748615642697 1751.4130206354585
2305.6627418468015 1674.1729704905956
2306.2504800630704 1577.4968875090499
2306.8380762451143 1870.3959314531598
2307.425530424949 1842.5946055177658
2308.012842634582 1814.715115754784
2308.6000129060103 2144.574272597498
2309.187041271214 1971.5626136674014
2309.773927762164 1643.670807676363
2310.3606724108213 1847.5456827270439
2310.9472752491274 1738.9194381512486
2311.5337363090184 1680.66850883319
2312.120055622414 1671.3190821348398
2312.706233221221 1853.4186512654421
2313.2922691373424 1564.059540641963
2313.8781634026564 1885.881701210947
2314.463916049037 1620.4416317372836
2315.049527108342 1853.43591739656
2315.6349966124235 2086.948016827638
2316.2203245931123 1973.9905849214217
2316.8055110822315 1471.2714313272813
2317.3905561115935 1494.3966256031183
2317.9754597129977 1620.1039713815994
2318.560221918229 1928.2393505332282
2319.1448427590603 1729.8722173911058
2319.729322267256 1497.9164441305338
2320.313660474563 1501.4333623119433
2320.8978574127195 1718.846529262135
2321.481913113452 1936.9207731223246
2322.0658276084705 1610.9395078164293
2322.6496009294806 1628.2575721747824
2323.233233108165 1426.4527038919264
2323.8167241762058 1673.080913153451
2324.4000741652617 1672.0126389399932
2324.983283106987 1712.8232953264628
2325.5663510330232 1817.4897012339902
2326.1492779749933 1481.0233274489026
2326.7320639645204 1895.3844869810866
2327.3147090332004 2069.8698439933087
2327.897213212629 1737.1349929080648
2328.4795765343843 1931.676150772478
2329.0617990300307 1613.4151789026153
2329.643880731124 1638.106937633346
2330.22582166921 1662.9136191914338
2330.807621875816 1967.3346422626516
2331.3892813824623 1441.7998547977338
2331.9708002206517 1446.5102774547972
2332.5521784218818 1546.4342274024661
2333.133416017634 1646.6296576541408
2333.7145130393765 1733.4625744977668
2334.295469518571 1847.776684739823
2334.876285486658 1848.0882149020035
2335.456960975076 1766.4700454057179
2336.037496015242 1684.700033730945
2336.6178906385667 1602.7765800053055
2337.198144876451 1630.3488558081467
2337.778258760278 1834.676555061225
2338.3582323214214 1763.8412313032502
2338.938065591243 1692.7969817411583
2339.517758601087 1875.4248105913782
2340.0973113822965 1811.972791071955
2340.676723966193 1825.943070481208
2341.255996384094 1579.1686552189092
2341.835128667295 1902.2671159871056
2342.4141208470883 1961.2970101935912
2342.992972954751 1741.6068211097524
2343.5716850215467 1506.715608958378
2344.1502570787306 1271.3104998229887
2344.7286891575386 1383.6692487103749
2345.3069812892045 1603.061091487608
2345.885133504944 1822.6998011903688
2346.4631458359618 1681.240026519347
2347.04101831345 1459.332459344976
2347.6187509685915 1765.3448587309363
2348.196343832553 1644.297686922821
2348.7737969364935 1762.2488885443897
2349.351110311558 1503.1047948489627
2349.9282839888765 1675.3793242309343
2350.5053179995757 1680.0582025166761
2351.0822123747585 1483.5373767771541
2351.658967145526 1758.0173480769415
2352.2355823429643 1608.762863623838
2352.812057998144 1731.3413003988328
2353.3883941421263 1369.411272387913
2353.9645908059647 1687.3331233703088
2354.540648020693 1601.1145456081144
2355.116565817336 1430.1618503150987
2355.6923442269126 1765.1697802673375
2356.2679832804224 1813.0275419010402
2356.8434830088518 1466.674605202676
2357.41884344318 1652.252662246133
2357.994064614377 1476.7282257394968
